0.00010
0.00274
0.00534
0.00562
0.00220
-0.00349
-0.00287
-0.00203
-0.00099
-0.00082
-0.00257
0.00017
0.00149
0.00262
0.00139
0.00111
0.00202
0.00076
-0.00240
-0.00238
0.00012
-0.00239
-0.00145
0.00040
-0.00053
0.00053
0.00123
0.00219
0.00474
0.00158
-0.00219
-0.00151
-0.00093
-0.00258
-0.00291
-0.00346
-0.00134
0.00365
0.00586
0.00438
0.00073
-0.00124
-0.00316
-0.00277
-0.00117
0.00121
0.00016
-0.00214
-0.00034
0.00180
-0.00061
-0.00084
0.00356
0.00502
0.00350
-0.00028
-0.00385
-0.00328
-0.00505
-0.01003
-0.00926
0.00459
0.01537
0.01198
0.00442
-0.00511
-0.00671
-0.00210
0.01038
0.02043
0.01264
-0.01175
-0.03627
-0.04308
-0.03843
-0.02328
0.00696
0.04711
0.08315
0.10268
0.09935
0.05597
-0.05004
-0.20784
-0.31628
-0.24115
0.01896
0.30602
0.42036
0.27379
-0.00819
-0.21689
-0.26007
-0.17826
-0.06540
0.02252
0.07045
0.08529
0.07912
0.05531
0.02339
-0.00371
-0.02269
-0.03368
-0.03434
-0.02721
-0.01566
-0.00324
0.00611
0.00969
0.01597
0.01842
0.01204
0.00230
-0.00363
-0.00115
-0.00314
-0.00615
-0.00897
-0.00853
-0.00478
-0.00288
0.00414
0.01171
0.00980
0.00143
-0.00227
-0.00124
0.00159
-0.00039
-0.00262
-0.00550
-0.00640
-0.00028
0.00258
0.00021
0.00165
0.00622
0.00429
0.00094
-0.00138
-0.00085
-0.00426
-0.00797
-0.00282
0.00326
0.00567
0.00149
0.00264
0.00397
-0.00091
-0.00297
-0.00313
-0.00070
-0.00141
-0.00448
-0.00350
0.00182
0.00573
0.00635
0.00188
-0.00153
-0.00609
-0.00784
0.00313
0.01751
0.02231
0.00945
-0.01198
-0.02849
-0.03699
-0.03775
-0.02445
0.00313
0.03713
0.07000
0.09244
0.09054
0.05216
-0.04208
-0.17179
-0.26363
-0.21142
0.00227
0.24686
0.35354
0.24025
0.00579
-0.17486
-0.21714
-0.15324
-0.06032
0.01266
0.05674
0.07266
0.06688
0.04555
0.02234
0.00072
-0.01591
-0.02996
-0.03408
-0.02505
-0.01190
-0.00137
0.00556
0.01482
0.01503
0.01021
0.00423
0.00046
0.00032
-0.00096
-0.00285
-0.00484
-0.00590
-0.00342
-0.00397
-0.00215
0.00326
0.00321
0.00283
0.00458
0.00458
0.00277
-0.00142
-0.00555
-0.00294
-0.00069
-0.00196
-0.00434
-0.00185
0.00369
0.00468
0.00346
0.00210
0.00037
-0.00037
-0.00322
-0.00381
-0.00063
0.00014
-0.00013
-0.00034
0.00094
0.00114
0.00195
0.00113
0.00198
0.00277
-0.00164
-0.00250
-0.00239
-0.00615
-0.00812
-0.00107
0.00707
0.01021
0.00534
-0.00411
-0.00551
-0.00094
0.00941
0.01953
0.01652
-0.00010
-0.02252
-0.04091
-0.04680
-0.03491
-0.01000
0.02518
0.06311
0.09572
0.10959
0.08590
0.00942
-0.12381
-0.27040
-0.30148
-0.12545
0.16529
0.38380
0.36627
0.13072
-0.12675
-0.24909
-0.21854
-0.11634
-0.01736
0.04998
0.07987
0.08011
0.06251
0.03833
0.01086
-0.01528
-0.03143
-0.03330
-0.02773
-0.01923
-0.00823
0.00308
0.01035
0.01235
0.01321
0.00993
0.00786
0.00311
-0.00308
-0.00685
-0.00545
-0.00240
-0.00550
-0.00497
-0.00083
-0.00060
0.00141
0.00287
0.00627
0.00654
0.00256
-0.00006
-0.00241
-0.00183
-0.00530
-0.00516
-0.00390
0.00026
0.00320
0.00444
0.00417
0.00176
0.00116
-0.00132
-0.00083
-0.00303
-0.00350
-0.00102
-0.00145
0.00111
0.00197
0.00199
0.00291
0.00214
0.00179
-0.00019
-0.00118
-0.00267
-0.00300
-0.00720
-0.00898
-0.00139
0.00827
0.01212
0.00897
0.00263
-0.00499
-0.00834
-0.00200
0.01182
0.01725
0.00632
-0.01217
-0.03204
-0.03984
-0.03246
-0.01428
0.01637
0.04896
0.07871
0.08905
0.08016
0.03275
-0.07413
-0.21226
-0.28165
-0.17119
0.08338
0.31567
0.36142
0.18939
-0.06465
-0.22010
-0.22217
-0.13324
-0.03464
0.03396
0.06813
0.07746
0.06759
0.04548
0.01511
-0.01270
-0.02671
-0.03353
-0.02843
-0.01805
-0.00881
-0.00020
0.00350
0.00984
0.01535
0.01578
0.01123
-0.00091
-0.00353
-0.00136
-0.00334
-0.00762
-0.00999
-0.00502
-0.00193
0.00009
0.00120
0.00626
0.01072
0.00675
0.00215
-0.00018
-0.00511
-0.00875
-0.00445
-0.00177
0.00037
-0.00202
-0.00091
0.00378
0.00780
0.00729
0.00141
-0.00176
-0.00365
-0.00670
-0.00654
-0.00205
0.00096
0.00624
0.00422
0.00269
0.00088
-0.00054
-0.00226
-0.00197
0.00099
0.00050
-0.00282
-0.00385
-0.00362
0.00003
0.00530
0.00358
0.00101
-0.00028
-0.00546
-0.00449
0.01247
0.02335
0.02042
-0.00255
-0.02617
-0.04096
-0.04259
-0.03406
-0.00832
0.02728
0.05952
0.08817
0.09882
0.08121
0.00936
-0.11706
-0.25337
-0.27974
-0.11621
0.15990
0.36284
0.34040
0.11177
-0.12552
-0.22942
-0.20235
-0.10755
-0.01268
0.04877
0.07489
0.07852
0.05836
0.02986
0.00559
-0.01211
-0.02598
-0.03377
-0.02917
-0.01857
-0.00241
0.00635
0.00865
0.01326
0.01220
0.00707
0.00119
0.00119
0.00027
-0.00236
-0.00680
-0.00386
-0.00030
-0.00251
-0.00312
-0.00218
0.00229
0.00171
-0.00003
0.00204
0.00579
0.00687
0.00183
-0.00298
-0.00333
-0.00671
-0.00699
-0.00380
0.00364
0.00489
0.00258
0.00129
0.00241
0.00502
0.00128
-0.00427
-0.00758
-0.00223
0.00042
0.00035
0.00108
0.00155
0.00168
0.00094
0.00079
0.00383
0.00434
-0.00196
-0.00576
-0.00606
-0.01027
-0.00648
0.00299
0.01296
0.01593
0.00472
-0.00898
-0.01068
0.00209
0.01597
0.01956
0.00883
-0.01270
-0.03844
-0.04600
-0.03790
-0.01558
0.01302
0.05010
0.08425
0.10110
0.09458
0.04115
-0.06669
-0.21929
-0.31263
-0.21152
0.06192
0.33276
0.41175
0.22667
-0.05906
-0.23556
-0.24064
-0.14820
-0.04556
0.03118
0.07053
0.08284
0.07367
0.05054
0.01908
-0.00876
-0.02899
-0.03719
-0.03266
-0.02141
-0.01072
0.00156
0.01121
0.01374
0.01201
0.00882
0.00832
0.00408
-0.00127
-0.00609
-0.00638
-0.00401
-0.00330
-0.00409
-0.00323
0.00215
0.00325
0.00080
0.00021
0.00350
0.00625
0.00386
-0.00056
-0.00328
-0.00471
-0.00617
-0.00371
0.00157
0.00448
0.00161
-0.00159
0.00128
0.00465
0.00182
0.00082
-0.00090
-0.00431
-0.00523
-0.00351
-0.00051
0.00407
0.00606
0.00240
0.00140
0.00058
-0.00154
-0.00294
-0.00359
0.00038
0.00023
-0.00505
-0.00358
-0.00200
0.00787
0.00965
0.00526
-0.00476
-0.00633
-0.00696
-0.00008
0.02028
0.02067
0.00981
-0.01361
-0.03208
-0.04596
-0.03979
-0.02036
0.01484
0.05180
0.08246
0.09812
0.08775
0.04143
-0.07081
-0.22071
-0.29604
-0.18967
0.06502
0.31845
0.39211
0.21818
-0.06164
-0.22732
-0.23435
-0.14448
-0.04138
0.03268
0.06949
0.08072
0.07091
0.04873
0.01827
-0.01119
-0.02618
-0.03364
-0.03331
-0.02369
-0.00975
0.00198
0.00993
0.01208
0.01679
0.01151
0.00377
-0.00122
0.00171
-0.00225
-0.00734
-0.00630
-0.00120
-0.00333
-0.00294
-0.00294
0.00381
0.00683
0.00056
0.00043
0.00023
0.00476
0.00432
0.00063
-0.00827
-0.00582
-0.00099
-0.00066
-0.00327
0.00106
0.00654
0.00591
0.00049
0.00305
-0.00348
-0.00635
-0.00375
-0.00155
0.00484
0.00376
-0.00218
-0.00130
0.00603
0.00009
-0.00222
-0.00330
-0.00021
0.00049
0.00001
-0.00415
0.00080
0.00329
0.00125
0.00110
-0.00261
-0.00640
-0.00696
0.00468
0.01949
0.02555
0.01642
-0.00542
-0.03032
-0.04153
-0.04302
-0.03075
-0.00701
0.02641
0.06209
0.08762
0.09703
0.07763
0.01079
-0.11263
-0.25417
-0.27910
-0.11107
0.15015
0.35393
0.34316
0.12333
-0.12290
-0.23623
-0.19893
-0.10227
-0.01606
0.04292
0.07472
0.07377
0.05992
0.03255
0.00825
-0.01074
-0.02671
-0.03292
-0.02621
-0.01507
-0.00920
-0.00007
0.00669
0.01513
0.01461
0.00827
0.00303
0.00582
0.00203
-0.00505
-0.00983
-0.00761
-0.00217
-0.00155
-0.00187
0.00057
0.00139
0.00119
0.00326
0.00339
0.00706
0.00365
-0.00189
-0.00397
-0.00540
-0.00509
-0.00310
-0.00246
0.00477
0.00513
0.00177
0.00032
0.00107
0.00066
-0.00148
-0.00050
-0.00043
-0.00187
-0.00205
-0.00039
0.00067
0.00210
0.00160
0.00092
-0.00186
0.00083
0.00238
0.00105
0.00013
-0.00323
-0.00890
-0.00896
0.00040
0.01125
0.01100
0.00489
-0.00658
-0.00755
0.00213
0.01556
0.02401
0.00486
-0.01460
-0.03521
-0.04726
-0.03831
-0.01759
0.01192
0.04956
0.08647
0.10297
0.09816
0.04581
-0.06875
-0.22717
-0.32373
-0.21325
0.06760
0.34508
0.42018
0.22796
-0.06568
-0.24492
-0.24769
-0.15191
-0.03874
0.03941
0.07478
0.08527
0.06775
0.04487
0.01857
-0.01032
-0.02525
-0.03547
-0.03025
-0.02309
-0.01128
0.00100
0.01078
0.01339
0.00925
0.01087
0.01004
0.00499
-0.00393
-0.00543
-0.00269
-0.00286
-0.00729
-0.00603
-0.00156
0.00013
-0.00167
0.00361
0.00807
0.00595
0.00292
-0.00227
0.00073
0.00037
-0.00296
-0.00557
-0.00521
-0.00493
-0.00170
0.00464
0.00635
0.00877
0.00266
-0.00329
-0.00285
-0.00298
0.00044
-0.00375
-0.00573
0.00332
0.00307
0.00276
0.00217
0.00119
-0.00014
-0.00127
-0.00202
-0.00135
0.00071
-0.00470
-0.00334
0.00053
0.00507
0.00535
0.00347
-0.00579
-0.00565
-0.00434
0.00336
0.02121
0.02271
0.01032
-0.01562
-0.03391
-0.04812
-0.03876
-0.01787
0.01422
0.04992
0.07869
0.09456
0.08501
0.03978
-0.06331
-0.20227
-0.29283
-0.19598
0.06929
0.31803
0.37322
0.19624
-0.06346
-0.21573
-0.22128
-0.13541
-0.03338
0.03692
0.06623
0.07205
0.06347
0.04441
0.01606
-0.01324
-0.02617
-0.02891
-0.02429
-0.02224
-0.00817
0.00246
0.00495
0.00565
0.01194
0.01705
0.00974
0.00367
-0.00243
-0.00576
-0.00830
-0.00843
-0.00356
-0.00276
0.00183
0.00095
0.00310
0.00395
0.00257
0.00430
-0.00144
0.00024
-0.00097
-0.00047
-0.00805
0.00090
0.00235
-0.00382
-0.00094
0.00104
0.00919
0.00344
-0.00428
-0.00452
-0.00082
0.00070
0.00090
-0.00181
0.00292
-0.00156
-0.00019
0.00071
0.00123
0.00075
-0.00048
-0.00217
0.00103
0.00519
-0.00457
-0.00183
-0.00731
0.00026
0.00372
0.00388
0.00206
-0.00115
-0.00525
-0.00381
0.00916
0.01741
0.02369
0.00485
-0.01450
-0.03548
-0.04366
-0.03616
-0.02232
0.00604
0.04325
0.07698
0.09701
0.09986
0.06268
-0.04629
-0.20014
-0.30930
-0.24271
0.02252
0.30691
0.41378
0.25491
-0.02791
-0.22055
-0.24399
-0.15849
-0.05184
0.02523
0.06730
0.08102
0.07021
0.04913
0.01933
-0.00470
-0.02038
-0.03252
-0.03452
-0.02493
-0.01065
-0.00054
0.00342
0.01473
0.01794
0.01419
0.00384
-0.00078
0.00003
-0.00161
-0.00744
-0.00593
0.00003
-0.00305
-0.00331
-0.00372
0.00291
-0.00080
0.00258
0.00575
0.00607
0.00580
0.00210
-0.00322
-0.00779
-0.00491
-0.00637
-0.00640
0.00175
0.00912
0.00579
0.00373
-0.00043
0.00194
0.00235
-0.00410
-0.00729
-0.00300
-0.00102
-0.00268
0.00250
0.00286
0.00421
0.00473
0.00061
0.00010
-0.00013
-0.00148
-0.00174
-0.00194
-0.00463
-0.01085
-0.00865
0.00523
0.01653
0.01740
0.00352
-0.00721
-0.01191
-0.00909
0.00557
0.02003
0.02113
-0.00144
-0.02550
-0.04043
-0.03799
-0.02659
-0.00313
0.02840
0.06485
0.09291
0.09724
0.07156
-0.01269
-0.14860
-0.28265
-0.26961
-0.05587
0.22950
0.39309
0.31192
0.05052
-0.17829
-0.24467
-0.18305
-0.08001
0.00550
0.05792
0.07388
0.07066
0.05770
0.03665
0.00230
-0.01644
-0.02974
-0.03899
-0.02938
-0.02042
-0.00395
0.01098
0.01387
0.01304
0.01492
0.00966
0.00433
-0.00435
-0.00387
-0.00071
-0.00479
-0.00942
-0.01020
-0.00034
-0.00166
0.00565
0.01121
0.00528
0.00244
-0.00197
-0.00361
-0.00219
0.00020
-0.00229
-0.00537
0.00046
0.00362
0.00032
0.00054
0.00075
0.00106
0.00285
0.00112
-0.00309
-0.00008
-0.00298
-0.00484
-0.00050
0.00311
0.00708
0.00200
-0.00246
-0.00176
-0.00112
-0.00059
-0.00019
0.00053
0.00170
-0.00093
-0.00244
-0.00223
-0.00103
0.00118
0.00280
-0.00055
0.00018
-0.00185
-0.00475
0.00952
0.02072
0.02032
0.00393
-0.02001
-0.03739
-0.04369
-0.03796
-0.01425
0.01843
0.05047
0.08274
0.10239
0.09137
0.02911
-0.09019
-0.23849
-0.29348
-0.15309
0.11417
0.34149
0.35571
0.15524
-0.08778
-0.22408
-0.20824
-0.11890
-0.02522
0.03291
0.06828
0.07978
0.05903
0.03556
0.01065
-0.00508
-0.02280
-0.03083
-0.03024
-0.01834
-0.00836
-0.00195
0.00503
0.01018
0.01744
0.01371
0.00801
0.00256
-0.00135
-0.00865
-0.00899
-0.00462
-0.00202
-0.00133
-0.00142
0.00036
0.00189
0.00121
0.00402
0.00469
0.00384
0.00064
-0.00455
-0.00392
0.00032
0.00127
-0.00548
-0.00620
0.00133
0.00903
0.00430
-0.00187
-0.00239
0.00118
-0.00103
-0.00087
0.00215
-0.00029
-0.00223
-0.00196
-0.00153
-0.00013
0.00500
0.00032
-0.00138
0.00217
0.00393
0.00201
-0.00058
-0.00519
-0.00913
-0.00880
-0.00248
0.00776
0.01224
0.00923
-0.00329
-0.00724
-0.00321
0.00582
0.02115
0.01757
-0.00089
-0.02077
-0.03917
-0.04536
-0.03619
-0.01013
0.02398
0.06001
0.09106
0.10629
0.08909
0.02165
-0.11038
-0.27004
-0.31368
-0.14237
0.15675
0.38787
0.37674
0.13983
-0.12311
-0.25084
-0.22057
-0.11873
-0.01875
0.04891
0.07649
0.07810
0.06414
0.04070
0.01396
-0.01569
-0.02999
-0.03175
-0.03036
-0.02159
-0.01072
0.00600
0.01087
0.01204
0.01302
0.01001
0.00791
0.00441
-0.00331
-0.00611
-0.00647
-0.00514
-0.00381
-0.00245
-0.00241
-0.00351
0.00236
0.00303
0.01080
0.00572
0.00015
-0.00149
-0.00183
0.00062
-0.00510
-0.00620
-0.00402
-0.00163
0.00064
0.00492
0.00774
0.00597
-0.00257
-0.00181
-0.00041
-0.00069
-0.00284
-0.00361
-0.00450
-0.00267
0.00299
0.00388
0.00512
0.00431
0.00452
0.00232
-0.00235
-0.00623
-0.00629
-0.01023
-0.00744
-0.00229
0.00751
0.01391
0.01275
0.00723
-0.00525
-0.01156
-0.00986
0.00993
0.02088
0.01256
-0.00546
-0.02503
-0.03860
-0.04149
-0.02852
0.00004
0.03901
0.07708
0.09393
0.09670
0.06557
-0.02812
-0.17090
-0.29562
-0.25688
-0.03046
0.25511
0.40200
0.30018
0.03575
-0.18914
-0.25408
-0.18335
-0.07463
0.00837
0.05876
0.07850
0.07927
0.05683
0.02999
0.00424
-0.01680
-0.03565
-0.03774
-0.02967
-0.01731
-0.00274
0.00514
0.01186
0.01733
0.01776
0.00990
0.00685
-0.00075
-0.00678
-0.01149
-0.00975
-0.00383
-0.00020
0.00002
-0.00307
0.00339
0.00756
0.00356
0.00361
0.00142
-0.00195
-0.00087
-0.00655
-0.00248
0.00325
-0.00035
-0.00041
-0.00404
0.00134
0.00482
0.00088
0.00060
-0.00012
0.00144
-0.00278
-0.00479
0.00085
0.00380
0.00077
-0.00031
0.00008
-0.00007
-0.00064
-0.00209
0.00020
0.00360
0.00071
-0.00355
-0.00162
-0.00026
-0.00128
0.00145
0.00269
0.00146
-0.00190
-0.00610
-0.00679
0.00450
0.02238
0.02370
0.01154
-0.00879
-0.03016
-0.04422
-0.04242
-0.02663
0.00108
0.03592
0.06773
0.09358
0.10008
0.06460
-0.02593
-0.16171
-0.27538
-0.24199
-0.03286
0.23747
0.37230
0.26746
0.03005
-0.16506
-0.21969
-0.16586
-0.07699
0.00258
0.05467
0.07616
0.07083
0.04932
0.02433
0.00097
-0.01697
-0.02608
-0.03023
-0.02404
-0.01592
-0.00671
0.00516
0.01292
0.01239
0.01267
0.00843
0.00346
0.00231
-0.00410
-0.00601
-0.00581
-0.00209
-0.00507
-0.00594
0.00034
0.00301
0.00378
0.00220
0.00382
0.00434
0.00023
-0.00055
-0.00066
-0.00084
-0.00249
-0.00452
-0.00414
-0.00188
0.00052
0.00201
0.00591
0.00507
0.00355
0.00011
-0.00457
-0.00347
-0.00172
-0.00260
-0.00300
-0.00238
0.00220
0.00786
0.00521
0.00312
0.00127
-0.00455
-0.00427
-0.00408
-0.00375
-0.00447
-0.00393
0.00344
0.01008
0.00914
0.00061
-0.00445
-0.00502
-0.00203
0.00328
0.01586
0.01973
0.00511
-0.01915
-0.03796
-0.04158
-0.03358
-0.01338
0.01710
0.05481
0.08856
0.10338
0.08947
0.02625
-0.10420
-0.25651
-0.30356
-0.14421
0.13764
0.36754
0.37208
0.14474
-0.11123
-0.23716
-0.21685
-0.12309
-0.02386
0.04506
0.07962
0.07972
0.06176
0.03770
0.00856
-0.01404
-0.02682
-0.02982
-0.02734
-0.01981
-0.00873
0.00238
0.00817
0.00941
0.01182
0.01296
0.00986
0.00166
-0.00242
-0.00409
-0.00388
-0.00693
-0.00689
-0.00284
-0.00201
-0.00052
0.00106
0.00461
0.00463
0.00553
0.00264
0.00383
0.00142
-0.00554
-0.00855
-0.00555
-0.00002
-0.00020
-0.00393
0.00257
0.00925
0.00505
0.00330
-0.00130
-0.00118
-0.00360
-0.00543
-0.00447
-0.00167
0.00249
0.00344
0.00326
0.00279
0.00188
0.00067
-0.00070
-0.00148
-0.00137
-0.00305
-0.00770
-0.00697
0.00085
0.00831
0.01088
0.00393
-0.00172
-0.00582
-0.00464
0.00474
0.01684
0.01849
0.00193
-0.01875
-0.03380
-0.04070
-0.03562
-0.01271
0.02138
0.05248
0.07985
0.09455
0.08597
0.03153
-0.08635
-0.23353
-0.28866
-0.15948
0.09733
0.32868
0.37029
0.18606
-0.07876
-0.22909
-0.22456
-0.13076
-0.03195
0.03421
0.06963
0.07871
0.07143
0.04221
0.01332
-0.00950
-0.02423
-0.03278
-0.03348
-0.02346
-0.01239
0.00215
0.01250
0.01559
0.01442
0.01170
0.00391
-0.00066
0.00023
-0.00322
-0.00496
-0.00793
-0.00556
-0.00081
-0.00202
-0.00159
0.00126
0.00469
0.00581
0.00285
0.00380
0.00282
-0.00252
-0.00324
-0.00429
-0.00388
-0.00269
-0.00197
-0.00043
0.00248
0.00473
0.00564
0.00302
0.00062
-0.00183
-0.00761
-0.00380
0.00192
0.00106
0.00066
-0.00007
-0.00022
0.00247
0.00291
0.00153
0.00098
-0.00283
-0.00605
-0.00387
-0.00172
0.00108
0.00561
0.00436
0.00106
-0.00222
-0.00601
-0.00400
0.00402
0.01615
0.02197
0.01088
-0.00936
-0.02896
-0.04128
-0.04130
-0.02551
0.00675
0.03846
0.06752
0.09020
0.09304
0.05921
-0.03391
-0.16936
-0.27184
-0.22334
-0.00910
0.24245
0.35999
0.25494
0.01961
-0.17153
-0.22223
-0.16294
-0.06840
0.01053
0.05712
0.07438
0.07099
0.04977
0.02151
-0.00185
-0.01765
-0.02823
-0.03127
-0.02319
-0.01369
-0.00379
0.00439
0.01419
0.01526
0.00707
0.00544
0.00591
0.00276
-0.00384
-0.00712
-0.00399
-0.00121
-0.00351
-0.00542
-0.00375
0.00108
0.00283
0.00395
0.00591
0.00490
0.00338
-0.00143
-0.00370
-0.00243
-0.00308
-0.00537
-0.00447
0.00076
0.00548
0.00531
0.00033
0.00145
0.00313
-0.00004
-0.00333
-0.00613
-0.00342
0.00162
0.00206
0.00246
0.00301
0.00010
-0.00115
-0.00107
0.00189
0.00319
-0.00052
-0.00580
-0.00624
-0.00352
-0.00081
0.00445
0.00667
0.00622
-0.00207
-0.00556
-0.00147
0.00778
0.01704
0.01629
0.00446
-0.02008
-0.03943
-0.04314
-0.03388
-0.01047
0.02289
0.05097
0.07931
0.09889
0.09165
0.03218
-0.09193
-0.23953
-0.29642
-0.16455
0.10742
0.34594
0.37366
0.17517
-0.08611
-0.23068
-0.22247
-0.13020
-0.03240
0.03763
0.07378
0.07858
0.06268
0.04233
0.01793
-0.00795
-0.02657
-0.03548
-0.03136
-0.02322
-0.00909
0.00295
0.00938
0.01301
0.01357
0.00976
0.00739
0.00575
-0.00111
-0.00705
-0.00799
-0.00611
-0.00437
-0.00259
0.00004
0.00168
0.00105
0.00179
0.00414
0.00298
0.00211
0.00105
-0.00048
0.00172
-0.00255
-0.00521
-0.00458
-0.00322
0.00145
0.00246
0.00184
0.00267
0.00331
0.00125
-0.00066
-0.00090
-0.00105
-0.00175
-0.00247
-0.00182
-0.00039
0.00073
0.00153
0.00381
0.00581
0.00231
-0.00287
-0.00725
-0.00687
-0.00457
-0.00191
0.00484
0.00938
0.00685
0.00008
-0.00497
-0.00655
0.00226
0.01242
0.01688
0.01038
-0.00799
-0.02696
-0.03955
-0.03716
-0.02218
0.00420
0.03646
0.06785
0.09131
0.09374
0.05541
-0.03697
-0.17261
-0.27418
-0.22470
-0.00499
0.25770
0.36990
0.24994
0.00633
-0.18115
-0.22376
-0.15801
-0.06321
0.01253
0.05845
0.07290
0.06602
0.04954
0.02729
0.00100
-0.02087
-0.03138
-0.02967
-0.02332
-0.01443
-0.00437
0.00519
0.01187
0.01232
0.01236
0.00891
0.00724
0.00178
-0.00408
-0.00553
-0.00885
-0.01116
-0.00536
0.00145
0.00412
0.00591
0.00205
0.00221
0.00167
-0.00009
0.00074
0.00207
0.00015
-0.00089
-0.00440
-0.00583
-0.00154
-0.00138
0.00024
0.00369
0.00474
0.00467
0.00258
-0.00230
-0.00150
-0.00288
-0.00336
-0.00249
-0.00087
0.00073
0.00218
0.00308
0.00391
0.00463
-0.00253
-0.00624
-0.00413
-0.00263
-0.00100
0.00235
0.00366
0.00357
0.00003
-0.00314
-0.00436
-0.00062
0.00574
0.01448
0.01911
0.00926
-0.00957
-0.03142
-0.04329
-0.03944
-0.02020
0.00929
0.04187
0.07221
0.09431
0.09073
0.04671
-0.05003
-0.18882
-0.27639
-0.20263
0.02719
0.27577
0.36104
0.22344
-0.01696
-0.18919
-0.21722
-0.14819
-0.05721
0.01732
0.06147
0.07556
0.06987
0.04873
0.02058
-0.00572
-0.02482
-0.03264
-0.02877
-0.02086
-0.01111
-0.00071
0.00876
0.01145
0.01035
0.01025
0.00680
0.00541
0.00038
-0.00480
-0.00550
-0.00543
-0.00446
-0.00413
-0.00060
0.00242
0.00043
-0.00105
-0.00001
0.00420
0.00718
0.00560
0.00211
-0.00427
-0.00857
-0.00529
-0.00160
0.00123
0.00166
0.00043
0.00142
0.00325
0.00218
-0.00092
-0.00044
0.00011
0.00051
-0.00090
-0.00243
-0.00229
-0.00145
-0.00044
0.00254
0.00500
0.00425
0.00087
-0.00234
-0.00195
-0.00506
-0.00842
-0.00465
0.00368
0.00795
0.00452
-0.00117
-0.00082
0.00367
0.00650
0.01125
0.01452
0.00641
-0.01393
-0.03588
-0.04498
-0.03839
-0.01771
0.01206
0.04798
0.08403
0.10298
0.09521
0.04523
-0.06315
-0.21240
-0.30441
-0.21854
0.03907
0.31292
0.40539
0.24620
-0.02812
-0.22003
-0.24818
-0.16469
-0.05665
0.02726
0.07223
0.08457
0.07463
0.05091
0.02203
-0.00662
-0.02760
-0.03583
-0.03195
-0.02301
-0.01252
-0.00102
0.00871
0.01300
0.01388
0.01232
0.00689
0.00420
0.00019
-0.00428
-0.00434
-0.00519
-0.00773
-0.00762
-0.00327
0.00238
0.00389
0.00366
0.00650
0.00487
0.00097
-0.00048
0.00005
-0.00031
-0.00434
-0.00707
-0.00568
-0.00205
0.00229
0.00594
0.00762
0.00586
-0.00089
-0.00466
-0.00263
-0.00246
-0.00194
-0.00165
-0.00216
0.00082
0.00431
0.00533
0.00371
0.00190
-0.00231
-0.00603
-0.00612
-0.00201
-0.00065
-0.00185
0.00174
0.00689
0.00992
0.00166
-0.00720
-0.00848
-0.00593
0.00486
0.01958
0.02248
0.00666
-0.01665
-0.03318
-0.03695
-0.03054
-0.01653
0.00758
0.03861
0.06901
0.09215
0.09001
0.04157
-0.05943
-0.18958
-0.26838
-0.18944
0.04114
0.27935
0.35539
0.20890
-0.03297
-0.19369
-0.21367
-0.14153
-0.04725
0.02468
0.06308
0.07356
0.06401
0.04408
0.01713
-0.00767
-0.02272
-0.02854
-0.02511
-0.01963
-0.01232
-0.00139
0.00591
0.00800
0.00956
0.01349
0.01331
0.00518
-0.00250
-0.00655
-0.00695
-0.00632
-0.00531
-0.00184
0.00087
0.00020
0.00069
0.00257
0.00304
0.00485
0.00251
0.00105
-0.00030
-0.00414
-0.00371
-0.00135
-0.00232
-0.00212
0.00215
0.00304
0.00135
0.00100
0.00145
-0.00130
-0.00083
0.00064
0.00016
-0.00016
-0.00116
-0.00098
-0.00040
0.00012
0.00027
0.00254
0.00222
-0.00027
-0.00181
-0.00443
-0.00264
0.00102
0.00136
0.00243
0.00068
-0.00310
-0.00289
-0.00033
0.00510
0.01312
0.01867
0.01504
-0.00433
-0.02944
-0.04370
-0.04167
-0.02682
-0.00044
0.03104
0.06323
0.09263
0.10017
0.06983
-0.01357
-0.14625
-0.26786
-0.25672
-0.06456
0.20621
0.37144
0.30302
0.06685
-0.15273
-0.23179
-0.18723
-0.08962
0.00150
0.05583
0.07641
0.07158
0.05350
0.02991
0.00383
-0.01692
-0.02869
-0.03137
-0.02589
-0.01800
-0.00515
0.00694
0.01223
0.01196
0.00964
0.00806
0.00662
0.00186
-0.00361
-0.00422
-0.00339
-0.00381
-0.00685
-0.00519
0.00015
0.00087
0.00022
0.00287
0.00468
0.00522
0.00486
0.00272
-0.00143
-0.00492
-0.00558
-0.00529
-0.00129
0.00175
-0.00008
-0.00179
0.00312
0.00615
0.00350
-0.00012
-0.00195
-0.00066
-0.00198
-0.00281
-0.00194
-0.00016
0.00135
0.00221
0.00189
0.00321
0.00143
-0.00256
-0.00308
-0.00422
-0.00551
-0.00428
0.00157
0.00849
0.01133
0.00559
-0.00413
-0.00961
-0.00250
0.00718
0.01280
0.00932
-0.00377
-0.01647
-0.02671
-0.02873
-0.02520
-0.01426
0.01175
0.05019
0.08944
0.10918
0.08756
0.00561
-0.13890
-0.27956
-0.28761
-0.09082
0.20519
0.39601
0.33669
0.08426
-0.15529
-0.25155
-0.20446
-0.09806
-0.00358
0.05735
0.08055
0.07919
0.06254
0.03510
0.00320
-0.02232
-0.03254
-0.03218
-0.02626
-0.01688
-0.00587
0.00476
0.01091
0.01156
0.01248
0.01199
0.00950
0.00223
-0.00587
-0.00870
-0.00717
-0.00635
-0.00535
-0.00220
0.00035
0.00450
0.00813
0.00894
0.00423
-0.00042
-0.00482
-0.00946
-0.01159
-0.00936
0.00101
0.01723
0.02272
0.00857
-0.00952
-0.01295
-0.00578
-0.00633
-0.01058
-0.00248
0.00859
0.01140
0.00880
0.00282
-0.00073
-0.00177
-0.00390
-0.00483
-0.00317
-0.00122
0.00050
0.00045
0.00127
0.00179
-0.00155
-0.00417
0.00208
0.00680
0.00321
-0.00281
-0.00866
-0.00368
0.00306
0.00988
0.02007
0.02073
0.00305
-0.02386
-0.04256
-0.04837
-0.03358
-0.00676
0.02422
0.05810
0.08795
0.10168
0.08277
0.01971
-0.10300
-0.24713
-0.29278
-0.14968
0.12365
0.35424
0.37642
0.16486
-0.09978
-0.23801
-0.22660
-0.13002
-0.02807
0.04588
0.07736
0.07924
0.06759
0.04161
0.01064
-0.01377
-0.02664
-0.03179
-0.03107
-0.02365
-0.00901
0.00323
0.01198
0.01347
0.01254
0.01259
0.00856
-0.00174
-0.00609
-0.00482
-0.00297
-0.00436
-0.00603
-0.00104
0.00097
0.00329
-0.00210
-0.00176
0.00285
0.00517
0.00508
0.00323
0.00084
-0.00531
-0.00486
-0.00203
-0.00193
-0.00332
-0.00177
0.00046
0.00693
0.00631
0.00065
0.00025
0.00031
-0.00105
-0.00538
-0.00512
0.00062
0.00195
0.00142
0.00211
0.00089
0.00141
-0.00029
-0.00147
0.00008
-0.00047
-0.00401
-0.00342
0.00186
0.00457
0.00295
-0.00433
-0.00699
-0.00194
0.00803
0.02046
0.02057
0.00856
-0.01107
-0.03249
-0.04372
-0.03856
-0.02207
0.00397
0.03862
0.06986
0.09096
0.09225
0.05619
-0.02967
-0.16035
-0.26993
-0.23472
-0.02391
0.23620
0.36438
0.26911
0.03135
-0.16648
-0.22488
-0.17056
-0.07525
0.00505
0.05662
0.07511
0.07248
0.05328
0.02556
0.00069
-0.02009
-0.02846
-0.02867
-0.02525
-0.01715
-0.00732
0.00280
0.01333
0.01703
0.01633
0.01015
0.00191
-0.00231
-0.00444
-0.00581
-0.00533
-0.00648
-0.00588
0.00160
0.00226
0.00035
0.00139
0.00365
0.00525
0.00312
-0.00118
-0.00097
-0.00124
-0.00150
-0.00169
-0.00199
-0.00067
-0.00205
-0.00271
-0.00007
0.00304
0.00429
0.00649
0.00190
-0.00139
-0.00294
-0.00548
-0.00508
0.00016
0.00315
-0.00034
0.00066
0.00478
0.00617
0.00003
-0.00403
-0.00450
-0.00550
-0.00212
-0.00026
0.00291
0.00563
0.00106
-0.00454
-0.00458
0.00366
0.00900
0.01448
0.01866
0.00573
-0.01335
-0.03164
-0.04271
-0.03859
-0.02345
0.00567
0.04011
0.07942
0.10211
0.09737
0.05504
-0.04820
-0.19268
-0.29950
-0.23475
0.01364
0.29670
0.40336
0.24983
-0.01996
-0.20614
-0.23608
-0.16215
-0.05959
0.02196
0.06986
0.08005
0.06705
0.04881
0.02326
-0.00324
-0.02347
-0.03232
-0.03023
-0.02410
-0.01454
-0.00216
0.00948
0.01130
0.01083
0.01203
0.01164
0.00773
-0.00155
-0.00662
-0.00754
-0.00722
-0.00614
-0.00414
0.00111
0.00354
0.00117
-0.00069
0.00398
0.00528
0.00307
0.00197
0.00046
-0.00217
-0.00729
-0.00548
-0.00256
0.00269
0.00393
0.00047
0.00010
0.00236
0.00364
-0.00052
-0.00313
-0.00045
-0.00003
-0.00359
-0.00062
0.00205
0.00216
0.00066
-0.00210
0.00172
0.00409
0.00112
-0.00368
-0.00367
-0.00291
-0.00357
-0.00165
0.00250
0.00667
0.00583
-0.00078
-0.00611
-0.00220
-0.00109
0.00918
0.02009
0.01738
0.00007
-0.02551
-0.04330
-0.04169
-0.02855
-0.00808
0.02736
0.06257
0.09531
0.10166
0.07557
-0.00172
-0.13359
-0.26528
-0.27783
-0.09668
0.17990
0.37557
0.34387
0.10804
-0.14298
-0.24768
-0.20930
-0.10640
-0.00638
0.05642
0.08267
0.07992
0.05993
0.03039
0.00171
-0.01813
-0.02831
-0.03003
-0.02642
-0.01732
-0.00543
0.00442
0.00824
0.00967
0.01186
0.01176
0.00973
0.00323
-0.00426
-0.00600
-0.00731
-0.00847
-0.00322
-0.00191
-0.00094
0.00237
0.00437
0.00713
0.00336
-0.00075
-0.00272
-0.00123
-0.00037
-0.00241
-0.00035
0.00142
0.00256
-0.00077
-0.00490
-0.00320
0.00059
0.00326
0.00449
0.00205
0.00004
-0.00177
-0.00240
0.00006
0.00131
-0.00050
-0.00456
0.00013
0.00231
0.00215
0.00008
-0.00100
0.00321
0.00170
-0.00400
-0.00680
0.00048
0.00410
0.00063
-0.00557
-0.00555
0.00268
0.00901
0.01666
0.02252
0.01185
-0.01124
-0.03256
-0.04481
-0.04108
-0.02533
0.00249
0.03691
0.07110
0.09150
0.09166
0.06202
-0.02114
-0.14997
-0.26904
-0.24900
-0.04183
0.22493
0.36535
0.28222
0.04722
-0.16167
-0.22808
-0.17365
-0.07606
0.00427
0.05382
0.07081
0.07017
0.05265
0.02610
0.00304
-0.01367
-0.02470
-0.03231
-0.02918
-0.01954
-0.00496
0.00802
0.01304
0.01300
0.01241
0.00814
0.00565
0.00051
-0.00351
-0.00560
-0.00658
-0.00656
-0.00547
-0.00115
0.00179
0.00327
0.00291
0.00211
0.00324
0.00258
0.00119
0.00136
-0.00097
-0.00475
-0.00637
-0.00191
0.00020
0.00064
0.00140
0.00475
0.00396
0.00125
-0.00423
-0.00191
0.00177
-0.00055
-0.00205
-0.00286
0.00235
0.00098
-0.00028
-0.00005
0.00243
0.00139
0.00050
0.00048
0.00029
-0.00314
-0.00717
-0.00417
0.00301
0.00605
0.00015
-0.00150
-0.00151
-0.00066
0.00429
0.01489
0.01914
0.01324
-0.00715
-0.03030
-0.04070
-0.03998
-0.02617
-0.00919
0.02615
0.07000
0.09138
0.10015
0.08130
0.00339
-0.13230
-0.27996
-0.29474
-0.09833
0.20196
0.39766
0.33818
0.09113
-0.15003
-0.24662
-0.20503
-0.10264
-0.00525
0.05547
0.07766
0.07919
0.06263
0.03357
0.00410
-0.01851
-0.02952
-0.03311
-0.02601
-0.02077
-0.00606
0.00452
0.00859
0.01730
0.01416
0.00967
0.00449
0.00056
-0.00200
-0.00352
-0.00744
-0.00882
-0.00286
-0.00112
-0.00098
-0.00123
0.00140
0.00586
0.00705
0.00374
0.00205
-0.00090
-0.00281
-0.00676
-0.00389
0.00298
-0.00035
-0.00240
-0.00421
0.00236
0.00776
0.00255
0.00051
0.00042
0.00030
-0.00295
-0.00580
0.00079
-0.00000
-0.00029
-0.00062
-0.00009
0.00727
0.00429
-0.00145
-0.00282
-0.00338
-0.00322
-0.00495
-0.00273
0.00383
0.00852
0.00572
-0.00281
-0.00586
-0.00307
-0.00273
0.00033
0.01828
0.02340
0.00903
-0.01318
-0.03229
-0.03793
-0.03302
-0.01922
0.00485
0.03584
0.06761
0.08555
0.08503
0.05500
-0.03562
-0.17155
-0.26629
-0.21273
0.00321
0.25665
0.36636
0.24105
-0.01304
-0.19356
-0.22353
-0.14853
-0.04854
0.02186
0.06279
0.07823
0.06443
0.04615
0.02041
-0.00350
-0.02358
-0.04153
-0.04379
-0.02958
-0.00246
0.01290
0.01938
0.02498
0.03187
0.01412
-0.01999
-0.03273
-0.01964
-0.00073
0.01197
0.01010
0.00586
0.00299
-0.00017
-0.00088
-0.00127
-0.00102
-0.00383
-0.00278
-0.00263
0.00312
0.00167
-0.00176
0.00100
0.00408
0.00418
0.00187
-0.00158
-0.00557
-0.00831
-0.00823
0.00403
0.01188
0.00929
-0.00124
-0.00390
0.00053
-0.00382
-0.00550
-0.00290
0.00332
0.00392
0.00278
0.00118
-0.00120
-0.00285
-0.00362
-0.00233
0.00113
0.00576
0.00373
0.00281
-0.00286
-0.00526
-0.00900
-0.00763
0.00263
0.00894
0.02197
0.02412
0.00836
-0.01148
-0.02970
-0.04016
-0.03802
-0.02518
-0.00066
0.03339
0.06317
0.08745
0.09484
0.06443
-0.01972
-0.15536
-0.26718
-0.23228
-0.02961
0.22248
0.36207
0.26879
0.02377
-0.17116
-0.21820
-0.15681
-0.06544
0.00801
0.05506
0.07129
0.06340
0.04543
0.02257
0.00448
-0.01650
-0.02970
-0.02805
-0.01983
-0.01260
-0.00684
0.00223
0.01217
0.01185
0.01122
0.00652
0.00520
0.00321
-0.00464
-0.00367
-0.00463
-0.00522
-0.00384
-0.00108
-0.00237
-0.00068
-0.00330
0.00057
0.00895
0.00978
0.00973
0.00632
-0.00382
-0.01700
-0.01743
-0.00843
0.00402
0.01222
0.01198
0.00581
-0.00302
-0.00105
-0.00049
-0.00343
-0.00266
-0.00191
-0.00181
-0.00494
0.00170
0.00441
0.00368
0.00226
0.00190
0.00064
0.00033
-0.00061
-0.00517
-0.00456
-0.00180
-0.00298
-0.00162
0.00580
0.00855
0.00696
-0.00573
-0.01078
-0.00525
0.00288
0.01128
0.02150
0.01824
0.00051
-0.02403
-0.03646
-0.03845
-0.03294
-0.01048
0.01609
0.05556
0.08410
0.09002
0.07467
0.02520
-0.08459
-0.22396
-0.28256
-0.14975
0.11204
0.33547
0.35907
0.15334
-0.10302
-0.23310
-0.20348
-0.11178
-0.01907
0.04136
0.07014
0.07052
0.05761
0.04039
0.01055
-0.01416
-0.02629
-0.02786
-0.02661
-0.01815
-0.00768
0.00277
0.00624
0.00907
0.01125
0.01243
0.00993
0.00025
-0.00348
-0.00166
-0.00353
-0.00783
-0.00707
-0.00149
0.00019
-0.00070
-0.00117
0.00300
0.00887
0.00442
0.00173
-0.00155
0.00158
-0.00145
-0.00716
-0.00555
-0.00248
-0.00018
-0.00004
0.00583
0.00645
0.00312
-0.00138
-0.00023
-0.00083
-0.00340
-0.00416
-0.00274
-0.00015
0.00357
0.00286
-0.00262
0.00211
0.00650
0.00120
-0.00454
-0.00439
0.00067
0.00263
-0.00496
-0.00478
0.00083
0.00415
0.00659
0.00017
-0.00492
-0.00654
-0.00498
0.00427
0.01917
0.02525
0.01220
-0.00812
-0.02722
-0.04077
-0.04123
-0.02625
-0.00250
0.02741
0.05610
0.08142
0.09336
0.07927
0.00994
-0.11563
-0.25260
-0.27433
-0.10373
0.15835
0.35782
0.33982
0.11022
-0.13871
-0.23776
-0.19464
-0.09590
-0.00835
0.04810
0.07441
0.07635
0.05724
0.02854
0.00411
-0.01582
-0.02720
-0.02916
-0.02307
-0.01596
-0.00665
-0.00182
0.01037
0.01557
0.01229
0.00820
0.00255
0.00349
-0.00033
-0.00645
-0.00729
-0.00123
-0.00117
-0.00571
-0.00244
0.00032
0.00067
0.00047
0.00324
0.00551
0.00575
0.00481
0.00099
-0.00535
-0.00566
-0.00443
-0.00730
-0.00314
0.00340
0.00404
0.00468
0.00705
0.00186
0.00031
-0.00266
-0.00657
-0.00232
0.00007
-0.00083
-0.00007
0.00076
0.00199
0.00218
0.00225
0.00105
0.00014
-0.00137
-0.00148
-0.00103
-0.00296
-0.00847
-0.00105
0.00731
0.00719
0.00574
-0.00732
-0.00500
-0.00259
0.00310
0.01306
0.02289
0.01560
-0.01559
-0.03161
-0.03845
-0.03371
-0.02093
-0.00268
0.03238
0.06580
0.09022
0.09528
0.06604
-0.01733
-0.15541
-0.28761
-0.26056
-0.03037
0.24127
0.39839
0.29878
0.02236
-0.19590
-0.24720
-0.16966
-0.06738
0.01439
0.06429
0.07814
0.06996
0.05228
0.02356
-0.00428
-0.02004
-0.02727
-0.02931
-0.03000
-0.01508
-0.00030
0.00963
0.01497
0.00873
0.00779
0.00725
0.00443
-0.00023
-0.00030
-0.00115
-0.00256
-0.01078
-0.00609
0.00003
-0.00225
0.00076
0.00006
0.00437
0.00534
0.00613
0.00378
0.00049
-0.00127
-0.00507
-0.00755
-0.00390
-0.00190
-0.00191
0.00220
0.00589
0.00747
0.00398
-0.00092
-0.00398
-0.00274
-0.00020
-0.00375
-0.00229
0.00216
0.00028
0.00058
-0.00140
0.00338
0.00552
-0.00049
-0.00387
0.00012
0.00257
-0.00172
-0.00145
-0.00717
-0.00261
0.00080
0.00402
0.00932
0.00231
-0.00587
-0.00933
-0.00224
0.00654
0.01629
0.02081
0.00976
-0.01152
-0.02754
-0.03445
-0.03477
-0.02690
-0.00337
0.02755
0.06239
0.08915
0.09714
0.07153
-0.01205
-0.14931
-0.27197
-0.25411
-0.05773
0.21866
0.38241
0.30033
0.04461
-0.17163
-0.23279
-0.17526
-0.08106
0.00604
0.05845
0.07487
0.07266
0.05163
0.02725
-0.00043
-0.01832
-0.03118
-0.02585
-0.02193
-0.01920
-0.00397
0.00450
0.01115
0.00904
0.01000
0.01388
0.00821
-0.00076
-0.00502
-0.00669
-0.00145
-0.00468
-0.00508
-0.00558
-0.00208
0.00429
-0.00054
0.00262
0.00494
0.00542
0.00499
0.00212
-0.00256
-0.00214
-0.00701
-0.00875
-0.00198
0.00114
0.00311
0.00355
0.00540
0.00320
-0.00032
-0.00126
-0.00256
-0.00110
0.00075
-0.00192
-0.00187
-0.00161
-0.00016
0.00024
0.00079
0.00471
0.00350
0.00092
-0.00130
0.00114
0.00004
-0.00875
-0.00750
-0.00301
0.00413
0.00769
0.00338
0.00166
-0.00265
-0.00294
-0.00292
0.00785
0.01994
0.01886
0.00143
-0.01945
-0.03320
-0.04447
-0.03969
-0.01994
0.02038
0.05523
0.08206
0.10230
0.09563
0.04211
-0.07691
-0.23822
-0.32494
-0.19765
0.09178
0.36543
0.41408
0.19796
-0.09060
-0.25073
-0.23429
-0.13903
-0.03299
0.04018
0.07873
0.08512
0.06719
0.03903
0.01345
-0.00889
-0.02801
-0.03210
-0.03178
-0.01929
-0.01188
-0.00096
0.00916
0.01678
0.01693
0.00895
0.00389
0.00325
0.00010
-0.00693
-0.00852
-0.00791
0.00079
0.00300
-0.00306
-0.00410
0.00089
0.00187
0.00503
0.00284
0.00266
0.00531
0.00185
-0.00479
-0.00694
-0.00169
-0.00299
-0.00391
-0.00107
0.00503
0.00363
0.00251
0.00367
0.00393
0.00141
-0.00696
-0.00444
-0.00255
-0.00437
-0.00077
0.00436
0.00367
0.00378
0.00235
0.00153
-0.00081
-0.00207
-0.00407
-0.00390
0.00176
-0.00311
-0.00412
-0.00067
0.00850
0.01022
0.00014
-0.00971
-0.00974
-0.00040
0.01201
0.01973
0.02296
0.00723
-0.02220
-0.04272
-0.04632
-0.03257
-0.01058
0.01717
0.04846
0.08409
0.09973
0.08704
0.03016
-0.08434
-0.22615
-0.28636
-0.16677
0.09248
0.32442
0.36214
0.18092
-0.07070
-0.21502
-0.21399
-0.13490
-0.03907
0.03198
0.06708
0.07460
0.06800
0.04993
0.01793
-0.01079
-0.02839
-0.03318
-0.03214
-0.02164
-0.01080
0.00334
0.00895
0.01211
0.01565
0.01136
0.00691
0.00097
-0.00190
-0.00477
-0.00446
-0.00458
-0.00677
-0.00443
0.00045
-0.00087
-0.00044
0.00393
0.00736
0.00383
0.00395
0.00188
-0.00258
-0.00120
-0.00708
-0.00747
-0.00155
0.00322
0.00181
-0.00118
0.00306
0.00437
0.00492
0.00042
-0.00267
-0.00177
-0.00347
-0.00201
-0.00290
0.00060
0.00191
-0.00107
0.00175
0.00324
0.00277
0.00192
0.00071
-0.00053
-0.00115
-0.00469
-0.00757
-0.00509
0.00126
0.00511
0.00438
0.00257
-0.00044
0.00051
-0.00181
0.00460
0.01817
0.01925
0.00293
-0.01817
-0.03329
-0.04338
-0.04024
-0.02102
0.01236
0.05019
0.08342
0.10175
0.10007
0.05100
-0.06338
-0.22006
-0.32026
-0.22165
0.05266
0.33267
0.41622
0.23236
-0.04817
-0.22946
-0.24212
-0.15456
-0.05217
0.02777
0.07184
0.08655
0.07190
0.04663
0.02104
-0.00529
-0.02479
-0.03527
-0.03238
-0.02170
-0.01568
-0.00532
0.00736
0.01484
0.01816
0.01461
0.00988
0.00583
-0.00128
-0.00751
-0.00916
-0.00784
-0.00696
-0.00552
-0.00581
0.00247
0.00964
0.00768
0.00669
0.00489
0.00324
-0.00273
-0.00720
-0.00819
-0.00443
-0.00204
-0.00013
0.00208
0.00241
0.00427
0.00306
0.00414
0.00370
-0.00257
-0.00274
-0.00445
-0.00465
-0.00261
-0.00002
0.00003
-0.00117
0.00701
0.00754
0.00348
-0.00187
-0.00302
-0.00260
-0.00508
-0.00408
-0.00039
0.00115
0.00308
0.00262
0.00157
0.00010
-0.00320
-0.00237
-0.00387
0.00128
0.01030
0.02016
0.02032
0.00116
-0.02215
-0.03953
-0.04233
-0.03128
-0.01138
0.01647
0.05170
0.08329
0.09758
0.08471
0.02356
-0.09088
-0.22967
-0.27719
-0.14667
0.10527
0.32524
0.34674
0.15911
-0.07899
-0.21242
-0.20934
-0.12504
-0.03115
0.03584
0.07000
0.07489
0.05971
0.04122
0.01467
-0.01077
-0.02477
-0.03199
-0.02815
-0.02073
-0.00749
0.00338
0.00776
0.00785
0.00934
0.01354
0.01128
0.00154
-0.00127
-0.00299
-0.00752
-0.00684
-0.00524
-0.00139
-0.00039
0.00058
-0.00160
-0.00005
0.00376
0.00526
0.00660
0.00510
0.00258
-0.00401
-0.00908
-0.00668
-0.00310
-0.00406
0.00246
0.00277
0.00432
0.00740
0.00410
0.00183
-0.00323
-0.00428
-0.00738
-0.00358
0.00163
0.00231
0.00269
0.00237
0.00183
0.00019
-0.00195
-0.00091
0.00152
0.00097
0.00047
-0.00526
-0.00377
-0.00056
-0.00044
0.00412
0.00211
0.00038
-0.00406
-0.00176
0.00477
0.01143
0.02012
0.01297
-0.00436
-0.02278
-0.03926
-0.04528
-0.03127
-0.00547
0.02764
0.05998
0.08842
0.09932
0.08161
0.00845
-0.12148
-0.25841
-0.28754
-0.11436
0.16935
0.37525
0.34425
0.11187
-0.13499
-0.24128
-0.20112
-0.10253
-0.01056
0.04790
0.07291
0.07547
0.06169
0.03411
0.00775
-0.01296
-0.02858
-0.03608
-0.02734
-0.01417
-0.00681
0.00158
0.00933
0.01411
0.01250
0.00781
0.00629
0.00285
-0.00051
-0.00598
-0.00764
-0.00354
-0.00203
-0.00259
-0.00449
-0.00060
0.00050
0.00252
0.00473
0.00560
0.00557
0.00370
0.00024
-0.00627
-0.00404
-0.00576
-0.00754
-0.00416
0.00433
0.00843
0.00501
0.00305
0.00190
0.00102
-0.00310
-0.00445
-0.00438
-0.00123
-0.00144
-0.00101
0.00257
0.00472
0.00453
0.00152
0.00009
-0.00234
-0.00245
-0.00246
-0.00299
-0.00372
-0.00098
0.00270
0.00480
0.00471
-0.00382
-0.00404
-0.00016
0.00190
0.01000
0.01818
0.01502
-0.00126
-0.02055
-0.03685
-0.04347
-0.03250
-0.00801
0.01911
0.05343
0.08547
0.10138
0.08732
0.01966
-0.10334
-0.24241
-0.28669
-0.14787
0.12013
0.35350
0.36896
0.15440
-0.10158
-0.23202
-0.21655
-0.12569
-0.02702
0.04363
0.07501
0.07591
0.06276
0.04285
0.01565
-0.01054
-0.03062
-0.03531
-0.02743
-0.02153
-0.01039
0.00119
0.01139
0.01384
0.01256
0.01201
0.00858
0.00349
-0.00354
-0.00702
-0.00711
-0.00664
-0.00522
-0.00090
0.00050
0.00257
0.00107
-0.00003
0.00269
0.00441
0.00460
0.00192
0.00061
-0.00076
-0.00525
-0.00640
-0.00538
-0.00376
0.00176
0.00383
0.00604
0.00587
0.00405
0.00116
-0.00403
-0.00421
-0.00363
-0.00291
-0.00394
-0.00232
0.00529
0.00605
0.00490
0.00306
-0.00170
-0.00417
-0.00384
0.00085
-0.00209
-0.00375
-0.00152
0.00172
0.00660
0.00073
-0.00477
-0.00271
0.00170
0.00370
0.01043
0.01767
0.01335
-0.00448
-0.02493
-0.03650
-0.03629
-0.02478
-0.00537
0.02411
0.05360
0.07578
0.08417
0.06823
0.01047
-0.09718
-0.21891
-0.24658
-0.10888
0.12289
0.30648
0.30911
0.12637
-0.09234
-0.20457
-0.18915
-0.10553
-0.01919
0.03816
0.06634
0.06826
0.05545
0.03474
0.00799
-0.01193
-0.02327
-0.02536
-0.02371
-0.01737
-0.00889
-0.00255
0.00508
0.01039
0.01503
0.01345
0.00706
0.00189
-0.00236
-0.00422
-0.00505
-0.00801
-0.00634
-0.00091
0.00025
0.00037
0.00072
0.00366
0.00577
0.00312
0.00092
-0.00144
-0.00022
-0.00011
-0.00351
-0.00378
-0.00022
0.00187
-0.00097
-0.00229
-0.00115
0.00146
0.00403
0.00377
0.00241
0.00126
-0.00239
-0.00432
-0.00389
-0.00229
-0.00006
0.00171
0.00295
0.00296
0.00228
0.00071
-0.00071
-0.00189
-0.00157
-0.00352
-0.00425
0.00062
0.00258
0.00134
-0.00006
-0.00142
-0.00007
0.00060
0.00530
0.01720
0.01941
0.00755
-0.01297
-0.03355
-0.04207
-0.04110
-0.02406
0.00918
0.04314
0.07342
0.09134
0.09336
0.06039
-0.03239
-0.17458
-0.28605
-0.23838
-0.02015
0.24947
0.38940
0.28459
0.02548
-0.18740
-0.24286
-0.17604
-0.07155
0.01133
0.06312
0.08017
0.07200
0.05249
0.02396
-0.00091
-0.01774
-0.02888
-0.03153
-0.02666
-0.01700
-0.00242
0.00616
0.01048
0.01195
0.01066
0.00845
0.00606
0.00529
-0.00022
-0.00476
-0.00836
-0.00738
-0.00599
-0.00544
-0.00069
0.00015
0.00153
0.00567
0.00838
0.00655
0.00560
0.00049
-0.00490
-0.00593
-0.00711
-0.00588
-0.00452
0.00027
0.00348
0.00502
0.00777
0.00624
0.00175
-0.00220
-0.00616
-0.00508
0.00013
0.00024
-0.00173
-0.00382
-0.00254
0.00428
0.00690
0.00510
0.00454
0.00125
-0.00639
-0.00868
-0.00470
-0.00249
-0.00012
0.00507
0.00568
0.00113
-0.00160
-0.00226
-0.00020
0.00163
0.00622
0.01481
0.01489
0.00244
-0.01842
-0.03575
-0.04098
-0.03025
-0.00500
0.02271
0.05108
0.07616
0.08457
0.06787
0.01384
-0.08860
-0.20870
-0.24757
-0.12407
0.11022
0.30054
0.31177
0.13835
-0.08487
-0.20170
-0.18673
-0.10849
-0.02329
0.03402
0.06247
0.06791
0.05633
0.03493
0.01156
-0.00805
-0.01971
-0.02506
-0.02826
-0.02337
-0.01407
0.00022
0.01302
0.01422
0.01178
0.01102
0.00722
0.00228
-0.00394
-0.00525
-0.00524
-0.00598
-0.00288
-0.00304
-0.00175
-0.00067
0.00155
0.00493
0.00465
0.00319
0.00288
0.00088
-0.00089
-0.00290
-0.00446
-0.00318
-0.00282
-0.00146
0.00157
0.00389
0.00277
0.00219
-0.00084
-0.00285
0.00116
0.00263
0.00077
-0.00111
-0.00169
-0.00154
-0.00168
-0.00228
-0.00136
0.00151
0.00386
0.00405
0.00240
0.00233
-0.00220
-0.00811
-0.00573
-0.00013
0.00390
0.00175
-0.00328
-0.00251
0.00359
0.00414
0.00594
0.01723
0.01942
0.00296
-0.01994
-0.03637
-0.04035
-0.03433
-0.01822
0.01309
0.04905
0.07690
0.09245
0.08713
0.04360
-0.05739
-0.20210
-0.28643
-0.19688
0.04439
0.29194
0.37342
0.22428
-0.03029
-0.20716
-0.22926
-0.14749
-0.04812
0.02369
0.06324
0.07722
0.07029
0.04837
0.01901
-0.00496
-0.02205
-0.03180
-0.03301
-0.02440
-0.01247
-0.00169
0.00709
0.01368
0.01683
0.01454
0.00686
-0.00019
-0.00052
-0.00384
-0.00749
-0.00714
-0.00320
-0.00165
-0.00273
-0.00088
0.00290
0.00197
0.00189
0.00460
0.00553
0.00488
0.00161
-0.00440
-0.00903
-0.00594
-0.00279
-0.00266
0.00015
0.00680
0.00847
0.00381
-0.00115
-0.00083
-0.00094
-0.00413
-0.00414
-0.00164
0.00064
0.00180
0.00162
0.00174
0.00213
-0.00043
-0.00323
-0.00178
0.00191
0.00259
0.00101
-0.00036
-0.00056
-0.00206
-0.00399
-0.00157
0.00314
0.00427
0.00149
-0.00436
-0.00679
-0.00541
-0.00121
0.00801
0.01995
0.02612
0.01518
-0.00777
-0.02961
-0.04164
-0.04480
-0.03499
-0.00963
0.02495
0.06278
0.09222
0.10402
0.08669
0.01897
-0.11115
-0.25783
-0.29908
-0.14583
0.13924
0.36823
0.37141
0.15351
-0.10616
-0.24046
-0.22227
-0.12718
-0.02836
0.04451
0.08116
0.08409
0.06487
0.03690
0.00883
-0.01261
-0.02545
-0.03089
-0.02972
-0.02224
-0.01148
-0.00067
0.01080
0.01670
0.01488
0.01100
0.00662
0.00272
-0.00205
-0.00759
-0.00885
-0.00417
-0.00166
-0.00235
-0.00175
-0.00042
0.00164
0.00183
0.00288
0.00475
0.00494
0.00310
-0.00113
-0.00325
-0.00366
-0.00500
-0.00468
-0.00215
0.00088
0.00304
0.00545
0.00430
0.00041
-0.00053
-0.00087
-0.00064
-0.00028
-0.00026
-0.00124
-0.00364
-0.00298
0.00063
0.00198
0.00117
0.00065
0.00300
0.00308
0.00084
-0.00147
-0.00397
-0.00177
0.00020
0.00217
0.00203
-0.00219
-0.00502
-0.00352
0.00240
0.00755
0.00367
-0.00528
-0.00589
-0.00212
-0.00060
0.00285
0.01534
0.02542
0.01489
-0.01048
-0.03216
-0.04109
-0.03689
-0.02280
0.00004
0.03071
0.05758
0.07766
0.08690
0.06820
0.00088
-0.11667
-0.23375
-0.24676
-0.09319
0.15193
0.32698
0.30711
0.10906
-0.11171
-0.21671
-0.19110
-0.09908
-0.01186
0.04349
0.06785
0.06903
0.05595
0.03390
0.01060
-0.01052
-0.02586
-0.03201
-0.02763
-0.01781
-0.00805
0.00140
0.00872
0.01309
0.01473
0.01202
0.00619
0.00079
-0.00336
-0.00609
-0.00752
-0.00582
-0.00157
-0.00059
-0.00069
0.00023
-0.00010
0.00073
0.00319
0.00453
0.00496
0.00376
0.00075
-0.00506
-0.00758
-0.00255
-0.00078
-0.00229
-0.00084
0.00169
0.00450
0.00462
0.00106
0.00037
0.00088
-0.00031
-0.00308
-0.00340
-0.00155
-0.00110
0.00012
0.00129
0.00226
0.00005
-0.00028
0.00362
0.00194
-0.00270
-0.00252
0.00038
0.00135
-0.00154
-0.00300
0.00001
0.00241
0.00189
0.00017
-0.00070
-0.00356
-0.00564
-0.00269
0.00069
0.00680
0.01598
0.01972
0.01551
-0.00051
-0.02651
-0.04289
-0.04320
-0.03111
-0.00646
0.02195
0.05354
0.08447
0.09853
0.08331
0.02029
-0.09893
-0.23515
-0.27956
-0.14518
0.11207
0.33609
0.36077
0.15967
-0.09342
-0.22698
-0.21279
-0.12212
-0.02734
0.03933
0.07034
0.07628
0.06605
0.04221
0.01084
-0.01452
-0.02915
-0.03218
-0.02388
-0.01733
-0.01001
-0.00049
0.00731
0.01172
0.01350
0.01288
0.00935
0.00231
-0.00536
-0.00755
-0.00499
-0.00251
-0.00411
-0.00239
-0.00136
0.00049
0.00082
0.00165
0.00334
0.00308
0.00356
0.00179
0.00013
-0.00079
-0.00239
-0.00499
-0.00212
-0.00216
-0.00302
-0.00122
0.00317
0.00750
0.00525
0.00082
-0.00045
0.00022
-0.00249
-0.00524
-0.00615
-0.00194
0.00308
0.00237
0.00181
0.00380
0.00314
-0.00008
-0.00097
-0.00175
-0.00235
-0.00225
-0.00123
0.00137
0.00192
-0.00158
-0.00204
0.00164
0.00199
-0.00066
-0.00455
-0.00091
0.00210
0.00275
0.00917
0.01659
0.01419
0.00198
-0.01902
-0.03670
-0.04061
-0.03595
-0.01506
0.01768
0.05789
0.08982
0.09992
0.08018
0.01892
-0.09642
-0.23308
-0.28132
-0.14906
0.10977
0.33043
0.36082
0.17313
-0.08171
-0.22879
-0.22443
-0.12901
-0.02445
0.04214
0.07020
0.07221
0.06070
0.04043
0.01743
-0.00385
-0.02022
-0.03276
-0.03480
-0.02673
-0.01286
0.00082
0.00998
0.01428
0.01561
0.01675
0.00851
0.00018
-0.00389
-0.00666
-0.00723
-0.00715
-0.00485
-0.00099
-0.00005
0.00134
0.00172
0.00356
0.00446
0.00313
0.00078
-0.00041
0.00051
-0.00190
-0.00293
-0.00148
-0.00238
-0.00391
-0.00161
0.00181
0.00355
0.00348
0.00474
0.00184
-0.00022
-0.00120
-0.00298
-0.00560
-0.00501
0.00132
0.00244
0.00115
0.00282
0.00432
0.00106
-0.00230
-0.00034
-0.00064
-0.00276
-0.00152
0.00095
0.00116
-0.00209
-0.00002
0.00175
0.00023
-0.00226
-0.00540
-0.00235
0.00493
0.00755
0.01234
0.01700
0.01179
-0.00483
-0.02715
-0.04103
-0.03883
-0.02375
-0.00320
0.02826
0.06034
0.08149
0.08781
0.06483
-0.00058
-0.11374
-0.23411
-0.24565
-0.09119
0.14795
0.32349
0.30941
0.11332
-0.11144
-0.21929
-0.19349
-0.10117
-0.01150
0.04665
0.07120
0.07046
0.05665
0.03286
0.00518
-0.01401
-0.02508
-0.02819
-0.02707
-0.01914
-0.00617
0.00298
0.01019
0.01219
0.01165
0.00941
0.00666
0.00318
-0.00400
-0.00595
-0.00658
-0.00527
-0.00144
-0.00082
0.00113
-0.00211
-0.00303
0.00098
0.00385
0.00562
0.00612
0.00500
0.00164
-0.00454
-0.00917
-0.00620
-0.00321
-0.00082
0.00164
0.00302
0.00434
0.00463
0.00333
0.00159
-0.00071
-0.00551
-0.00494
-0.00132
0.00027
0.00003
0.00025
0.00141
0.00209
0.00188
-0.00185
-0.00041
0.00240
0.00189
0.00064
0.00058
-0.00060
-0.00578
-0.00866
-0.00236
0.00379
0.00593
0.00374
-0.00131
-0.00272
0.00195
0.00344
0.00530
0.01523
0.01539
0.00369
-0.02188
-0.03953
-0.04164
-0.03214
-0.01256
0.01779
0.05606
0.08764
0.10115
0.08711
0.02682
-0.09603
-0.24077
-0.30092
-0.16382
0.11764
0.35193
0.37451
0.17680
-0.08524
-0.23775
-0.23088
-0.13498
-0.03203
0.04081
0.07546
0.08436
0.07244
0.04315
0.01099
-0.01337
-0.02705
-0.03470
-0.03362
-0.02497
-0.00951
0.00494
0.01124
0.01474
0.01798
0.01559
0.00508
-0.00617
-0.00598
-0.00412
-0.00433
-0.00612
-0.00381
0.00030
0.00334
0.00079
-0.00217
0.00155
0.00122
0.00274
0.00276
0.00190
0.00277
-0.00049
-0.00534
-0.00368
-0.00263
0.00154
-0.00017
-0.00209
-0.00034
0.00229
0.00455
0.00216
0.00068
0.00024
0.00058
-0.00242
-0.00084
-0.00272
-0.00648
-0.00370
0.00491
0.00694
0.00199
0.00176
0.00366
0.00090
-0.00511
-0.00730
-0.00168
-0.00007
-0.00249
0.00114
0.00513
0.00360
-0.00116
-0.00459
-0.00215
0.00458
0.00364
0.00858
0.01714
0.01266
-0.00724
-0.02895
-0.03803
-0.03700
-0.02539
0.00100
0.03478
0.06704
0.08616
0.08511
0.05768
-0.01773
-0.13990
-0.25252
-0.23686
-0.05040
0.19966
0.35048
0.28637
0.06216
-0.15022
-0.22862
-0.17704
-0.08098
0.00425
0.05373
0.07078
0.06911
0.05205
0.02773
0.00364
-0.01440
-0.02477
-0.03044
-0.02959
-0.01708
-0.00654
0.00366
0.01112
0.01584
0.01607
0.01109
0.00371
-0.00405
-0.00488
-0.00622
-0.00421
-0.00448
-0.00368
-0.00007
-0.00143
-0.00075
0.00449
0.00525
0.00413
0.00192
-0.00144
-0.00174
-0.00036
0.00057
-0.00374
-0.00261
-0.00137
-0.00128
0.00056
0.00203
0.00267
0.00147
0.00155
0.00131
0.00209
-0.00223
-0.00589
-0.00315
0.00021
0.00092
0.00197
0.00270
0.00264
0.00151
-0.00071
-0.00375
-0.00470
0.00093
0.00254
0.00228
0.00180
-0.00326
-0.00452
0.00041
0.00386
-0.00006
-0.00369
-0.00196
-0.00102
0.00129
0.00999
0.01928
0.01763
0.00426
-0.01922
-0.03739
-0.04147
-0.03295
-0.01682
0.00899
0.04606
0.08105
0.10331
0.09401
0.04102
-0.07095
-0.21866
-0.29881
-0.19569
0.06242
0.31947
0.39502
0.21713
-0.05656
-0.22673
-0.23642
-0.14614
-0.04198
0.03321
0.07401
0.08111
0.06844
0.04597
0.01526
-0.01070
-0.02545
-0.03103
-0.03138
-0.02277
-0.00939
-0.00081
0.00825
0.01245
0.01548
0.01268
0.00790
0.00203
-0.00484
-0.00384
-0.00558
-0.00596
-0.00479
-0.00095
-0.00151
-0.00159
0.00105
0.00381
0.00680
0.00210
0.00103
0.00135
0.00057
-0.00014
-0.00297
-0.00531
-0.00604
-0.00197
0.00022
0.00174
0.00644
0.00679
0.00153
-0.00119
-0.00077
-0.00231
-0.00470
-0.00610
0.00158
0.00377
0.00093
0.00120
0.00265
0.00395
-0.00151
-0.00443
-0.00490
0.00080
0.00264
0.00219
0.00154
-0.00283
-0.00219
-0.00189
0.00193
0.00079
-0.00366
-0.00131
0.00313
0.00442
0.00772
0.01357
0.01168
0.00119
-0.01778
-0.03011
-0.03747
-0.03301
-0.01092
0.01696
0.04726
0.07460
0.09026
0.08020
0.02705
-0.08234
-0.21063
-0.26958
-0.15447
0.09644
0.31643
0.34610
0.15810
-0.08388
-0.21325
-0.20153
-0.11707
-0.02858
0.03310
0.06835
0.07488
0.06023
0.03629
0.01389
-0.00770
-0.02751
-0.03373
-0.02753
-0.01720
-0.00715
0.00243
0.00949
0.00918
0.00916
0.01239
0.01043
0.00393
-0.00558
-0.00837
-0.00487
-0.00261
-0.00246
-0.00361
-0.00299
-0.00087
0.00253
0.00590
0.00549
0.00242
0.00024
-0.00144
-0.00316
-0.00038
0.00011
-0.00299
-0.00231
0.00170
0.00329
-0.00087
-0.00247
-0.00063
0.00013
-0.00079
-0.00014
0.00450
0.00639
0.00347
-0.00195
-0.00715
-0.00633
-0.00373
-0.00188
0.00595
0.00546
0.00061
0.00388
0.00105
-0.00286
-0.00207
-0.00328
-0.00378
0.00133
0.00385
-0.00112
-0.00516
-0.00144
0.00194
0.00075
0.00401
0.01398
0.02060
0.01733
-0.00586
-0.03113
-0.04379
-0.04427
-0.03034
-0.00322
0.03240
0.06146
0.08920
0.09994
0.08359
0.01168
-0.12692
-0.27097
-0.29368
-0.11487
0.17216
0.38334
0.35653
0.12090
-0.13158
-0.25160
-0.21608
-0.11032
-0.01071
0.05502
0.07609
0.07676
0.06267
0.03479
0.01023
-0.01199
-0.02805
-0.03551
-0.03210
-0.02022
-0.00605
0.00312
0.01087
0.01481
0.01166
0.01119
0.00576
0.00576
0.00013
-0.00875
-0.00847
-0.00709
-0.00565
-0.00444
0.00034
0.00422
0.00611
0.00221
0.00124
0.00079
0.00150
0.00581
0.00137
-0.00437
-0.00496
-0.00489
-0.00330
-0.00007
0.00025
0.00084
0.00131
0.00339
0.00395
0.00383
0.00422
-0.00260
-0.00343
-0.00292
-0.00529
-0.00534
-0.00172
0.00221
0.00465
0.00360
0.00262
0.00206
0.00183
0.00214
0.00171
-0.00178
-0.00823
-0.00618
-0.00563
-0.00162
-0.00102
-0.00459
-0.00022
0.00949
0.01493
0.02406
0.02838
0.01705
-0.00823
-0.04263
-0.07346
-0.07222
-0.03125
0.01835
0.06466
0.08968
0.09212
0.08042
0.06075
0.00492
-0.10544
-0.24732
-0.30047
-0.15510
0.12931
0.37382
0.39253
0.17401
-0.10501
-0.25312
-0.23742
-0.13493
-0.02555
0.04688
0.07961
0.08231
0.06848
0.04255
0.01429
-0.01127
-0.02969
-0.03564
-0.03378
-0.02211
-0.00758
0.00234
0.01066
0.01442
0.01539
0.01271
0.00466
0.00095
-0.00534
-0.00526
-0.00688
-0.00225
-0.00041
-0.00378
-0.00167
-0.00120
0.00351
0.00091
0.00195
0.00169
0.00338
0.00214
0.00337
0.00112
-0.00310
-0.00722
-0.00823
-0.00323
-0.00009
0.00730
0.00868
0.00288
-0.00082
-0.00134
-0.00391
0.00079
-0.00071
-0.00442
-0.00177
0.00246
0.00182
0.00177
0.00110
0.00067
-0.00035
-0.00076
-0.00105
0.00010
0.00109
-0.00330
-0.00239
0.00037
0.00265
0.00123
-0.00168
-0.00639
-0.00055
0.00307
0.00683
0.01790
0.01858
0.00674
-0.01158
-0.02986
-0.03755
-0.03971
-0.02968
0.00000
0.03812
0.07370
0.09382
0.09678
0.06417
-0.02379
-0.16752
-0.28591
-0.25147
-0.02795
0.24984
0.38628
0.28231
0.02953
-0.18040
-0.24098
-0.17287
-0.07035
0.01103
0.05703
0.07693
0.07442
0.05207
0.02312
-0.00005
-0.01640
-0.02998
-0.03577
-0.02544
-0.01048
-0.00316
0.00433
0.00954
0.01508
0.01279
0.00953
0.00038
0.00114
0.00019
-0.00622
-0.00545
-0.00583
-0.00479
-0.00597
0.00002
0.00073
0.00880
0.00392
0.00164
0.00329
0.00336
0.00094
-0.00412
-0.00329
-0.00453
-0.00180
-0.00666
-0.00405
0.00699
0.01030
0.00247
0.00046
-0.00173
0.00185
-0.00283
-0.00582
-0.00291
0.00285
0.00295
-0.00311
0.00249
0.00105
0.00061
-0.00179
0.00205
-0.00006
-0.00007
0.00038
-0.00122
-0.00129
-0.00341
0.00083
0.00146
0.00037
-0.00499
-0.00515
0.00051
0.00881
0.01485
0.02028
0.01459
-0.00017
-0.02269
-0.04183
-0.04548
-0.03924
-0.01013
0.02088
0.05039
0.08668
0.10760
0.09473
0.04104
-0.07782
-0.24400
-0.33264
-0.20540
0.09730
0.37939
0.42256
0.19524
-0.09252
-0.24776
-0.24265
-0.14630
-0.03481
0.04234
0.08033
0.08619
0.07094
0.04338
0.01689
-0.01579
-0.03049
-0.02981
-0.03006
-0.02313
-0.01787
-0.00183
0.01715
0.02216
0.01524
0.00757
0.00265
-0.00174
-0.00470
-0.00070
-0.00097
-0.00368
-0.00560
-0.00671
0.00020
0.00029
-0.00104
0.00032
0.00529
0.00786
0.00404
0.00231
-0.00137
-0.00391
-0.00413
-0.00386
-0.00621
-0.00261
0.00100
0.00605
0.00721
0.00703
0.00155
-0.00733
-0.00643
-0.00350
-0.00073
-0.00174
0.00611
0.00863
0.00373
-0.00296
-0.00788
-0.00522
-0.00059
0.00213
0.00298
0.00305
0.00257
-0.00289
-0.00356
0.00022
0.00240
0.00177
-0.00845
-0.00475
0.00107
0.00340
0.01145
0.01672
0.02018
0.00600
-0.01846
-0.03743
-0.04444
-0.03482
-0.01638
0.01138
0.04916
0.07819
0.09474
0.09046
0.04263
-0.06165
-0.21006
-0.29626
-0.20194
0.06111
0.32719
0.38757
0.19763
-0.06169
-0.22024
-0.22271
-0.13556
-0.03962
0.03046
0.06710
0.07582
0.06820
0.04602
0.01329
-0.00899
-0.02580
-0.02575
-0.02947
-0.02407
-0.01334
0.00075
0.00949
0.01366
0.01091
0.00991
0.00870
0.00244
0.00294
-0.00458
-0.00526
-0.00910
-0.00780
-0.00100
-0.00104
-0.00160
0.00492
0.00576
0.00353
0.00082
-0.00001
-0.00154
0.00334
0.00173
-0.00410
-0.00214
-0.00434
-0.00353
-0.00055
0.00187
0.00387
0.00232
0.00286
0.00138
-0.00143
-0.00103
-0.00182
-0.00043
-0.00122
-0.00153
-0.00030
-0.00008
0.00087
0.00522
0.00036
-0.00067
-0.00010
0.00039
-0.00653
-0.00256
0.00423
0.00185
0.00099
-0.00575
-0.00394
-0.00093
0.00208
0.00393
0.01397
0.02358
0.01876
-0.00600
-0.02827
-0.04172
-0.04481
-0.03272
-0.00845
0.02279
0.05639
0.08697
0.10111
0.09364
0.03122
-0.09561
-0.25819
-0.31815
-0.16707
0.12641
0.38434
0.39983
0.16320
-0.12003
-0.25544
-0.22653
-0.12118
-0.01904
0.04212
0.07591
0.08354
0.06718
0.03965
0.00945
-0.01144
-0.02932
-0.03688
-0.03129
-0.01858
-0.00375
0.00230
0.01010
0.01125
0.01303
0.00932
0.00326
0.00438
0.00017
-0.00050
-0.00638
-0.00945
-0.00417
-0.00270
-0.00425
-0.00062
0.00466
0.00510
0.00264
0.00048
0.00558
0.00538
-0.00322
-0.00352
-0.00326
-0.00214
-0.00441
-0.00447
0.00223
0.00286
0.00297
-0.00052
0.00327
0.00538
0.00265
-0.00261
-0.00900
-0.00279
0.00103
0.00066
0.00140
0.00145
0.00177
0.00086
0.00044
-0.00063
-0.00016
0.00082
-0.00547
-0.00543
0.00258
0.00642
0.00304
-0.00307
-0.00701
-0.00457
-0.00204
0.00696
0.02124
0.02439
0.01503
-0.00822
-0.03246
-0.04818
-0.04590
-0.02990
-0.00037
0.03261
0.06378
0.09419
0.10830
0.08705
0.00514
-0.13597
-0.29378
-0.31138
-0.10844
0.20134
0.41740
0.37371
0.10609
-0.16936
-0.26933
-0.21527
-0.09911
-0.00372
0.05482
0.08238
0.07903
0.06232
0.03624
0.00967
-0.01602
-0.03163
-0.03688
-0.02774
-0.02178
-0.01048
0.00581
0.01487
0.01590
0.01309
0.00733
0.00546
0.00463
-0.00237
-0.00462
-0.00903
-0.00464
-0.00634
-0.00729
0.00291
0.00519
0.00181
0.00032
0.00324
0.00815
0.00240
-0.00167
-0.00208
-0.00272
-0.00417
-0.00488
-0.00259
0.00007
0.00822
0.00124
-0.00075
0.00192
0.00014
-0.00034
-0.00204
-0.00081
-0.00010
0.00155
0.00007
-0.00043
-0.00041
-0.00027
-0.00026
-0.00012
0.00014
0.00129
-0.00162
-0.00279
0.00251
0.00465
0.00401
-0.00233
-0.00959
-0.01011
-0.00298
0.00317
0.01001
0.01979
0.02107
0.01026
-0.00548
-0.01960
-0.03606
-0.04271
-0.03625
-0.01343
0.01953
0.05000
0.08210
0.10460
0.09311
0.02461
-0.09523
-0.23736
-0.28894
-0.14959
0.11661
0.33857
0.35009
0.15273
-0.08818
-0.22026
-0.20385
-0.11941
-0.02718
0.03755
0.06619
0.07383
0.05916
0.03719
0.01349
-0.00774
-0.02505
-0.02884
-0.02808
-0.01670
-0.01019
-0.00139
0.00719
0.01250
0.01126
0.00648
0.00951
0.00546
0.00128
-0.00594
-0.00308
-0.00626
-0.00580
-0.00540
-0.00292
-0.00028
0.00011
0.00436
0.00653
0.00778
0.00198
-0.00011
-0.00121
-0.00333
-0.00412
-0.00415
-0.00172
-0.00176
-0.00053
0.00138
0.00314
0.00676
0.00369
-0.00080
-0.00348
-0.00230
-0.00352
-0.00063
0.00219
0.00145
0.00046
-0.00006
-0.00146
-0.00241
-0.00013
0.00468
0.00244
0.00005
-0.00112
-0.00454
-0.00198
0.00237
0.00101
-0.00475
-0.00658
-0.00342
0.00479
0.01362
0.02481
0.01947
0.00685
-0.01757
-0.03893
-0.04667
-0.04059
-0.02102
0.00657
0.03939
0.07518
0.10510
0.10430
0.06453
-0.03622
-0.18793
-0.31337
-0.26194
-0.00854
0.29353
0.42302
0.27779
-0.00487
-0.20563
-0.24176
-0.17197
-0.06941
0.01478
0.06270
0.08069
0.07609
0.05570
0.02566
-0.00446
-0.02319
-0.03080
-0.03171
-0.02583
-0.01488
-0.00243
0.00874
0.01192
0.01149
0.00813
0.01160
0.00739
-0.00099
-0.00487
-0.00557
-0.00427
-0.00575
-0.00433
-0.00244
0.00196
0.00194
-0.00131
0.00204
0.00457
0.00501
0.00320
-0.00102
0.00062
-0.00452
-0.00439
-0.00249
-0.00252
0.00017
0.00122
0.00205
0.00356
0.00216
-0.00026
-0.00037
-0.00063
0.00148
-0.00209
-0.00446
-0.00142
0.00371
0.00168
0.00059
0.00058
0.00014
0.00014
0.00055
-0.00108
-0.00750
-0.00254
0.00150
0.00643
0.00628
-0.00161
-0.00784
-0.00642
0.00219
0.00762
0.01460
0.01885
0.01107
-0.00816
-0.02925
-0.04113
-0.03808
-0.02818
-0.00049
0.03264
0.07013
0.09789
0.09558
0.06361
-0.02006
-0.15568
-0.28188
-0.25591
-0.04506
0.22997
0.39099
0.30062
0.04363
-0.17546
-0.24510
-0.17928
-0.07890
0.00757
0.06166
0.07548
0.07097
0.05299
0.02671
0.00220
-0.01673
-0.02513
-0.02818
-0.02859
-0.01964
-0.00831
0.00518
0.00893
0.01275
0.01412
0.01356
0.00790
0.00291
-0.00050
-0.00606
-0.01162
-0.01274
-0.00786
0.00015
0.00431
0.00103
0.00492
0.00514
0.01006
0.00358
-0.00243
-0.00330
-0.00464
-0.00563
-0.00509
-0.00184
0.00251
0.00583
0.00115
0.00137
0.00237
0.00025
-0.00428
-0.00114
0.00121
0.00187
0.00083
-0.00091
-0.00074
-0.00147
-0.00126
-0.00257
0.00078
0.00426
0.00193
0.00073
-0.00038
-0.00210
-0.00106
0.00036
-0.00035
-0.00354
-0.00383
-0.00288
-0.00065
0.00449
0.01192
0.02135
0.01743
0.00233
-0.01660
-0.03431
-0.04375
-0.03715
-0.01339
0.01108
0.03659
0.06800
0.09405
0.09503
0.05444
-0.04220
-0.18606
-0.28958
-0.22185
0.02014
0.28388
0.37568
0.23201
-0.01519
-0.18787
-0.22229
-0.15745
-0.06108
0.01667
0.06421
0.08040
0.07170
0.04766
0.01917
-0.00817
-0.02418
-0.03043
-0.02693
-0.02075
-0.01103
-0.00084
0.00492
0.00979
0.00973
0.01281
0.01017
0.00435
0.00021
-0.00668
-0.00489
-0.00363
-0.00600
-0.00297
-0.00136
0.00055
-0.00108
0.00089
0.00430
0.00513
0.00499
0.00212
-0.00209
-0.00216
-0.00175
-0.00523
-0.00342
-0.00265
0.00057
0.00300
0.00603
0.00541
-0.00133
-0.00490
-0.00339
0.00079
0.00128
0.00146
0.00059
-0.00054
-0.00042
-0.00043
-0.00019
-0.00040
-0.00043
-0.00028
0.00080
0.00321
-0.00015
-0.00396
-0.00242
0.00176
0.00207
-0.00352
-0.00612
-0.00272
0.00440
0.01191
0.01765
0.02057
0.00944
-0.01439
-0.03698
-0.04522
-0.04026
-0.02447
0.00485
0.03951
0.07880
0.10011
0.10100
0.06596
-0.03370
-0.18510
-0.30931
-0.26529
-0.01020
0.29941
0.42267
0.26936
-0.01009
-0.20424
-0.24055
-0.16823
-0.06537
0.01854
0.06202
0.07876
0.07384
0.05088
0.02399
-0.00338
-0.02134
-0.02789
-0.02849
-0.02608
-0.01663
-0.00454
0.00612
0.00998
0.01295
0.01421
0.01029
0.00477
0.00058
-0.00204
-0.00605
-0.00626
-0.00759
-0.00677
-0.00116
0.00013
0.00284
0.00444
0.00491
0.00297
-0.00012
0.00147
0.00002
0.00105
-0.00192
-0.00325
-0.00265
-0.00382
-0.00319
0.00005
0.00500
0.00407
0.00250
-0.00017
0.00054
0.00089
-0.00310
-0.00338
0.00036
0.00102
0.00133
0.00089
0.00037
-0.00104
-0.00213
-0.00297
-0.00214
0.00421
0.00330
0.00101
0.00101
0.00207
-0.00326
-0.00809
-0.00541
-0.00185
0.00398
0.01183
0.02113
0.02018
0.00559
-0.01866
-0.03864
-0.04433
-0.03610
-0.01495
0.01264
0.04749
0.08052
0.09395
0.08448
0.03853
-0.06143
-0.20202
-0.28494
-0.19261
0.05697
0.30694
0.36936
0.20302
-0.05065
-0.21132
-0.21863
-0.13751
-0.04045
0.03178
0.06721
0.07383
0.06152
0.03949
0.01561
-0.00675
-0.02050
-0.02606
-0.02506
-0.02350
-0.01432
-0.00068
0.00643
0.01058
0.01041
0.01277
0.01015
0.00386
-0.00015
-0.00364
-0.00430
-0.00723
-0.00857
-0.00484
0.00008
0.00270
0.00058
0.00213
0.00495
0.00535
0.00432
0.00075
-0.00107
-0.00460
-0.00821
-0.00490
0.00222
0.00463
0.00079
-0.00097
0.00291
0.00210
-0.00267
-0.00211
0.00262
0.00398
0.00024
-0.00284
-0.00468
-0.00211
0.00196
0.00221
0.00125
0.00033
0.00007
0.00057
-0.00108
-0.00258
0.00170
0.00213
0.00011
-0.00237
-0.00568
-0.00591
-0.00222
0.00323
0.01346
0.02131
0.01920
0.00702
-0.01452
-0.03277
-0.04406
-0.03791
-0.01959
0.00466
0.03288
0.06469
0.08862
0.09371
0.06484
-0.01975
-0.15047
-0.26598
-0.24542
-0.04468
0.21999
0.36263
0.27972
0.04807
-0.15453
-0.22143
-0.17459
-0.08382
0.00132
0.05274
0.07324
0.07197
0.05549
0.02838
0.00024
-0.01812
-0.02656
-0.02939
-0.02599
-0.01766
-0.00767
0.00531
0.01325
0.01446
0.01301
0.00999
0.00414
-0.00089
-0.00434
-0.00600
-0.00603
-0.00507
-0.00376
-0.00045
0.00191
0.00026
-0.00046
0.00318
0.00625
0.00341
0.00080
-0.00086
-0.00307
-0.00132
-0.00059
-0.00340
-0.00290
-0.00090
0.00006
0.00108
0.00357
0.00474
0.00182
-0.00112
-0.00014
-0.00196
-0.00456
-0.00144
0.00044
0.00131
0.00200
0.00191
0.00121
-0.00010
-0.00124
-0.00181
-0.00079
-0.00160
-0.00108
-0.00082
0.00142
0.00430
-0.00218
-0.00637
-0.00111
0.00306
0.00927
0.01624
0.01931
0.00730
-0.01461
-0.03214
-0.04356
-0.03961
-0.02440
0.00520
0.03898
0.07798
0.10246
0.09950
0.06158
-0.03890
-0.18965
-0.30299
-0.24594
-0.00574
0.28032
0.40711
0.27600
0.00533
-0.19944
-0.24317
-0.17210
-0.07047
0.01314
0.06241
0.07994
0.07467
0.05447
0.02828
0.00024
-0.02162
-0.02952
-0.03238
-0.02840
-0.01975
-0.00952
0.00556
0.01549
0.02074
0.01849
0.01198
0.00164
-0.00566
-0.00767
-0.00599
-0.00307
-0.00619
-0.00693
-0.00125
0.00080
0.00372
0.00529
0.00398
0.00504
0.00177
-0.00092
-0.00247
-0.00063
-0.00101
-0.00478
-0.00573
-0.00313
0.00365
0.00467
0.00208
0.00353
0.00082
-0.00257
-0.00059
0.00216
0.00103
-0.00144
-0.00520
-0.00515
0.00138
0.00371
0.00228
0.00188
0.00195
0.00128
-0.00075
-0.00417
-0.00373
0.00009
0.00073
0.00081
-0.00060
-0.00390
-0.00271
0.00016
0.00680
0.01547
0.01879
0.01070
-0.00527
-0.02112
-0.03477
-0.04008
-0.03057
-0.00894
0.01897
0.05235
0.08071
0.09267
0.07931
0.02043
-0.09285
-0.22607
-0.27017
-0.13716
0.11699
0.32470
0.33380
0.14318
-0.09005
-0.20949
-0.19816
-0.11583
-0.02629
0.03591
0.06621
0.07004
0.06122
0.04202
0.01187
-0.01204
-0.02667
-0.02966
-0.02416
-0.02147
-0.01072
0.00144
0.00928
0.01429
0.01278
0.00807
0.00628
0.00242
-0.00150
-0.00380
-0.00468
-0.00464
-0.00445
-0.00490
-0.00280
0.00140
0.00019
0.00220
0.00652
0.00669
0.00297
-0.00028
-0.00051
-0.00364
-0.00699
-0.00503
-0.00197
0.00452
0.00474
0.00025
-0.00071
-0.00037
0.00059
-0.00059
-0.00026
0.00301
0.00343
-0.00069
-0.00296
-0.00264
-0.00190
-0.00203
0.00032
0.00201
0.00183
0.00206
0.00150
-0.00017
0.00035
-0.00154
-0.00342
-0.00180
-0.00380
-0.00379
-0.00160
0.00387
0.01230
0.02011
0.01871
0.00428
-0.01491
-0.03114
-0.03836
-0.03606
-0.02358
0.00035
0.03343
0.06654
0.09059
0.09720
0.06518
-0.02332
-0.15830
-0.27335
-0.24589
-0.03583
0.23722
0.37535
0.27161
0.02924
-0.16720
-0.22213
-0.16655
-0.07630
0.00420
0.05453
0.07411
0.06957
0.05030
0.02681
0.00400
-0.01535
-0.02826
-0.03216
-0.02847
-0.01781
-0.00284
0.00851
0.01265
0.01111
0.00989
0.00949
0.00676
0.00215
-0.00428
-0.00682
-0.00636
-0.00548
-0.00424
-0.00154
0.00030
0.00029
0.00154
0.00333
0.00633
0.00473
0.00139
0.00023
-0.00110
-0.00362
-0.00696
-0.00533
-0.00022
0.00246
0.00054
0.00109
0.00449
0.00388
0.00286
0.00016
-0.00397
-0.00274
-0.00152
-0.00381
-0.00262
0.00375
0.00759
0.00114
-0.00536
-0.00164
0.00288
0.00124
-0.00103
-0.00109
-0.00141
-0.00227
0.00055
0.00101
-0.00246
-0.00132
0.00020
0.00111
0.00813
0.01688
0.01606
0.00350
-0.01516
-0.02826
-0.03500
-0.03502
-0.02055
0.00685
0.03715
0.06621
0.08773
0.08643
0.04827
-0.03739
-0.16336
-0.26142
-0.21380
-0.00094
0.24795
0.35728
0.24129
-0.00051
-0.18171
-0.21695
-0.15052
-0.05874
0.01749
0.06121
0.07250
0.06340
0.04322
0.02232
0.00005
-0.02107
-0.03107
-0.02978
-0.02136
-0.01095
-0.00134
0.00759
0.01196
0.01123
0.00831
0.00651
0.00443
0.00040
-0.00250
-0.00423
-0.00502
-0.00546
-0.00614
-0.00265
0.00213
0.00297
0.00229
0.00259
0.00377
0.00321
0.00054
-0.00211
-0.00027
0.00080
-0.00165
-0.00483
-0.00583
-0.00113
0.00028
-0.00020
0.00598
0.00998
0.00481
-0.00415
-0.00717
-0.00211
0.00026
-0.00072
-0.00079
-0.00043
0.00006
0.00067
0.00157
0.00058
0.00061
0.00194
-0.00013
-0.00073
0.00252
0.00144
-0.00458
-0.00927
-0.00859
-0.00393
0.00390
0.01397
0.02144
0.02174
0.01178
-0.00611
-0.02586
-0.03912
-0.04245
-0.03415
-0.01163
0.01955
0.05402
0.08370
0.09735
0.08405
0.02466
-0.08958
-0.22176
-0.27230
-0.15120
0.10196
0.31512
0.32822
0.14720
-0.07028
-0.18782
-0.18283
-0.11528
-0.04201
0.02002
0.05550
0.06520
0.05928
0.04259
0.01835
-0.00406
-0.01715
-0.02384
-0.02672
-0.02549
-0.01554
-0.00259
0.00851
0.01373
0.01031
0.00881
0.01049
0.00676
-0.00112
-0.00726
-0.00638
-0.00356
-0.00695
-0.00722
-0.00037
0.00545
0.00690
0.00364
0.00010
0.00129
0.00184
-0.00048
-0.00332
-0.00491
-0.00267
0.00050
0.00238
0.00152
0.00076
0.00114
0.00033
0.00160
0.00105
-0.00340
-0.00351
-0.00166
0.00147
0.00337
0.00085
0.00147
0.00224
-0.00155
-0.00510
-0.00289
0.00012
0.00204
0.00292
0.00064
0.00247
0.00448
-0.00153
-0.00639
-0.00878
-0.00872
-0.00245
0.00513
0.01348
0.02120
0.02187
0.01088
-0.00867
-0.02730
-0.04096
-0.04435
-0.03279
-0.00718
0.02728
0.06167
0.08844
0.09570
0.07737
0.01050
-0.11466
-0.24355
-0.26291
-0.11320
0.13485
0.33260
0.33139
0.13138
-0.10344
-0.22038
-0.19815
-0.10999
-0.02275
0.04328
0.07300
0.07126
0.05744
0.03580
0.01117
-0.01210
-0.02810
-0.03211
-0.02562
-0.01490
-0.00745
-0.00109
0.00736
0.01440
0.01493
0.01097
0.00579
0.00059
-0.00427
-0.00947
-0.00562
-0.00035
0.00017
-0.00185
-0.00247
-0.00162
-0.00115
0.00062
0.00463
0.00754
0.00525
0.00161
-0.00261
-0.00501
-0.00464
-0.00393
-0.00386
0.00102
0.00414
0.00121
0.00222
0.00519
0.00123
-0.00225
-0.00326
-0.00134
0.00142
0.00006
-0.00255
-0.00151
0.00008
-0.00030
-0.00036
0.00378
0.00721
0.00013
-0.00221
-0.00345
-0.00339
-0.00343
-0.00245
0.00263
0.00370
-0.00048
-0.00350
-0.00179
0.00123
0.00738
0.01443
0.01973
0.01056
-0.01116
-0.03050
-0.03869
-0.03804
-0.02477
-0.00048
0.03097
0.06496
0.09091
0.09592
0.06469
-0.01681
-0.15033
-0.26588
-0.24384
-0.04671
0.21325
0.36087
0.28565
0.05267
-0.15831
-0.22869
-0.17343
-0.07804
0.00482
0.05618
0.07310
0.06763
0.04927
0.02574
0.00215
-0.01598
-0.02548
-0.02818
-0.02563
-0.01779
-0.00542
0.00668
0.01262
0.01212
0.00997
0.00879
0.00300
-0.00076
-0.00107
-0.00328
-0.00441
-0.00437
-0.00441
-0.00337
-0.00105
-0.00230
0.00103
0.00556
0.00839
0.00596
-0.00099
-0.00266
-0.00087
-0.00221
-0.00571
-0.00388
-0.00006
0.00131
0.00136
0.00101
0.00166
0.00413
0.00326
-0.00066
-0.00094
-0.00173
-0.00572
-0.00498
-0.00014
0.00297
0.00367
0.00395
0.00335
0.00198
-0.00022
-0.00241
-0.00433
-0.00596
-0.00837
-0.00173
0.00582
0.00700
0.00488
-0.00009
-0.00078
0.00182
0.00161
0.00522
0.01495
0.01383
-0.00559
-0.02952
-0.03936
-0.03719
-0.02321
-0.00047
0.03017
0.06320
0.09060
0.09680
0.07037
-0.01032
-0.14375
-0.26948
-0.26996
-0.07427
0.21132
0.38744
0.31941
0.07097
-0.16304
-0.24637
-0.19316
-0.08664
0.00285
0.05651
0.07566
0.07316
0.06088
0.03268
0.00107
-0.02116
-0.03007
-0.03055
-0.02626
-0.01661
-0.00471
0.00410
0.01033
0.01347
0.01346
0.01174
0.00529
-0.00279
-0.00493
-0.00246
-0.00393
-0.00639
-0.00532
-0.00282
0.00069
-0.00029
0.00041
0.00630
0.00620
0.00222
0.00177
0.00038
-0.00084
-0.00271
-0.00496
-0.00555
-0.00340
-0.00090
0.00132
0.00741
0.00952
0.00279
-0.00473
-0.00743
-0.00290
0.00116
0.00154
0.00255
0.00076
-0.00072
-0.00261
-0.00129
0.00302
0.00346
0.00025
-0.00164
-0.00194
-0.00306
-0.00534
-0.00169
0.00387
0.00884
0.00542
-0.00449
-0.00554
-0.00411
-0.00161
0.00989
0.01970
0.01589
0.00117
-0.02208
-0.03819
-0.04059
-0.02876
-0.00654
0.02630
0.06169
0.08544
0.08719
0.06011
-0.00281
-0.11402
-0.22941
-0.24127
-0.09285
0.15119
0.33061
0.30612
0.09953
-0.12142
-0.21438
-0.18164
-0.09729
-0.01440
0.04359
0.06947
0.07298
0.05986
0.03447
0.00388
-0.01828
-0.02886
-0.03035
-0.02535
-0.01727
-0.00297
0.00771
0.01019
0.01017
0.00993
0.00802
0.00264
0.00017
0.00088
0.00049
-0.00410
-0.01039
-0.00573
-0.00141
-0.00217
-0.00019
0.00390
0.00570
0.00340
0.00375
0.00217
0.00014
-0.00093
-0.00333
-0.00546
-0.00544
0.00020
0.00027
0.00011
0.00399
0.00617
0.00084
-0.00189
-0.00092
0.00062
0.00192
-0.00458
-0.00380
0.00013
0.00117
0.00155
0.00195
0.00121
0.00062
-0.00065
-0.00082
-0.00068
0.00039
-0.00248
-0.00409
0.00117
0.00283
-0.00062
-0.00276
-0.00047
0.00282
0.00592
0.00916
0.01448
0.01301
-0.00359
-0.02776
-0.03705
-0.03617
-0.02608
-0.00204
0.02645
0.05979
0.08453
0.08987
0.06638
-0.00612
-0.12864
-0.25069
-0.24433
-0.06326
0.18420
0.33801
0.28640
0.07738
-0.13213
-0.21952
-0.17971
-0.08607
-0.00499
0.04845
0.07126
0.07124
0.05671
0.02832
0.00019
-0.01680
-0.02522
-0.03027
-0.02527
-0.01468
-0.00469
0.00308
0.00981
0.01234
0.01362
0.00986
0.00206
0.00061
-0.00189
-0.00438
-0.00693
-0.00529
-0.00299
-0.00061
0.00185
-0.00291
0.00026
0.00607
0.00348
0.00260
0.00080
0.00079
-0.00174
-0.00399
-0.00170
-0.00048
0.00043
-0.00151
0.00111
-0.00003
-0.00102
-0.00008
0.00153
0.00268
0.00410
0.00025
-0.00367
-0.00255
-0.00266
0.00089
0.00079
0.00087
0.00058
0.00038
0.00028
0.00097
0.00151
-0.00124
-0.00462
-0.00236
0.00143
0.00342
-0.00117
-0.00261
-0.00101
0.00340
0.00241
0.00184
0.01391
0.01637
0.00601
-0.01658
-0.03249
-0.03776
-0.02898
-0.01308
0.01266
0.04500
0.07352
0.08717
0.07304
0.02456
-0.07210
-0.19470
-0.25510
-0.14688
0.08658
0.29281
0.32187
0.15268
-0.07169
-0.20007
-0.19271
-0.11213
-0.02094
0.03645
0.05828
0.06534
0.05623
0.03561
0.01028
-0.00873
-0.02040
-0.02564
-0.02647
-0.02103
-0.00828
0.00194
0.00526
0.01087
0.01625
0.01080
0.00304
0.00004
0.00131
-0.00184
-0.00570
-0.00602
-0.00571
-0.00564
-0.00225
0.00020
0.00573
0.00664
0.00204
0.00290
0.00298
0.00047
-0.00250
-0.00401
-0.00321
-0.00138
0.00025
-0.00368
-0.00393
0.00365
0.00586
0.00466
0.00247
0.00102
-0.00327
-0.00285
-0.00602
-0.00166
0.00380
0.00050
0.00057
0.00225
0.00409
-0.00115
-0.00469
0.00059
0.00233
-0.00338
-0.00425
-0.00074
0.00496
0.00409
-0.00143
-0.00492
-0.00366
0.00008
0.00464
0.00618
0.01363
0.01632
0.00565
-0.01109
-0.02727
-0.03837
-0.04029
-0.02457
0.00599
0.04414
0.07596
0.09530
0.09015
0.04809
-0.05375
-0.19122
-0.27904
-0.20633
0.02856
0.28256
0.37781
0.22878
-0.03159
-0.20460
-0.22624
-0.14566
-0.04480
0.02622
0.06424
0.07672
0.06721
0.03845
0.01195
-0.00502
-0.01548
-0.02324
-0.02890
-0.02681
-0.01527
-0.00082
0.00885
0.01388
0.01253
0.00815
0.00426
0.00357
0.00334
0.00049
-0.00491
-0.00956
-0.00662
-0.00207
-0.00154
-0.00206
0.00127
0.00435
0.00377
0.00431
0.00382
0.00188
0.00109
-0.00537
-0.00747
-0.00187
-0.00073
0.00112
0.00195
0.00128
0.00136
0.00074
-0.00112
-0.00086
0.00157
0.00282
0.00087
-0.00297
-0.00377
-0.00020
0.00256
0.00129
-0.00018
-0.00195
-0.00229
0.00168
0.00434
0.00117
-0.00502
-0.00295
0.00331
0.00424
-0.00495
-0.00702
-0.00205
0.00218
0.00622
0.00822
0.01676
0.01805
0.00536
-0.02228
-0.03672
-0.03934
-0.03357
-0.01558
0.01539
0.04906
0.07897
0.09423
0.08448
0.03219
-0.07985
-0.21344
-0.28199
-0.16222
0.09246
0.31561
0.35158
0.17372
-0.07442
-0.21915
-0.21138
-0.12232
-0.02563
0.03896
0.06514
0.07094
0.06310
0.03448
0.01099
-0.00782
-0.02133
-0.02826
-0.02818
-0.01955
-0.00695
-0.00152
0.00162
0.01210
0.01681
0.01236
0.00547
0.00073
0.00075
-0.00199
-0.00711
-0.00568
-0.00538
-0.00395
-0.00003
-0.00116
-0.00028
0.00154
0.00431
0.00674
0.00637
0.00509
0.00036
-0.00637
-0.00982
-0.00842
-0.00488
0.00161
0.00798
0.00919
0.00138
0.00060
-0.00335
0.00118
0.00101
-0.00674
-0.00329
-0.00208
0.00418
0.00309
0.00212
0.00149
0.00041
-0.00049
-0.00142
-0.00139
-0.00146
-0.00316
-0.00640
0.00162
0.00907
0.00515
-0.00419
-0.00823
-0.00261
0.00586
0.00880
0.00960
0.01721
0.01130
-0.00905
-0.02866
-0.03890
-0.03814
-0.02682
-0.00308
0.03050
0.06722
0.08833
0.09860
0.07688
-0.00264
-0.14077
-0.28191
-0.28344
-0.08239
0.21236
0.39765
0.33189
0.08014
-0.16169
-0.25486
-0.20057
-0.08943
-0.00037
0.05333
0.07821
0.07939
0.06159
0.03244
0.00355
-0.01605
-0.03092
-0.03866
-0.03025
-0.01551
-0.00095
0.00503
0.01231
0.01223
0.01319
0.00828
0.00199
0.00248
-0.00119
-0.00324
-0.00686
-0.00491
-0.00349
-0.00340
-0.00658
0.00136
0.00549
0.00543
0.00549
0.00135
0.00367
-0.00110
-0.00225
-0.00242
-0.00429
-0.00168
-0.00403
-0.00356
0.00356
0.00655
0.00462
0.00049
-0.00057
-0.00026
-0.00381
-0.00241
-0.00180
0.00012
0.00371
0.00231
0.00148
0.00001
-0.00111
-0.00247
-0.00275
-0.00211
0.00067
0.00039
0.00250
0.00503
-0.00023
-0.00462
-0.00239
-0.00363
0.00093
0.00359
0.00584
0.01725
0.01856
0.00443
-0.02320
-0.03855
-0.03946
-0.02694
-0.00925
0.01802
0.05097
0.07979
0.09150
0.07325
0.01591
-0.09329
-0.22143
-0.25999
-0.12164
0.11270
0.31206
0.33257
0.14383
-0.09261
-0.22135
-0.20091
-0.10736
-0.01641
0.04180
0.06511
0.07002
0.05804
0.03662
0.00809
-0.01082
-0.02244
-0.02909
-0.02865
-0.02119
-0.00742
0.00309
0.00861
0.01089
0.01572
0.01228
0.00556
-0.00185
-0.00329
-0.00398
-0.00604
-0.00399
-0.00451
-0.00097
0.00119
-0.00234
-0.00160
0.00551
0.00683
0.00170
0.00058
-0.00032
0.00347
-0.00363
-0.00525
0.00032
-0.00433
-0.00371
0.00108
0.00292
0.00419
0.00334
-0.00058
0.00335
-0.00207
-0.00112
-0.00607
-0.00239
0.00540
-0.00006
-0.00013
-0.00103
0.00312
0.00125
0.00022
-0.00093
0.00024
-0.00377
-0.00687
0.00014
0.00381
0.00350
-0.00151
-0.00390
0.00020
0.00601
0.01081
0.01308
0.01600
0.00478
-0.01777
-0.03952
-0.04534
-0.03312
-0.01678
0.01591
0.04931
0.08024
0.09847
0.08915
0.04590
-0.05709
-0.20875
-0.30775
-0.22066
0.04356
0.31898
0.40671
0.24301
-0.03631
-0.22605
-0.24618
-0.16235
-0.05364
0.02767
0.07373
0.08577
0.07843
0.05106
0.01626
-0.01243
-0.02631
-0.02698
-0.03141
-0.02539
-0.01888
-0.00310
0.00747
0.01389
0.01843
0.01963
0.01430
-0.00054
-0.00764
-0.00517
-0.00733
-0.01134
-0.00626
-0.00141
0.00253
0.00077
0.00248
0.00354
0.00771
0.00610
0.00177
-0.00416
-0.00409
-0.00162
-0.00403
-0.00293
-0.00253
0.00148
-0.00200
0.00051
0.00805
0.00761
0.00027
-0.00280
-0.00367
-0.00075
-0.00149
-0.00479
0.00205
0.00011
-0.00236
0.00091
0.00385
0.00788
0.00239
-0.00628
-0.00363
-0.00369
-0.00221
0.00111
-0.00002
0.00395
0.00119
-0.00420
-0.00414
0.00087
0.00979
0.01493
0.01824
0.01178
-0.01327
-0.03718
-0.04261
-0.03589
-0.01794
0.01078
0.03875
0.07078
0.09125
0.08430
0.04503
-0.03847
-0.16633
-0.27227
-0.21252
0.00103
0.24953
0.37234
0.25337
-0.00282
-0.19577
-0.22593
-0.15500
-0.05817
0.02000
0.06558
0.07371
0.06476
0.05032
0.02396
-0.00815
-0.02559
-0.02686
-0.02658
-0.02231
-0.01650
-0.00244
0.00780
0.01286
0.01240
0.01237
0.00837
0.00237
-0.00065
-0.00394
-0.00399
-0.00450
-0.00818
-0.00353
0.00126
-0.00141
0.00018
-0.00058
0.00275
0.00910
0.00422
0.00215
0.00282
-0.00455
-0.00540
-0.00491
-0.00321
-0.00444
0.00185
0.00244
0.00311
0.00586
0.00115
0.00045
-0.00160
0.00052
0.00065
-0.00145
-0.00722
-0.00219
0.00260
0.00185
0.00037
0.00320
0.00611
-0.00071
-0.00589
-0.00458
-0.00031
0.00084
-0.00006
-0.00045
0.00016
-0.00192
-0.00129
0.00290
0.00712
0.00815
0.01481
0.01596
-0.00174
-0.02274
-0.03899
-0.04073
-0.03190
-0.01214
0.01926
0.05641
0.08986
0.10052
0.08931
0.02651
-0.09742
-0.25376
-0.31828
-0.16406
0.13808
0.38816
0.39536
0.15517
-0.12583
-0.25666
-0.22679
-0.12086
-0.02012
0.04871
0.08054
0.08128
0.06433
0.04178
0.01313
-0.01591
-0.03084
-0.03592
-0.02738
-0.02284
-0.01108
0.00557
0.00924
0.01510
0.01221
0.01292
0.01210
0.00261
-0.00639
-0.00780
-0.00361
-0.00750
-0.00707
-0.00615
-0.00211
0.00153
0.00786
0.00850
0.00671
0.00383
-0.00199
-0.00486
-0.00158
-0.00133
-0.00538
-0.00377
-0.00440
0.00327
0.00454
0.00147
0.00440
0.00511
-0.00034
-0.00333
-0.00358
-0.00055
-0.00077
-0.00385
-0.00157
0.00181
0.00459
0.00308
0.00077
-0.00041
-0.00190
-0.00131
-0.00023
-0.00116
-0.00117
-0.00306
0.00032
0.00556
0.00025
-0.00328
-0.00533
-0.00096
0.00522
0.01303
0.01970
0.01071
-0.00073
-0.02265
-0.03829
-0.03774
-0.02597
-0.00707
0.01944
0.04882
0.07734
0.09223
0.07555
0.01934
-0.09289
-0.22735
-0.26772
-0.12740
0.12214
0.33260
0.33635
0.12649
-0.10617
-0.22058
-0.19158
-0.10385
-0.01882
0.04407
0.06377
0.06915
0.05832
0.03778
0.01082
-0.01252
-0.02791
-0.02993
-0.02392
-0.02277
-0.00880
0.00500
0.01230
0.01195
0.00949
0.01037
0.00605
0.00214
-0.00028
-0.00531
-0.00641
-0.00612
-0.00569
-0.00171
0.00134
-0.00295
0.00172
0.00402
0.00575
0.00517
0.00415
0.00026
-0.00465
-0.00473
-0.00532
-0.00050
-0.00235
0.00049
0.00424
0.00197
0.00029
0.00231
0.00070
-0.00056
-0.00202
-0.00145
-0.00025
0.00097
0.00021
-0.00053
0.00021
0.00004
0.00047
-0.00004
0.00014
0.00028
0.00192
-0.00027
-0.00401
-0.00356
-0.00010
0.00399
-0.00102
-0.00440
-0.00267
0.00377
0.01034
0.01042
0.01903
0.01175
-0.00507
-0.02925
-0.04455
-0.04365
-0.02870
0.00282
0.03360
0.06476
0.08579
0.09606
0.07539
0.00404
-0.12640
-0.27515
-0.29049
-0.09607
0.19412
0.39147
0.34393
0.09232
-0.15232
-0.24703
-0.20641
-0.09979
-0.00459
0.05317
0.07891
0.07871
0.06355
0.03352
0.00500
-0.01887
-0.03204
-0.03132
-0.02631
-0.01679
-0.00847
0.00095
0.00908
0.01368
0.01521
0.01517
0.01061
-0.00246
-0.00696
-0.00733
-0.00314
-0.00427
-0.00752
-0.00508
-0.00134
0.00344
0.00137
0.00640
0.00942
0.00314
0.00069
-0.00181
-0.00499
-0.00415
-0.00317
-0.00088
-0.00144
-0.00335
0.00142
0.00438
0.00657
0.00263
-0.00014
0.00060
-0.00056
-0.00229
-0.00758
-0.00582
0.00148
0.00708
0.00241
-0.00243
0.00318
0.00308
-0.00170
-0.00226
-0.00219
0.00254
0.00360
-0.00361
-0.00623
-0.00158
0.00024
0.00261
0.00205
-0.00118
-0.00260
0.00169
0.00252
0.00608
0.01949
0.01617
0.00279
-0.02005
-0.03828
-0.04352
-0.03087
-0.00627
0.01915
0.04790
0.07371
0.08325
0.07336
0.02997
-0.06226
-0.18943
-0.26300
-0.16522
0.05552
0.27742
0.34202
0.19495
-0.04115
-0.19825
-0.20680
-0.13211
-0.04362
0.02018
0.06368
0.07814
0.06665
0.04132
0.01644
-0.00803
-0.02629
-0.03188
-0.02766
-0.01724
-0.00720
-0.00291
0.00343
0.01332
0.01521
0.01142
0.00514
0.00316
-0.00053
-0.00339
-0.00891
-0.00649
-0.00181
-0.00057
-0.00241
-0.00125
0.00354
0.00244
-0.00129
0.00308
0.00610
0.00461
-0.00118
-0.00463
-0.00179
-0.00341
-0.00254
-0.00452
0.00213
0.00241
0.00091
0.00248
0.00440
0.00078
-0.00131
-0.00002
-0.00106
-0.00348
-0.00170
-0.00156
-0.00206
0.00584
0.00260
-0.00015
-0.00125
0.00108
0.00226
-0.00096
-0.00301
-0.00376
-0.00168
0.00142
0.00136
0.00050
-0.00107
-0.00149
-0.00207
0.00456
0.00801
0.01364
0.01684
0.00537
-0.01470
-0.03043
-0.03952
-0.03797
-0.01933
0.00690
0.04153
0.07468
0.09713
0.09043
0.04937
-0.05310
-0.19261
-0.28186
-0.20531
0.02947
0.27716
0.37046
0.23309
-0.02067
-0.19923
-0.22543
-0.14949
-0.04944
0.02476
0.06627
0.06924
0.06001
0.04465
0.02411
-0.00084
-0.02231
-0.02950
-0.02702
-0.02497
-0.01189
0.00074
0.00512
0.00735
0.01084
0.01217
0.01165
0.00627
-0.00207
-0.00610
-0.00709
-0.00160
-0.00390
-0.00386
-0.00307
0.00109
-0.00108
-0.00045
0.00253
0.00828
0.00640
-0.00049
-0.00176
-0.00003
0.00029
-0.00693
-0.00576
-0.00166
0.00190
0.00018
-0.00253
0.00307
0.00974
0.00527
0.00169
-0.00251
-0.00482
-0.00833
-0.00726
0.00033
0.00634
0.00426
-0.00023
0.00295
0.00459
0.00136
-0.00334
-0.00374
-0.00257
-0.00003
-0.00393
-0.00450
0.00123
0.00632
0.00663
0.00080
-0.00241
-0.00461
-0.00339
-0.00083
0.00526
0.01972
0.01913
0.00180
-0.01929
-0.03742
-0.04038
-0.02836
-0.00286
0.02517
0.04782
0.06879
0.08013
0.06992
0.01652
-0.08745
-0.21085
-0.24546
-0.11509
0.11620
0.30741
0.30822
0.11869
-0.09885
-0.20408
-0.18131
-0.09786
-0.01620
0.03905
0.06625
0.07012
0.05120
0.02806
0.00608
-0.01225
-0.02299
-0.02533
-0.02003
-0.01677
-0.00973
-0.00111
0.00931
0.01505
0.00921
0.00711
0.00643
0.00296
-0.00103
-0.00667
-0.00513
-0.00337
-0.00309
-0.00282
-0.00412
0.00089
0.00621
0.00242
0.00146
0.00128
0.00273
0.00339
-0.00203
-0.00380
-0.00184
-0.00142
-0.00309
-0.00313
0.00109
0.00220
0.00316
0.00516
0.00230
-0.00101
-0.00486
-0.00416
0.00054
0.00650
-0.00080
-0.00535
-0.00291
0.00037
0.00388
0.00317
0.00152
-0.00007
-0.00083
-0.00065
0.00106
-0.00299
-0.00392
-0.00174
0.00167
0.00207
-0.00331
-0.00419
0.00114
0.00815
0.01027
0.00677
0.00901
0.00847
-0.00130
-0.02077
-0.03678
-0.03790
-0.02566
-0.00510
0.02217
0.05550
0.07991
0.08835
0.07403
0.01419
-0.10503
-0.23894
-0.26607
-0.10980
0.14192
0.33683
0.32878
0.12025
-0.11453
-0.22410
-0.19497
-0.10244
-0.01428
0.04237
0.07050
0.07159
0.05802
0.03635
0.00917
-0.01492
-0.02733
-0.02940
-0.02723
-0.02067
-0.00773
0.00652
0.01142
0.01122
0.01230
0.00925
0.00452
0.00038
-0.00232
-0.00346
-0.00305
-0.00567
-0.00551
-0.00119
-0.00033
-0.00252
-0.00232
0.00467
0.00547
0.00553
0.00549
0.00282
-0.00199
-0.00672
-0.00566
-0.00255
-0.00096
-0.00269
-0.00182
0.00161
0.00633
0.00603
0.00403
0.00351
-0.00048
-0.00789
-0.00941
-0.00400
0.00098
0.00546
0.00321
0.00204
0.00196
0.00135
-0.00356
-0.00250
0.00449
0.00211
-0.00355
-0.00730
-0.00217
0.00095
0.00320
0.00464
0.00522
-0.00046
-0.00733
-0.00718
-0.00282
0.00723
0.00844
0.00788
0.01271
0.01236
-0.00434
-0.02538
-0.03820
-0.03700
-0.02211
0.00187
0.03213
0.06418
0.08544
0.08389
0.04907
-0.02833
-0.14531
-0.24685
-0.21452
-0.01980
0.22427
0.34251
0.23888
0.01239
-0.15866
-0.20320
-0.15077
-0.06389
0.00998
0.04933
0.06504
0.06642
0.05247
0.02792
-0.00411
-0.02191
-0.02754
-0.02919
-0.02518
-0.01405
0.00003
0.00875
0.01077
0.01200
0.01296
0.00834
0.00056
-0.00326
-0.00504
-0.00346
-0.00262
-0.00307
-0.00313
-0.00079
-0.00174
-0.00225
0.00103
0.00348
0.00844
0.00513
0.00156
-0.00316
-0.00379
-0.00363
-0.00232
-0.00271
-0.00154
0.00270
-0.00002
0.00214
0.00423
0.00302
-0.00055
-0.00270
-0.00175
-0.00075
0.00031
-0.00077
-0.00159
0.00176
-0.00069
-0.00240
0.00070
0.00413
0.00361
0.00114
-0.00094
-0.00291
-0.00344
-0.00281
0.00026
0.00137
0.00128
-0.00015
-0.00052
-0.00208
-0.00307
0.00147
0.00597
0.00630
0.01210
0.01261
0.00598
-0.00750
-0.02693
-0.04024
-0.03774
-0.01764
0.00517
0.03212
0.06143
0.08547
0.09315
0.06253
-0.02573
-0.15720
-0.26341
-0.22986
-0.02975
0.22410
0.35525
0.26851
0.03991
-0.15905
-0.22232
-0.17257
-0.07866
0.00331
0.05876
0.07892
0.06999
0.05031
0.02756
-0.00095
-0.02134
-0.02959
-0.02914
-0.02170
-0.01351
-0.00765
0.00134
0.01169
0.01596
0.01665
0.01034
0.00384
-0.00377
-0.00762
-0.00575
-0.00301
-0.00184
-0.00120
-0.00478
-0.00495
0.00124
0.00319
0.00276
0.00699
0.00745
0.00223
-0.00137
-0.00658
-0.00504
-0.00206
-0.00019
0.00115
-0.00252
-0.00353
-0.00108
0.00283
0.00862
0.00774
0.00229
-0.00189
-0.00350
-0.00584
-0.00798
-0.00447
0.00065
0.00308
0.00395
0.00535
0.00601
0.00306
-0.00213
-0.00360
-0.00466
-0.00160
-0.00100
-0.00392
-0.00296
0.00183
0.00505
0.00324
0.00266
-0.00013
-0.00213
-0.00374
-0.00059
0.00121
0.00506
0.01296
0.01450
0.00521
-0.01716
-0.03383
-0.03630
-0.02673
-0.00912
0.01567
0.04706
0.07466
0.08526
0.07387
0.01859
-0.08830
-0.21324
-0.25036
-0.12074
0.10974
0.30285
0.31545
0.13622
-0.09035
-0.20742
-0.18850
-0.10394
-0.01895
0.03712
0.06550
0.06726
0.05540
0.03466
0.00868
-0.01178
-0.02656
-0.02838
-0.02027
-0.01602
-0.00936
0.00293
0.00934
0.00852
0.00841
0.00812
0.00793
0.00488
-0.00235
-0.00616
-0.00390
-0.00128
-0.00387
-0.00509
-0.00304
-0.00069
0.00044
0.00293
0.00542
0.00572
0.00472
0.00138
-0.00380
-0.00564
-0.00376
-0.00267
-0.00044
0.00029
0.00188
0.00231
0.00041
0.00185
0.00154
-0.00005
-0.00106
-0.00149
0.00121
0.00038
-0.00188
-0.00243
-0.00181
-0.00064
0.00059
0.00394
0.00410
0.00093
-0.00058
-0.00017
0.00006
-0.00177
-0.00498
-0.00385
-0.00032
0.00089
0.00082
0.00505
0.00482
-0.00406
-0.00479
-0.00050
0.00367
0.00832
0.01278
0.01508
0.00337
-0.01592
-0.03340
-0.04288
-0.03442
-0.01317
0.01567
0.05102
0.08250
0.09817
0.08377
0.02594
-0.08462
-0.22505
-0.28380
-0.16018
0.10156
0.33199
0.35713
0.16267
-0.08271
-0.21768
-0.20920
-0.12020
-0.02982
0.03280
0.06430
0.07079
0.06155
0.04355
0.02077
-0.00736
-0.02450
-0.03131
-0.03278
-0.02598
-0.01197
0.00426
0.01260
0.01382
0.00987
0.00972
0.00893
0.00447
-0.00108
-0.00521
-0.00523
-0.00689
-0.00824
-0.00388
0.00067
0.00009
0.00040
0.00300
0.00645
0.00843
0.00589
0.00129
-0.00374
-0.00924
-0.00971
-0.00468
0.00192
0.00383
0.00393
0.00394
0.00189
0.00191
0.00167
-0.00397
-0.00420
0.00023
0.00087
0.00039
-0.00114
-0.00114
-0.00071
0.00032
0.00101
0.00169
0.00157
0.00112
-0.00025
-0.00191
-0.00170
0.00126
0.00189
0.00125
-0.00063
-0.00654
-0.00550
0.00168
0.00529
0.00363
-0.00007
-0.00193
-0.00154
-0.00108
0.00198
0.01059
0.01928
0.01192
-0.00858
-0.02694
-0.03731
-0.03674
-0.02199
0.00317
0.03449
0.06303
0.08072
0.08197
0.05172
-0.02173
-0.14148
-0.24208
-0.20983
-0.03012
0.19449
0.32557
0.25878
0.04654
-0.14672
-0.21292
-0.16138
-0.07020
0.00514
0.05027
0.06899
0.06719
0.04928
0.02239
-0.00124
-0.01691
-0.02412
-0.02540
-0.02451
-0.01689
-0.00265
0.00560
0.00904
0.01205
0.01267
0.00937
-0.00038
-0.00171
-0.00029
-0.00205
-0.00250
-0.00579
-0.00424
-0.00200
-0.00374
-0.00184
0.00318
0.00441
0.00392
0.00480
0.00381
0.00121
-0.00157
-0.00439
-0.00580
-0.00280
-0.00086
-0.00131
-0.00019
0.00170
0.00365
0.00359
0.00437
0.00339
-0.00208
-0.00658
-0.00585
0.00007
0.00273
-0.00058
-0.00075
0.00204
0.00216
-0.00046
-0.00117
0.00013
0.00340
0.00398
-0.00028
-0.00134
-0.00360
-0.00647
-0.00699
-0.00256
0.00657
0.00958
0.00267
-0.00346
-0.00069
0.00166
-0.00012
0.00615
0.01640
0.01293
-0.00328
-0.02292
-0.03667
-0.03848
-0.02923
-0.00729
0.02570
0.06296
0.09039
0.09876
0.07499
-0.00131
-0.13205
-0.26553
-0.27289
-0.08898
0.18899
0.37291
0.32500
0.09213
-0.14265
-0.23879
-0.19764
-0.09735
-0.00352
0.05220
0.07316
0.07298
0.05829
0.03503
0.00842
-0.01535
-0.02799
-0.03108
-0.03115
-0.02329
-0.00822
0.00650
0.01400
0.01626
0.01600
0.00933
0.00238
-0.00113
-0.00309
-0.00571
-0.00689
-0.00468
-0.00248
-0.00094
-0.00072
0.00046
0.00239
0.00272
0.00144
0.00109
0.00392
0.00460
0.00009
-0.00262
-0.00398
-0.00412
-0.00290
-0.00472
-0.00115
0.00398
0.00452
0.00416
0.00395
0.00204
-0.00120
-0.00342
-0.00241
-0.00134
-0.00331
-0.00410
-0.00175
0.00316
0.00533
0.00449
0.00312
0.00127
-0.00078
-0.00260
-0.00366
-0.00324
-0.00328
-0.00563
-0.00277
0.00528
0.01000
0.00787
-0.00070
-0.00485
-0.00437
-0.00272
0.00158
0.01091
0.02033
0.00981
-0.01611
-0.03515
-0.03691
-0.02608
-0.01100
0.01119
0.04162
0.07082
0.08695
0.07798
0.02935
-0.06900
-0.19466
-0.25891
-0.15947
0.07364
0.28652
0.33222
0.17782
-0.05279
-0.19982
-0.20736
-0.12472
-0.03237
0.03006
0.06214
0.07025
0.06242
0.04086
0.01333
-0.00888
-0.02153
-0.02796
-0.02873
-0.02093
-0.00993
-0.00085
0.00668
0.01173
0.01411
0.01462
0.00921
-0.00090
-0.00507
-0.00525
-0.00422
-0.00474
-0.00516
-0.00097
-0.00041
-0.00110
0.00161
0.00299
0.00287
0.00406
0.00368
0.00174
-0.00243
-0.00398
-0.00362
-0.00248
0.00169
0.00089
-0.00201
-0.00067
0.00066
0.00097
0.00083
0.00132
0.00364
0.00318
0.00045
-0.00224
-0.00345
-0.00349
-0.00333
-0.00304
-0.00071
0.00385
0.00536
0.00414
0.00254
0.00087
-0.00091
-0.00244
-0.00354
-0.00374
-0.00265
-0.00233
-0.00000
0.00427
0.00387
-0.00092
-0.00009
0.00088
0.00044
-0.00046
0.00129
0.01070
0.01552
0.00941
-0.00647
-0.02571
-0.04067
-0.04004
-0.02429
0.00701
0.04161
0.06964
0.08987
0.09126
0.05238
-0.04542
-0.17704
-0.26684
-0.20760
0.00553
0.24905
0.35635
0.24331
0.00806
-0.17803
-0.22257
-0.15886
-0.06243
0.01567
0.05955
0.07573
0.06884
0.04607
0.02037
-0.00111
-0.01852
-0.02929
-0.03123
-0.02353
-0.01193
-0.00284
0.00463
0.01327
0.01478
0.01033
0.00427
0.00232
0.00372
-0.00139
-0.00737
-0.00759
-0.00229
-0.00029
-0.00193
-0.00325
-0.00038
0.00113
0.00060
0.00386
0.00769
0.00510
0.00008
-0.00228
-0.00431
-0.00342
-0.00270
-0.00153
-0.00214
-0.00200
0.00110
0.00244
0.00432
0.00535
0.00478
0.00166
-0.00426
-0.00718
-0.00529
-0.00185
-0.00005
0.00198
0.00386
0.00274
0.00109
0.00138
0.00130
-0.00141
-0.00387
-0.00316
0.00122
0.00227
0.00042
-0.00029
-0.00112
0.00015
-0.00098
-0.00186
-0.00400
-0.00281
0.00251
0.00562
0.00954
0.01572
0.01562
0.00426
-0.01205
-0.03178
-0.04182
-0.03699
-0.02086
0.00439
0.03699
0.06882
0.09381
0.09822
0.06058
-0.03323
-0.17141
-0.27710
-0.23155
-0.02286
0.22928
0.37067
0.28741
0.04193
-0.17514
-0.24096
-0.17826
-0.07426
0.01138
0.06251
0.07754
0.07065
0.05070
0.02258
-0.00305
-0.01884
-0.02517
-0.02756
-0.02273
-0.01599
-0.00853
0.00432
0.01373
0.01527
0.01341
0.00820
0.00153
-0.00465
-0.00622
-0.00418
-0.00035
0.00105
-0.00256
-0.00446
-0.00126
-0.00235
-0.00056
0.00367
0.00626
0.00561
-0.00006
-0.00106
0.00074
-0.00097
-0.00533
-0.00430
-0.00280
0.00045
0.00093
-0.00088
0.00420
0.00783
0.00369
-0.00075
-0.00255
-0.00340
-0.00466
-0.00317
-0.00179
-0.00098
0.00259
0.00366
0.00434
0.00578
0.00266
-0.00360
-0.00692
-0.00428
-0.00059
-0.00133
0.00117
0.00253
0.00252
0.00232
0.00086
-0.00415
-0.00828
-0.00442
0.00315
0.00839
0.01340
0.01904
0.01623
0.00083
-0.02029
-0.04260
-0.05199
-0.03999
-0.01285
0.02708
0.06088
0.09037
0.10670
0.09526
0.03011
-0.10377
-0.25855
-0.31210
-0.16628
0.11717
0.36257
0.39141
0.18555
-0.08626
-0.24063
-0.23696
-0.14171
-0.03889
0.03702
0.08255
0.08964
0.06979
0.04027
0.01519
-0.00826
-0.03000
-0.03842
-0.03147
-0.01941
-0.01028
0.00123
0.00924
0.01350
0.01536
0.01162
0.00742
0.00258
-0.00184
-0.00795
-0.00580
-0.00336
-0.00262
-0.00421
-0.00511
0.00080
0.00064
0.00231
0.00547
0.00687
0.00702
0.00373
-0.00426
-0.00792
-0.00737
-0.00554
-0.00090
0.00325
0.00523
0.00378
-0.00011
0.00007
0.00117
-0.00054
-0.00025
0.00030
0.00013
-0.00289
-0.00405
-0.00182
0.00330
0.00431
0.00075
-0.00146
-0.00136
-0.00001
0.00255
0.00200
0.00097
0.00049
-0.00563
-0.00764
-0.00222
0.00488
0.00481
-0.00023
-0.00381
-0.00051
0.00333
0.00365
0.00762
0.01430
0.01557
-0.00073
-0.02195
-0.03523
-0.03932
-0.02946
-0.00938
0.01933
0.05097
0.07622
0.08983
0.07969
0.02416
-0.08546
-0.21461
-0.26029
-0.14370
0.08591
0.29385
0.33610
0.17626
-0.05698
-0.20512
-0.21295
-0.12856
-0.03327
0.03367
0.06728
0.07493
0.06010
0.03517
0.01191
-0.00427
-0.01675
-0.02971
-0.03055
-0.02338
-0.01070
-0.00079
0.00697
0.01250
0.01456
0.01383
0.00769
0.00113
-0.00125
-0.00261
-0.00802
-0.00782
-0.00760
-0.00434
0.00024
0.00425
0.00647
0.00506
0.00169
0.00048
0.00077
-0.00002
-0.00112
-0.00543
-0.00168
-0.00146
-0.00140
-0.00039
0.00459
0.00732
0.00139
-0.00466
-0.00716
-0.00324
0.00164
0.00322
0.00418
0.00941
0.00115
-0.00860
-0.00769
-0.00264
-0.00090
0.00166
0.00313
0.00349
0.00618
0.00313
-0.00223
-0.00513
-0.00385
-0.00620
-0.00145
0.00342
0.00279
0.00155
-0.00217
0.00004
0.00207
0.00325
0.00586
0.01396
0.01567
0.00418
-0.01677
-0.03873
-0.04333
-0.03391
-0.01357
0.01541
0.05262
0.08792
0.09993
0.08576
0.02773
-0.09078
-0.22950
-0.28655
-0.15951
0.09778
0.32169
0.36327
0.18524
-0.06815
-0.22381
-0.22517
-0.13345
-0.03209
0.03681
0.06819
0.07699
0.06610
0.04306
0.01566
-0.01094
-0.02532
-0.03132
-0.03022
-0.02020
-0.00993
0.00036
0.00801
0.01076
0.01586
0.01037
0.00565
0.00278
-0.00057
-0.00184
-0.00664
-0.00737
-0.00517
-0.00172
-0.00037
0.00108
-0.00008
-0.00011
0.00114
0.00363
0.00604
0.00547
0.00390
-0.00179
-0.00728
-0.00777
-0.00360
-0.00397
-0.00240
0.00541
0.00616
0.00598
0.00349
-0.00020
-0.00130
-0.00277
-0.00197
-0.00327
-0.00487
-0.00093
0.00237
0.00269
0.00234
0.00213
0.00057
0.00039
0.00265
0.00326
-0.00411
-0.00678
-0.00366
-0.00325
0.00003
0.00077
0.00351
0.00173
0.00141
0.00146
0.00398
0.00583
0.00570
0.00996
0.01144
-0.00462
-0.02543
-0.03869
-0.04197
-0.02461
0.00027
0.03091
0.06320
0.08748
0.09349
0.07609
0.00173
-0.13482
-0.27323
-0.27788
-0.08833
0.19104
0.38246
0.34049
0.09470
-0.15268
-0.25097
-0.20266
-0.09549
-0.00498
0.05565
0.07746
0.07803
0.05791
0.03358
0.00645
-0.01663
-0.02906
-0.03300
-0.02826
-0.02171
-0.00762
0.00479
0.01497
0.01587
0.01276
0.00912
0.00365
0.00001
-0.00360
-0.00320
-0.00152
-0.00545
-0.00934
-0.00654
0.00029
0.00303
0.00221
0.00100
0.00773
0.00888
0.00399
-0.00117
-0.00452
-0.00569
-0.00700
-0.00545
-0.00232
0.00205
0.00490
0.00599
0.00432
0.00421
0.00082
-0.00489
-0.00813
-0.00256
0.00134
0.00181
0.00085
0.00020
0.00082
0.00072
0.00123
0.00055
0.00045
-0.00062
-0.00049
-0.00052
0.00039
-0.00295
-0.00464
0.00082
0.00375
0.00253
-0.00329
-0.00486
0.00086
0.00651
0.00472
0.00813
0.01642
0.01062
-0.00725
-0.02590
-0.03630
-0.03938
-0.02480
-0.00030
0.03306
0.06324
0.08117
0.08515
0.06368
-0.00870
-0.13275
-0.24629
-0.23770
-0.06217
0.17756
0.33783
0.29532
0.08227
-0.13938
-0.22610
-0.18230
-0.08593
0.00032
0.05144
0.07263
0.06897
0.05269
0.02623
0.00329
-0.01411
-0.02465
-0.02944
-0.02606
-0.01448
-0.00694
-0.00019
0.00925
0.01471
0.01738
0.00776
0.00108
-0.00031
0.00283
-0.00261
-0.00885
-0.00696
-0.00620
-0.00119
-0.00248
0.00222
0.00513
0.00530
0.00126
0.00076
0.00334
0.00515
-0.00191
-0.00692
-0.00518
-0.00306
0.00122
-0.00210
-0.00028
0.00327
0.00441
0.00174
0.00247
0.00298
0.00029
-0.00535
-0.00571
-0.00274
-0.00042
-0.00003
0.00125
0.00557
0.00398
-0.00027
-0.00035
0.00193
-0.00084
-0.00551
-0.00395
0.00045
-0.00407
0.00085
0.00416
0.00316
0.00094
-0.00490
-0.00042
0.00203
0.00593
0.01047
0.01498
0.01373
-0.00660
-0.02987
-0.04267
-0.03976
-0.02453
-0.00124
0.03200
0.07145
0.09676
0.09987
0.06826
-0.02021
-0.16263
-0.28865
-0.25852
-0.04262
0.23174
0.39226
0.30995
0.04674
-0.17961
-0.24686
-0.18460
-0.08077
0.00806
0.05753
0.07921
0.07658
0.05541
0.02973
0.00074
-0.02156
-0.03334
-0.03130
-0.02278
-0.01277
-0.00643
0.00410
0.01140
0.01071
0.00794
0.01147
0.01047
0.00481
-0.00340
-0.00766
-0.00841
-0.00988
-0.00322
-0.00134
0.00344
0.00256
-0.00091
0.00118
0.00447
0.00583
0.00183
0.00021
-0.00025
-0.00197
-0.00345
-0.00427
-0.00335
-0.00091
-0.00109
-0.00122
0.00387
0.00530
0.00568
0.00389
0.00206
-0.00211
-0.00686
-0.00917
-0.00840
0.00178
0.00631
0.00644
0.00659
0.00432
-0.00145
-0.00560
-0.00104
0.00108
-0.00675
-0.00854
-0.00442
0.00576
0.00990
0.00451
0.00036
-0.00308
-0.00141
-0.00092
0.00530
0.01551
0.01779
0.00308
-0.02103
-0.03866
-0.04403
-0.03214
-0.00652
0.02252
0.05524
0.08633
0.09659
0.07757
0.01921
-0.09476
-0.24146
-0.29210
-0.14497
0.12765
0.35253
0.36676
0.15856
-0.10288
-0.24289
-0.22385
-0.11991
-0.02086
0.04362
0.07535
0.08136
0.06891
0.03926
0.00541
-0.01578
-0.02783
-0.03065
-0.02896
-0.02181
-0.00595
0.00285
0.00655
0.01246
0.01861
0.01286
0.00700
-0.00455
-0.00401
-0.00281
-0.00913
-0.00533
-0.00025
0.00353
-0.00276
-0.00130
-0.00048
-0.00070
0.00230
0.00325
0.00361
0.00666
0.00338
-0.00304
-0.00560
-0.00320
-0.00348
-0.00705
-0.00599
0.00238
0.01125
0.00979
0.00590
-0.00294
-0.00453
-0.00452
-0.00512
-0.00376
-0.00042
0.00360
0.00345
0.00296
0.00270
0.00180
-0.00364
-0.00429
0.00140
0.00155
-0.00342
-0.00330
-0.00048
0.00188
0.00199
0.00069
-0.00065
-0.00294
0.00163
0.00282
0.00986
0.01821
0.01438
-0.00385
-0.02706
-0.03791
-0.04165
-0.02824
-0.00234
0.03098
0.06118
0.08391
0.09092
0.07175
0.00014
-0.12445
-0.25217
-0.26779
-0.09019
0.18379
0.36409
0.31536
0.09002
-0.14409
-0.23573
-0.18686
-0.08891
-0.00522
0.04861
0.07314
0.07350
0.05467
0.03104
0.00879
-0.01511
-0.02862
-0.03498
-0.02668
-0.01530
-0.00491
0.00299
0.01059
0.01228
0.01081
0.00988
0.00907
0.00369
-0.00381
-0.00620
-0.00988
-0.00545
-0.00143
-0.00289
-0.00357
0.00249
0.00273
0.00150
0.00445
0.00628
0.00669
0.00048
-0.00359
-0.00533
-0.00508
-0.00418
-0.00776
-0.00213
0.00794
0.00960
0.00557
-0.00048
-0.00015
-0.00139
-0.00408
-0.00684
-0.00273
0.00529
-0.00107
-0.00015
0.00496
0.00587
0.00015
-0.00551
-0.00256
0.00085
-0.00073
-0.00065
0.00129
-0.00405
-0.00151
-0.00167
0.00508
0.00516
-0.00348
-0.00309
-0.00147
0.00569
0.01133
0.01417
0.01394
0.00056
-0.02137
-0.04111
-0.04713
-0.03510
-0.00812
0.02736
0.06670
0.09835
0.10444
0.08332
0.00793
-0.13148
-0.28371
-0.30390
-0.11360
0.19222
0.40963
0.36249
0.10187
-0.15518
-0.25915
-0.20619
-0.10403
-0.01006
0.05543
0.07881
0.08020
0.06025
0.03903
0.00879
-0.01785
-0.03308
-0.03499
-0.03095
-0.01784
-0.00512
0.00532
0.01513
0.01481
0.00798
0.00739
0.00744
0.00167
-0.00141
-0.00862
-0.00305
-0.00192
-0.00450
-0.00780
-0.00151
0.00320
0.00154
0.00316
0.00301
0.00615
0.00194
0.00056
0.00080
-0.00191
-0.00389
-0.00904
-0.00330
0.00034
0.00148
0.00274
0.00390
0.00761
0.00329
-0.00199
-0.00447
-0.00282
-0.00383
-0.00174
-0.00354
0.00129
0.00598
0.00609
0.00033
-0.00052
0.00290
-0.00336
-0.00434
-0.00392
-0.00188
-0.00250
-0.00087
0.00272
0.00741
0.00669
-0.00094
-0.00768
-0.00470
0.00147
0.01142
0.02060
0.01228
-0.00592
-0.02888
-0.03856
-0.03072
-0.02022
-0.00215
0.02307
0.05480
0.08317
0.09053
0.06840
-0.00074
-0.12186
-0.25223
-0.26661
-0.08349
0.19330
0.37147
0.30936
0.06614
-0.15063
-0.22737
-0.18356
-0.08769
-0.00048
0.05202
0.07415
0.06927
0.05454
0.03234
0.00565
-0.01578
-0.02822
-0.03215
-0.02826
-0.02027
-0.00524
0.00832
0.00982
0.01280
0.01364
0.01250
0.00646
0.00086
-0.00799
-0.00547
-0.00644
-0.00675
-0.00196
-0.00265
0.00055
-0.00223
0.00344
0.00822
0.00628
0.00337
-0.00193
-0.00392
0.00051
-0.00267
-0.00531
-0.00074
-0.00028
-0.00137
0.00023
0.00262
0.00518
0.00091
-0.00122
0.00106
0.00108
0.00018
-0.00381
-0.00520
-0.00121
0.00365
0.00267
0.00147
-0.00081
0.00169
-0.00100
-0.00296
0.00141
0.00269
-0.00341
-0.00720
0.00163
0.00654
0.00227
-0.00388
-0.00242
-0.00140
-0.00058
0.00283
0.01473
0.02240
0.01046
-0.01188
-0.02734
-0.03912
-0.04256
-0.02405
0.00139
0.03687
0.07187
0.09057
0.09599
0.06471
-0.02806
-0.17260
-0.28816
-0.23727
-0.01733
0.24775
0.39024
0.28204
0.01585
-0.19384
-0.24077
-0.16785
-0.06459
0.01598
0.05915
0.07611
0.07181
0.05341
0.02447
-0.00299
-0.01848
-0.02990
-0.03190
-0.02701
-0.01262
-0.00252
0.00169
0.00770
0.01633
0.01710
0.01253
0.00244
-0.00054
-0.00268
-0.00710
-0.00643
-0.00920
-0.00366
-0.00295
-0.00017
0.00237
0.00678
0.00633
0.00294
-0.00015
0.00339
0.00159
-0.00472
-0.00746
-0.00699
0.00286
0.00230
0.00085
0.00061
0.00172
0.00158
0.00036
0.00016
0.00062
-0.00063
-0.00226
-0.00235
0.00219
0.00170
-0.00107
-0.00064
0.00090
-0.00030
-0.00090
0.00113
0.00457
0.00217
-0.00601
-0.00576
-0.00520
0.00196
0.00377
0.00446
0.00056
-0.00166
0.00103
-0.00185
0.00231
0.01408
0.02189
0.00824
-0.01394
-0.03127
-0.04353
-0.04218
-0.02226
0.00997
0.04284
0.07452
0.09859
0.10236
0.06305
-0.03975
-0.19759
-0.32258
-0.25080
0.01319
0.30243
0.42780
0.28022
-0.01507
-0.22837
-0.26124
-0.16912
-0.05746
0.02644
0.07413
0.08595
0.07245
0.04543
0.02006
-0.00442
-0.02036
-0.03225
-0.02846
-0.02287
-0.01605
-0.00634
0.00341
0.01470
0.01411
0.01341
0.00901
0.00765
0.00007
-0.00607
-0.00554
-0.00758
-0.00466
-0.00098
-0.00449
-0.00356
0.00275
0.00089
0.00307
0.00629
0.00605
0.00563
0.00109
-0.00436
-0.00625
-0.00349
-0.00626
-0.00646
0.00019
0.00750
0.00780
0.00248
0.00005
0.00002
0.00044
-0.00274
-0.00192
0.00038
-0.00325
-0.00463
0.00182
0.00168
0.00388
0.00158
0.00342
0.00632
-0.00403
-0.00975
-0.00729
-0.00199
0.00078
0.00572
0.00808
0.00381
-0.00237
-0.00391
-0.00449
-0.00318
0.00675
0.02068
0.01529
-0.00181
-0.01593
-0.02748
-0.04130
-0.03517
-0.01057
0.01714
0.05211
0.08069
0.09439
0.08033
0.01799
-0.09758
-0.22822
-0.27470
-0.13433
0.12655
0.33946
0.34121
0.13429
-0.10560
-0.22094
-0.19843
-0.11372
-0.02000
0.04037
0.07381
0.07452
0.05604
0.03312
0.00831
-0.01142
-0.02279
-0.02392
-0.02549
-0.02181
-0.01212
-0.00093
0.00727
0.01262
0.01405
0.01373
0.00805
0.00211
-0.00307
-0.00576
-0.00724
-0.00688
-0.00281
-0.00113
0.00153
0.00047
-0.00024
-0.00130
0.00067
0.00478
0.00838
0.00626
0.00084
-0.00736
-0.00935
-0.00471
-0.00116
-0.00054
0.00286
0.00614
0.00188
0.00197
0.00032
0.00065
-0.00347
-0.00167
-0.00081
-0.00246
-0.00249
0.00101
0.00719
0.00440
-0.00035
-0.00326
-0.00433
-0.00287
0.00139
0.00205
0.00047
-0.00109
0.00042
-0.00205
0.00210
0.00021
-0.00317
-0.00200
-0.00061
0.00445
0.01366
0.01910
0.01318
-0.00200
-0.03027
-0.04490
-0.04353
-0.02424
0.00324
0.03329
0.06541
0.09119
0.09543
0.06149
-0.01827
-0.14800
-0.26762
-0.24737
-0.04731
0.21912
0.37149
0.28424
0.04334
-0.16032
-0.22713
-0.17325
-0.07920
0.00257
0.05835
0.07171
0.06875
0.05276
0.02921
0.00284
-0.01939
-0.02873
-0.02803
-0.02330
-0.02025
-0.00656
0.00381
0.01434
0.01462
0.01109
0.01134
0.00613
-0.00171
-0.00597
-0.00704
-0.00233
-0.00531
-0.00645
0.00215
0.00142
-0.00141
-0.00135
0.00174
0.00408
0.00571
0.00495
0.00273
0.00074
-0.00261
-0.01048
-0.00899
-0.00054
0.00334
-0.00147
0.00281
0.00862
0.00489
0.00119
-0.00180
-0.00272
-0.00433
-0.00336
-0.00323
0.00039
0.00262
0.00309
0.00331
0.00230
0.00066
-0.00181
-0.00421
-0.00237
0.00217
0.00127
-0.00461
-0.00275
0.00123
0.00172
0.00186
0.00032
-0.00041
0.00109
0.00302
0.00974
0.01908
0.01308
-0.00798
-0.03019
-0.04135
-0.03858
-0.02630
-0.00266
0.03214
0.06883
0.09636
0.10201
0.07146
-0.01363
-0.15311
-0.29421
-0.27951
-0.06079
0.24144
0.41726
0.31461
0.04379
-0.18439
-0.25082
-0.18597
-0.07852
0.00522
0.05650
0.07846
0.07675
0.05867
0.02954
0.00319
-0.01884
-0.03287
-0.03635
-0.02841
-0.01334
-0.00093
0.00636
0.00869
0.01244
0.01342
0.01017
0.00413
0.00055
-0.00254
-0.00684
-0.00579
-0.00680
-0.00044
-0.00042
-0.00110
-0.00061
0.00079
0.00177
0.00233
0.00377
0.00471
0.00624
-0.00064
-0.00625
-0.00816
-0.00399
-0.00064
-0.00031
-0.00042
0.00583
0.00516
0.00038
0.00185
0.00289
-0.00149
-0.00763
-0.00587
-0.00196
0.00493
0.00373
0.00182
0.00184
0.00052
-0.00054
-0.00264
-0.00017
-0.00007
0.00081
-0.00428
-0.00518
0.00097
0.00331
0.00387
0.00058
-0.00263
-0.00096
0.00116
0.00548
0.01436
0.01408
0.00343
-0.01296
-0.02568
-0.03358
-0.03074
-0.01915
0.00279
0.03112
0.05968
0.08267
0.08627
0.06014
-0.02127
-0.15100
-0.25665
-0.22416
-0.03273
0.21530
0.35383
0.26811
0.03602
-0.16293
-0.22435
-0.16528
-0.06746
0.00992
0.05298
0.07111
0.06977
0.04944
0.02180
-0.00212
-0.01836
-0.02637
-0.02490
-0.02011
-0.01533
-0.00662
0.00266
0.00936
0.01311
0.01055
0.00882
0.00445
0.00309
0.00103
-0.00481
-0.01009
-0.00774
-0.00237
-0.00224
-0.00022
0.00058
0.00426
0.00281
0.00319
0.00212
0.00400
0.00389
-0.00142
-0.00450
-0.00705
-0.00625
-0.00448
0.00177
0.00689
0.00612
0.00263
-0.00086
-0.00049
0.00234
-0.00187
-0.00369
-0.00468
-0.00178
0.00046
0.00159
0.00310
0.00387
0.00418
-0.00012
-0.00233
-0.00336
-0.00395
-0.00326
-0.00105
-0.00028
0.00477
0.00553
0.00038
-0.00254
-0.00315
-0.00230
-0.00221
0.00467
0.01268
0.01764
0.01246
-0.00504
-0.02533
-0.04163
-0.04042
-0.02416
0.00279
0.03252
0.06430
0.08848
0.09168
0.05832
-0.02312
-0.15235
-0.26058
-0.22673
-0.03109
0.21741
0.35042
0.26679
0.03723
-0.15875
-0.21772
-0.16293
-0.07474
0.00275
0.05310
0.07339
0.06762
0.05024
0.02761
0.00228
-0.01849
-0.03010
-0.02931
-0.02317
-0.01423
-0.00694
0.00497
0.01366
0.01350
0.01006
0.00790
0.00730
0.00285
-0.00810
-0.00934
-0.00453
-0.00320
-0.00212
-0.00214
0.00116
0.00365
0.00120
0.00266
0.00139
0.00026
0.00231
-0.00072
0.00005
0.00037
-0.00226
-0.00529
-0.00105
0.00375
-0.00044
-0.00347
-0.00116
0.00437
0.00563
0.00275
0.00132
-0.00401
-0.00579
-0.00348
0.00002
0.00139
0.00146
0.00209
0.00187
0.00173
0.00068
0.00003
-0.00081
-0.00029
-0.00252
-0.00738
-0.00418
0.00401
0.00591
0.00365
-0.00238
-0.00465
-0.00044
0.00420
0.00568
0.01453
0.01837
0.00516
-0.01632
-0.03301
-0.03950
-0.03698
-0.02206
0.00754
0.04823
0.08014
0.09464
0.09056
0.05107
-0.05091
-0.20202
-0.29840
-0.21380
0.03336
0.29600
0.38811
0.24119
-0.02237
-0.21109
-0.23757
-0.15708
-0.05227
0.02357
0.06437
0.08016
0.07323
0.05066
0.02033
-0.00611
-0.02299
-0.03493
-0.03405
-0.02569
-0.00844
0.00252
0.00690
0.01354
0.01328
0.01054
0.00534
0.00126
0.00099
-0.00161
-0.00455
-0.00527
-0.00598
-0.00360
-0.00257
-0.00235
-0.00042
0.00509
0.00603
0.00400
0.00350
0.00186
0.00106
-0.00193
-0.00605
-0.00418
-0.00324
-0.00302
-0.00209
0.00151
0.00713
0.00416
0.00294
0.00217
0.00027
0.00014
-0.00297
-0.00784
-0.00447
0.00090
0.00092
-0.00034
0.00249
0.00629
0.00279
0.00029
-0.00071
-0.00175
-0.00224
-0.00228
-0.00114
0.00124
-0.00071
-0.00460
-0.00024
0.00536
0.00410
-0.00189
-0.00641
-0.00394
0.00065
0.00872
0.01943
0.02245
0.00942
-0.01522
-0.03685
-0.04556
-0.03656
-0.02049
0.00524
0.03784
0.07029
0.09268
0.09616
0.06647
-0.02297
-0.16696
-0.28954
-0.25596
-0.03619
0.24620
0.39655
0.29573
0.03677
-0.18017
-0.24552
-0.18384
-0.07946
0.00877
0.06252
0.08124
0.07548
0.05392
0.02493
0.00022
-0.01724
-0.02916
-0.03306
-0.02900
-0.01661
-0.00472
0.00474
0.01203
0.01600
0.01782
0.01159
0.00181
-0.00370
-0.00601
-0.00702
-0.00626
-0.00266
0.00129
-0.00211
-0.00394
-0.00021
0.00215
0.00497
0.00385
0.00313
0.00435
0.00291
-0.00364
-0.00733
-0.00420
-0.00325
-0.00124
-0.00145
0.00233
0.00727
0.00464
0.00023
-0.00140
0.00002
-0.00161
-0.00161
-0.00283
-0.00213
0.00123
0.00165
0.00128
0.00094
0.00054
-0.00018
-0.00109
-0.00238
-0.00004
-0.00050
0.00156
0.00472
0.00195
-0.00183
-0.00222
0.00205
-0.00072
-0.00684
-0.00697
-0.00161
0.00793
0.00914
-0.00012
-0.00428
-0.00209
-0.00149
0.00204
0.01331
0.01879
0.00816
-0.00886
-0.02602
-0.03703
-0.03420
-0.02293
-0.00102
0.03069
0.06424
0.08841
0.09256
0.05971
-0.02641
-0.15799
-0.26227
-0.21934
-0.01931
0.21889
0.34199
0.25496
0.03606
-0.15038
-0.21465
-0.16522
-0.07362
0.00574
0.05165
0.06826
0.06867
0.05184
0.02593
0.00288
-0.01681
-0.02795
-0.03014
-0.02494
-0.01512
-0.00594
0.00245
0.01127
0.01720
0.01477
0.00949
0.00178
-0.00166
-0.00337
-0.00504
-0.00757
-0.00719
-0.00143
0.00090
-0.00006
-0.00029
0.00444
0.00471
0.00233
0.00161
0.00040
-0.00086
-0.00204
-0.00257
-0.00225
-0.00003
-0.00033
-0.00272
-0.00001
0.00373
0.00196
0.00064
0.00161
0.00048
-0.00032
-0.00183
-0.00223
-0.00032
0.00041
-0.00002
-0.00016
0.00026
0.00032
0.00058
0.00023
0.00001
-0.00088
-0.00161
-0.00048
0.00335
0.00416
0.00042
-0.00345
-0.00130
0.00150
-0.00259
-0.00521
-0.00173
0.00331
0.00378
0.00064
-0.00317
-0.00099
0.00100
-0.00018
0.00383
0.01421
0.02132
0.01135
-0.01330
-0.03484
-0.04320
-0.03930
-0.02262
0.00757
0.04344
0.07530
0.09610
0.09370
0.05337
-0.04433
-0.18726
-0.28624
-0.21913
0.00908
0.26487
0.37658
0.25578
0.00621
-0.18960
-0.23406
-0.16594
-0.06548
0.01605
0.06234
0.08014
0.07423
0.04860
0.02035
-0.00168
-0.01855
-0.03131
-0.03390
-0.02688
-0.01230
0.00071
0.00670
0.01203
0.01205
0.01158
0.00741
0.00528
0.00185
-0.00385
-0.00751
-0.00721
-0.00584
-0.00432
0.00045
0.00164
0.00378
0.00186
0.00056
0.00136
0.00255
0.00431
0.00338
-0.00260
-0.00698
-0.00309
-0.00143
-0.00225
-0.00051
0.00283
0.00313
0.00206
-0.00012
0.00035
0.00330
0.00060
-0.00340
-0.00233
0.00046
-0.00010
-0.00220
-0.00342
-0.00164
0.00308
0.00560
0.00323
0.00095
-0.00159
-0.00429
-0.00253
0.00163
0.00298
0.00239
-0.00011
-0.00336
-0.00493
-0.00387
-0.00084
0.00428
0.00480
-0.00394
-0.00318
0.00700
0.00818
0.00252
0.00598
0.01310
0.00890
-0.00968
-0.03211
-0.04388
-0.03968
-0.02126
0.00897
0.04787
0.08220
0.09943
0.09280
0.04884
-0.05071
-0.20158
-0.30646
-0.22681
0.02935
0.30326
0.40199
0.25089
-0.01860
-0.21084
-0.24588
-0.16672
-0.05833
0.02331
0.06911
0.08180
0.07247
0.05128
0.02264
-0.00372
-0.02207
-0.03293
-0.03380
-0.02483
-0.01159
-0.00265
0.00204
0.00843
0.01638
0.01913
0.01303
0.00461
-0.00257
-0.00769
-0.00837
-0.00735
-0.00564
-0.00136
-0.00058
-0.00110
0.00146
0.00477
0.00606
0.00313
0.00062
0.00111
0.00154
-0.00318
-0.00606
-0.00202
-0.00108
-0.00265
-0.00114
0.00198
0.00514
0.00439
0.00055
-0.00080
0.00070
0.00005
-0.00288
-0.00353
-0.00224
0.00041
0.00166
0.00097
0.00076
0.00060
0.00054
0.00026
-0.00009
0.00178
0.00117
-0.00195
-0.00208
-0.00156
0.00024
0.00101
-0.00133
0.00057
0.00156
-0.00171
-0.00270
-0.00292
-0.00128
0.00315
0.00695
0.00969
0.01460
0.01338
-0.00103
-0.02004
-0.03468
-0.03910
-0.03122
-0.01129
0.01783
0.05036
0.07850
0.09337
0.08208
0.02437
-0.09046
-0.22298
-0.26474
-0.13875
0.10113
0.30794
0.33318
0.15792
-0.07202
-0.20567
-0.20389
-0.12231
-0.03286
0.03615
0.07188
0.07342
0.05650
0.03347
0.01227
-0.00584
-0.02144
-0.03060
-0.02875
-0.01828
-0.00689
-0.00007
0.00527
0.01036
0.01283
0.01072
0.00783
0.00517
-0.00121
-0.00603
-0.00668
-0.00625
-0.00530
-0.00219
0.00007
0.00094
0.00280
0.00297
0.00157
0.00096
0.00360
0.00412
-0.00026
-0.00255
-0.00299
-0.00428
-0.00496
-0.00213
0.00130
0.00375
0.00387
0.00268
0.00237
0.00106
-0.00212
-0.00466
-0.00177
0.00112
0.00100
-0.00020
-0.00051
-0.00037
-0.00014
-0.00001
-0.00021
-0.00071
0.00087
0.00472
0.00335
-0.00036
-0.00378
-0.00378
-0.00016
0.00031
-0.00238
-0.00280
0.00086
0.00331
0.00042
-0.00387
-0.00184
0.00545
0.00872
0.00949
0.01285
0.01029
-0.00191
-0.02390
-0.04092
-0.04110
-0.02837
-0.00498
0.02449
0.05929
0.08968
0.10209
0.08116
0.00675
-0.12682
-0.26262
-0.27900
-0.10892
0.16505
0.36847
0.34623
0.11647
-0.12900
-0.24008
-0.20868
-0.10786
-0.01169
0.04790
0.07707
0.07930
0.06321
0.03500
0.00488
-0.01795
-0.02992
-0.02965
-0.02597
-0.01875
-0.00879
0.00378
0.01185
0.01221
0.01234
0.01078
0.00607
0.00203
-0.00198
-0.00665
-0.00619
-0.00579
-0.00529
-0.00125
-0.00095
0.00075
0.00310
0.00418
0.00327
0.00350
0.00135
-0.00022
-0.00006
-0.00144
-0.00437
-0.00667
0.00089
0.00253
-0.00071
-0.00156
0.00000
0.00372
0.00431
0.00346
0.00150
-0.00185
-0.00304
-0.00527
-0.00264
0.00161
-0.00008
-0.00082
0.00091
0.00332
0.00063
-0.00159
0.00092
0.00357
0.00322
0.00033
-0.00291
-0.00329
-0.00314
-0.00407
-0.00323
0.00245
0.00408
0.00128
-0.00087
-0.00265
0.00144
0.00574
0.00618
0.00577
0.01122
0.01191
-0.00136
-0.02061
-0.03741
-0.04278
-0.03176
-0.00708
0.02545
0.05798
0.08285
0.09629
0.08454
0.02315
-0.10331
-0.24581
-0.29066
-0.14792
0.12275
0.34815
0.37290
0.17025
-0.09617
-0.24331
-0.22739
-0.12578
-0.02388
0.04303
0.07489
0.07989
0.06498
0.04070
0.01374
-0.01183
-0.02845
-0.03501
-0.02930
-0.01819
-0.01068
-0.00050
0.00803
0.01686
0.01893
0.01196
0.00393
-0.00180
-0.00625
-0.00797
-0.00404
-0.00015
0.00078
-0.00097
-0.00347
-0.00111
0.00212
-0.00139
-0.00040
0.00143
0.00270
0.00583
0.00658
0.00344
-0.00543
-0.00758
-0.00567
-0.00656
-0.00222
0.00366
0.00585
0.00581
0.00188
0.00122
0.00027
-0.00219
0.00083
-0.00002
-0.00427
-0.00514
-0.00066
0.00127
0.00061
-0.00023
0.00277
0.00584
0.00052
-0.00214
-0.00207
0.00039
0.00024
-0.00274
-0.00094
0.00330
0.00162
-0.00418
-0.00244
0.00123
0.00306
0.00083
-0.00020
-0.00292
-0.00560
-0.00153
0.00176
0.00648
0.00824
0.01228
0.01342
0.00571
-0.01044
-0.02926
-0.03775
-0.03610
-0.01945
0.00780
0.03370
0.06245
0.08922
0.09191
0.05386
-0.03624
-0.16510
-0.26004
-0.21187
-0.00864
0.22984
0.34815
0.25153
0.01958
-0.16659
-0.21585
-0.15929
-0.06933
0.01125
0.05903
0.07127
0.06471
0.04761
0.02498
0.00179
-0.01880
-0.02966
-0.02792
-0.02288
-0.01736
-0.00656
0.00678
0.01420
0.01468
0.01318
0.00737
0.00316
0.00055
-0.00619
-0.00810
-0.00669
-0.00258
-0.00141
-0.00020
0.00311
0.00057
-0.00164
0.00007
0.00449
0.00647
0.00085
-0.00141
0.00055
-0.00348
-0.00506
-0.00152
-0.00270
0.00091
0.00492
-0.00070
0.00104
0.00262
0.00079
0.00011
-0.00071
-0.00139
-0.00124
-0.00040
-0.00091
-0.00062
0.00099
0.00109
-0.00086
-0.00005
0.00070
0.00011
0.00061
0.00232
0.00044
-0.00224
-0.00279
0.00052
0.00323
-0.00043
-0.00138
-0.00071
0.00003
-0.00215
-0.00595
-0.00385
0.00348
0.00847
0.00557
0.00451
0.01115
0.01509
0.00569
-0.01373
-0.03113
-0.04012
-0.03890
-0.02033
0.00859
0.04059
0.07147
0.09355
0.09599
0.05854
-0.03973
-0.18567
-0.28919
-0.22923
0.00023
0.26618
0.38937
0.26706
0.00286
-0.19755
-0.23812
-0.16465
-0.06279
0.01518
0.06250
0.07974
0.07385
0.05001
0.02142
-0.00192
-0.01975
-0.03202
-0.03359
-0.02528
-0.01481
-0.00051
0.00914
0.01362
0.01278
0.00940
0.00724
0.00488
0.00100
-0.00264
-0.00712
-0.00648
-0.00522
-0.00385
-0.00331
0.00004
0.00424
0.00350
0.00342
0.00348
0.00396
0.00053
-0.00198
-0.00422
-0.00275
-0.00164
-0.00091
0.00101
-0.00033
-0.00147
-0.00019
0.00217
0.00409
0.00393
-0.00021
-0.00314
-0.00346
-0.00040
0.00223
-0.00023
-0.00151
-0.00145
-0.00098
-0.00001
0.00085
0.00163
0.00200
0.00190
0.00132
0.00022
-0.00098
-0.00215
-0.00246
-0.00163
0.00008
-0.00100
-0.00185
0.00187
0.00092
-0.00264
-0.00285
0.00427
0.00825
0.00389
0.00578
0.01483
0.01323
-0.00519
-0.02749
-0.04111
-0.04270
-0.02970
-0.00357
0.03238
0.06893
0.09509
0.10251
0.07503
-0.00552
-0.14115
-0.28237
-0.28353
-0.08242
0.19697
0.38856
0.34349
0.09764
-0.15424
-0.25433
-0.20793
-0.09956
-0.00130
0.05452
0.08010
0.07801
0.06021
0.03097
0.00440
-0.01601
-0.02736
-0.02904
-0.02734
-0.02149
-0.00998
0.00184
0.00913
0.01259
0.01826
0.01757
0.00883
-0.00370
-0.00718
-0.00565
-0.00723
-0.00684
-0.00561
-0.00123
-0.00087
0.00293
0.00592
0.00937
0.00305
-0.00205
-0.00236
-0.00228
0.00068
-0.00181
-0.00295
-0.00219
-0.00064
0.00001
0.00322
0.00352
-0.00142
-0.00126
0.00037
0.00056
0.00294
0.00251
0.00025
-0.00442
-0.00546
-0.00240
0.00107
0.00040
0.00218
0.00437
0.00123
0.00078
0.00106
0.00030
-0.00088
-0.00511
-0.00296
0.00086
-0.00066
-0.00081
0.00143
0.00379
0.00232
-0.00316
-0.00662
-0.00073
0.00375
0.00397
0.00611
0.01715
0.01622
0.00187
-0.02042
-0.03934
-0.04152
-0.02978
-0.00860
0.02072
0.05282
0.07671
0.09262
0.08356
0.02107
-0.09818
-0.22776
-0.26819
-0.12917
0.11595
0.31356
0.33241
0.15205
-0.08247
-0.21237
-0.20458
-0.11845
-0.02845
0.03681
0.07031
0.07393
0.06222
0.03686
0.00997
-0.00889
-0.02317
-0.03271
-0.02872
-0.02057
-0.00813
0.00166
0.00844
0.01352
0.01347
0.01016
0.00747
0.00255
-0.00219
-0.00431
-0.00717
-0.00940
-0.00466
-0.00088
-0.00126
0.00246
0.00664
0.00447
-0.00080
-0.00017
0.00119
0.00540
0.00004
-0.00578
-0.00525
-0.00311
0.00073
0.00172
0.00197
0.00083
0.00088
0.00004
-0.00040
0.00199
0.00062
-0.00016
-0.00117
-0.00092
0.00073
-0.00102
-0.00108
-0.00152
-0.00094
-0.00110
0.00067
0.00409
0.00427
0.00238
-0.00153
-0.00231
-0.00232
-0.00236
-0.00094
0.00007
-0.00049
0.00031
0.00199
0.00053
-0.00165
-0.00566
-0.00094
0.00121
0.00674
0.01411
0.01604
0.01195
-0.00171
-0.01714
-0.03654
-0.04464
-0.03418
-0.01106
0.01429
0.05127
0.08393
0.09935
0.09099
0.03450
-0.08316
-0.23101
-0.29480
-0.17500
0.09090
0.33424
0.37523
0.18177
-0.07265
-0.21851
-0.22007
-0.13607
-0.03978
0.03528
0.06907
0.07502
0.06595
0.04792
0.01989
-0.01064
-0.02858
-0.03282
-0.02969
-0.02222
-0.00910
0.00096
0.00784
0.00957
0.01213
0.01277
0.01142
0.00676
-0.00139
-0.00796
-0.00764
-0.00656
-0.00850
-0.00255
0.00169
0.00032
0.00069
0.00531
0.00566
0.00400
0.00166
-0.00090
0.00110
-0.00338
-0.00578
-0.00303
0.00023
-0.00082
-0.00265
0.00202
0.00200
0.00624
0.00313
-0.00104
-0.00259
-0.00312
0.00248
0.00112
-0.00162
-0.00241
-0.00234
-0.00132
-0.00059
0.00177
0.00442
0.00107
0.00019
0.00096
0.00300
0.00095
-0.00429
-0.00395
-0.00330
-0.00094
-0.00112
-0.00163
0.00634
0.00531
-0.00180
-0.00224
-0.00098
-0.00049
-0.00358
0.00587
0.02357
0.02160
-0.00281
-0.02343
-0.03792
-0.04336
-0.03184
-0.00733
0.02553
0.05277
0.07995
0.09223
0.08074
0.02578
-0.09336
-0.23497
-0.28492
-0.14511
0.11625
0.34022
0.36323
0.15588
-0.09941
-0.23271
-0.21588
-0.11654
-0.01831
0.04305
0.06997
0.07227
0.05997
0.03631
0.01204
-0.00730
-0.02377
-0.02828
-0.03187
-0.02324
-0.00827
0.00259
0.00693
0.01243
0.01525
0.00991
0.00902
0.00247
-0.00219
-0.00601
-0.00719
-0.00799
-0.00207
-0.00230
-0.00208
0.00065
0.00438
0.00747
0.00148
-0.00166
0.00356
0.00376
-0.00416
-0.00635
-0.00439
0.00189
0.00266
-0.00037
-0.00158
0.00224
-0.00060
0.00066
0.00032
0.00396
0.00289
-0.00255
-0.00412
-0.00531
0.00168
0.00229
0.00151
0.00011
0.00035
-0.00031
0.00015
-0.00034
0.00004
-0.00032
0.00023
0.00059
0.00220
0.00311
-0.00301
-0.00673
-0.00120
0.00160
0.00015
-0.00170
-0.00390
-0.00035
0.00489
0.00849
0.00838
0.01556
0.01605
-0.00288
-0.02344
-0.03687
-0.04065
-0.03129
-0.01004
0.02185
0.05088
0.07458
0.09194
0.08419
0.03090
-0.07794
-0.21570
-0.28128
-0.16539
0.08533
0.31132
0.35807
0.18481
-0.06485
-0.21522
-0.21707
-0.13083
-0.03573
0.03227
0.07234
0.07850
0.06050
0.03692
0.01277
-0.00708
-0.02359
-0.02956
-0.02469
-0.01974
-0.01312
-0.00388
0.00785
0.01610
0.01534
0.00918
0.00459
0.00225
-0.00122
-0.00559
-0.00550
-0.00140
-0.00409
-0.00409
-0.00267
0.00027
0.00341
0.00278
0.00316
0.00250
-0.00110
0.00064
0.00138
-0.00025
0.00009
-0.00336
-0.00270
-0.00150
0.00197
-0.00364
-0.00038
0.00355
0.00319
0.00170
-0.00175
0.00201
-0.00009
0.00083
-0.00153
-0.00203
-0.00231
-0.00184
-0.00225
-0.00121
0.00605
0.00483
-0.00251
0.00088
0.00366
0.00287
-0.00280
-0.00620
-0.00376
-0.00340
0.00184
0.00098
0.00025
0.00032
-0.00091
-0.00084
0.00450
0.00817
0.00913
0.01111
0.01549
-0.00009
-0.02704
-0.04020
-0.04258
-0.02991
-0.00949
0.02231
0.05673
0.08696
0.10566
0.09384
0.02584
-0.10497
-0.26710
-0.32150
-0.15350
0.14790
0.39511
0.38720
0.14378
-0.12082
-0.25114
-0.22352
-0.12415
-0.02179
0.04583
0.07820
0.08224
0.06939
0.04235
0.00830
-0.01440
-0.03048
-0.03335
-0.02945
-0.02242
-0.01245
0.00417
0.01433
0.01543
0.01497
0.01027
0.00589
0.00016
-0.00700
-0.00490
-0.00155
-0.00647
-0.00536
-0.00358
0.00120
0.00341
0.00123
0.00149
0.00437
0.00128
0.00036
0.00354
-0.00187
0.00157
-0.00436
-0.01024
-0.00190
0.00593
0.00512
0.00030
-0.00155
-0.00062
-0.00005
-0.00037
0.00380
0.00370
-0.00039
-0.00553
-0.00502
-0.00166
0.00182
0.00188
0.00165
0.00187
0.00166
0.00108
0.00041
-0.00098
-0.00149
-0.00249
-0.00115
0.00025
-0.00462
0.00063
0.00498
0.00189
-0.00098
-0.00426
-0.00264
0.00127
0.00382
0.01057
0.01508
0.01603
0.00081
-0.02011
-0.03566
-0.04440
-0.03229
-0.01143
0.02195
0.05542
0.08244
0.09290
0.07857
0.01990
-0.09201
-0.22499
-0.27811
-0.14107
0.11135
0.33342
0.34839
0.14890
-0.09209
-0.22391
-0.20560
-0.11588
-0.02117
0.03925
0.06921
0.06977
0.05793
0.04049
0.01616
-0.00959
-0.02700
-0.03055
-0.03030
-0.02454
-0.01036
0.00342
0.01590
0.01484
0.01166
0.01063
0.00460
0.00298
-0.00634
-0.00998
-0.00572
-0.00131
0.00007
0.00006
0.00069
-0.00142
-0.00373
0.00059
0.00442
0.00465
0.00420
0.00486
-0.00056
-0.00520
-0.00623
-0.00640
-0.00259
0.00301
0.00375
0.00294
0.00382
-0.00017
-0.00126
-0.00116
0.00229
0.00220
0.00022
-0.00556
-0.00877
-0.00122
0.00332
0.00316
0.00436
0.00528
0.00184
-0.00252
-0.00179
-0.00225
-0.00251
-0.00344
0.00173
0.00238
-0.00465
-0.00035
0.00158
0.00425
0.00303
-0.00497
-0.00500
-0.00022
0.00463
0.01252
0.01556
0.01397
-0.00267
-0.02216
-0.03378
-0.03562
-0.02899
-0.01577
0.01755
0.04836
0.08014
0.09714
0.08793
0.03061
-0.08866
-0.23675
-0.29554
-0.15054
0.11153
0.34713
0.37071
0.15487
-0.10453
-0.23044
-0.20964
-0.11898
-0.02314
0.03751
0.07311
0.07326
0.06199
0.04413
0.01586
-0.01483
-0.03054
-0.03364
-0.02641
-0.02023
-0.00925
0.00459
0.00847
0.01220
0.01026
0.01411
0.00950
0.00314
-0.00454
-0.00769
-0.00688
-0.00713
-0.00467
0.00033
0.00164
0.00455
-0.00189
-0.00187
0.00363
0.00565
0.00277
0.00099
0.00334
-0.00404
-0.00334
-0.00783
-0.00447
-0.00054
0.00737
0.00288
-0.00052
0.00122
0.00111
0.00317
-0.00055
-0.00134
-0.00314
-0.00247
-0.00410
0.00057
0.00629
0.00209
-0.00248
0.00229
0.00095
-0.00098
-0.00389
-0.00148
0.00083
-0.00010
0.00498
0.00309
-0.00223
-0.00425
-0.00548
0.00024
-0.00060
-0.00231
0.00113
0.00562
0.00785
0.01005
0.01455
0.00948
-0.00294
-0.02549
-0.03615
-0.03988
-0.03169
-0.00598
0.02738
0.06288
0.08641
0.09440
0.07412
0.00232
-0.11243
-0.25365
-0.28290
-0.10735
0.17358
0.37791
0.33302
0.09549
-0.14432
-0.23642
-0.19178
-0.09472
-0.00650
0.04933
0.07563
0.07115
0.05226
0.03240
0.00933
-0.01073
-0.02926
-0.03536
-0.02547
-0.01731
-0.00429
0.00578
0.01057
0.00952
0.00729
0.01044
0.00955
0.00189
-0.00264
-0.00727
-0.00345
-0.00502
-0.00449
-0.00064
-0.00129
0.00044
-0.00322
0.00036
0.00830
0.00870
0.00318
-0.00002
-0.00479
-0.00393
-0.00405
-0.00239
-0.00288
-0.00074
0.00536
0.00084
0.00203
0.00450
0.00046
-0.00233
-0.00230
0.00039
0.00051
-0.00245
-0.00398
0.00031
0.00500
-0.00039
-0.00102
0.00283
0.00144
-0.00027
-0.00161
-0.00256
0.00288
-0.00036
-0.00506
-0.00050
0.00264
0.00301
-0.00195
-0.00451
-0.00272
-0.00046
0.00200
0.00649
0.01670
0.02135
0.00891
-0.01225
-0.02948
-0.03879
-0.04096
-0.02585
0.00140
0.03055
0.06579
0.09240
0.09743
0.06885
-0.01607
-0.14940
-0.27082
-0.25453
-0.05866
0.21459
0.37567
0.30275
0.05745
-0.16716
-0.23505
-0.17807
-0.07808
0.00173
0.05508
0.07130
0.07046
0.05330
0.02941
0.00503
-0.01761
-0.02698
-0.03096
-0.02291
-0.01765
-0.00900
0.00103
0.01247
0.01679
0.01358
0.00855
0.00215
0.00144
-0.00122
-0.00728
-0.00419
-0.00184
-0.00186
-0.00681
-0.00541
0.00140
0.00065
0.00417
0.00558
0.00644
0.00523
0.00287
-0.00235
-0.00619
-0.00760
-0.00716
-0.00178
0.00231
0.00414
0.00541
0.00188
0.00020
0.00095
0.00141
-0.00093
-0.00328
-0.00004
-0.00145
-0.00223
-0.00153
-0.00033
0.00116
0.00211
0.00271
0.00232
0.00163
0.00020
-0.00079
-0.00160
-0.00071
-0.00728
-0.00854
0.00318
0.00758
0.00371
-0.00085
-0.00317
0.00024
0.00339
0.00068
0.01124
0.02061
0.01294
-0.00973
-0.03017
-0.04042
-0.04426
-0.02782
0.00028
0.03792
0.07025
0.09139
0.10045
0.07677
-0.00599
-0.15663
-0.30235
-0.28338
-0.05950
0.23364
0.40985
0.33159
0.06439
-0.18336
-0.26360
-0.19753
-0.08228
0.00958
0.05873
0.07795
0.07790
0.06043
0.03017
0.00411
-0.02016
-0.03103
-0.03582
-0.03349
-0.01553
0.00064
0.00800
0.00995
0.01468
0.01218
0.00912
0.00339
0.00102
-0.00232
-0.00611
-0.00609
-0.00722
-0.00236
-0.00259
0.00046
0.00249
0.00213
0.00053
0.00139
0.00457
0.00613
0.00565
-0.00214
-0.00652
-0.00734
-0.00738
-0.00440
0.00045
0.00646
0.01005
0.00340
-0.00011
0.00162
-0.00012
-0.00227
-0.00813
-0.00601
-0.00354
0.00355
0.00483
0.00356
0.00792
0.00401
-0.00112
-0.00845
-0.00686
-0.00435
0.00054
0.00508
0.00573
-0.00052
-0.00267
0.00041
0.00142
0.00051
-0.00399
-0.00622
-0.00261
0.00449
0.01380
0.01964
0.01293
0.00122
-0.02274
-0.03569
-0.03529
-0.02910
-0.01078
0.01352
0.04619
0.08150
0.09418
0.07627
0.02244
-0.08680
-0.22488
-0.26638
-0.13032
0.11338
0.31498
0.32849
0.14214
-0.08902
-0.20766
-0.19709
-0.11353
-0.02456
0.03724
0.06719
0.07088
0.05814
0.04211
0.01582
-0.01660
-0.03186
-0.03074
-0.02551
-0.01817
-0.00656
0.00419
0.01113
0.01171
0.00888
0.01010
0.00965
0.00126
-0.00448
-0.00730
-0.00452
-0.00569
-0.00695
0.00035
0.00428
0.00089
0.00139
0.00047
0.00223
0.00349
0.00344
0.00092
-0.00362
-0.00280
-0.00343
-0.00036
-0.00110
0.00131
0.00117
-0.00148
0.00031
0.00059
0.00214
0.00264
0.00151
0.00240
-0.00248
-0.00583
-0.00374
-0.00239
0.00162
0.00398
0.00407
0.00466
-0.00003
-0.00510
-0.00392
0.00164
0.00305
-0.00240
-0.00376
-0.00136
0.00119
0.00166
0.00044
-0.00045
-0.00115
-0.00112
0.00135
0.00769
0.01790
0.01779
0.00136
-0.01773
-0.03247
-0.03985
-0.03652
-0.01992
0.01393
0.04738
0.07858
0.09806
0.09293
0.04252
-0.07197
-0.21572
-0.29090
-0.18876
0.06143
0.31090
0.38288
0.21231
-0.05597
-0.21978
-0.22545
-0.13970
-0.04400
0.02838
0.06802
0.07725
0.06849
0.04561
0.02102
-0.00590
-0.02797
-0.03572
-0.03009
-0.01920
-0.01077
-0.00194
0.00746
0.01266
