-0.00027
0.00129
0.00235
0.00251
0.00186
0.00107
0.00059
0.00035
0.00010
-0.00014
-0.00022
-0.00017
-0.00011
-0.00008
-0.00000
0.00013
0.00020
0.00010
-0.00005
-0.00010
-0.00030
-0.00096
-0.00166
-0.00144
-0.00020
0.00097
0.00107
0.00015
-0.00115
-0.00209
-0.00189
-0.00038
0.00141
0.00219
0.00182
0.00122
0.00127
0.00199
0.00255
0.00202
0.00057
-0.00075
-0.00152
-0.00232
-0.00328
-0.00354
-0.00270
-0.00151
-0.00075
-0.00026
0.00033
0.00094
0.00134
0.00157
0.00174
0.00185
0.00182
0.00166
0.00142
0.00111
0.00071
0.00025
-0.00024
-0.00075
-0.00125
-0.00168
-0.00203
-0.00230
-0.00238
-0.00217
-0.00175
-0.00114
-0.00010
0.00157
0.00324
0.00359
0.00200
-0.00040
-0.00160
-0.00068
0.00111
0.00171
0.00065
-0.00036
0.00027
0.00161
0.00143
-0.00054
-0.00223
-0.00225
-0.00137
-0.00067
0.00001
0.00112
0.00222
0.00239
0.00139
0.00005
-0.00061
-0.00060
-0.00085
-0.00157
-0.00188
-0.00176
-0.00258
-0.00456
-0.00557
-0.00415
-0.00206
-0.00153
-0.00127
0.00173
0.00701
0.01065
0.01056
0.00864
0.00735
0.00695
0.00686
0.00672
0.00527
0.00083
-0.00631
-0.01355
-0.01838
-0.02004
-0.01887
-0.01521
-0.00930
-0.00220
0.00383
0.00668
0.00593
0.00289
0.00004
0.00078
0.00740
0.01747
0.02435
0.02352
0.01687
0.00945
0.00365
-0.00161
-0.00746
-0.01287
-0.01553
-0.01409
-0.00973
-0.00557
-0.00412
-0.00515
-0.00633
-0.00572
-0.00403
-0.00372
-0.00585
-0.00848
-0.00921
-0.00816
-0.00694
-0.00579
-0.00357
0.00037
0.00618
0.01416
0.02353
0.03168
0.03676
0.03972
0.04194
0.04199
0.03691
0.02597
0.01116
-0.00532
-0.02267
-0.04097
-0.06052
-0.08118
-0.10120
-0.11724
-0.12601
-0.12493
-0.11066
-0.07775
-0.01877
0.07197
0.18870
0.30346
0.37071
0.35357
0.25147
0.10152
-0.04782
-0.16482
-0.24184
-0.28357
-0.29312
-0.26876
-0.21090
-0.12872
-0.03833
0.04422
0.10724
0.14430
0.15559
0.14797
0.13015
0.10690
0.07922
0.04891
0.01991
-0.00467
-0.02422
-0.03888
-0.04796
-0.05135
-0.05101
-0.04937
-0.04653
-0.04060
-0.03106
-0.02027
-0.01102
-0.00353
0.00394
0.01192
0.01868
0.02251
0.02362
0.02319
0.02168
0.01902
0.01549
0.01142
0.00678
0.00196
-0.00181
-0.00395
-0.00537
-0.00718
-0.00926
-0.01103
-0.01223
-0.01214
-0.00954
-0.00487
-0.00072
0.00118
0.00190
0.00308
0.00416
0.00353
0.00147
0.00009
0.00074
0.00263
0.00407
0.00412
0.00298
0.00133
-0.00009
-0.00086
-0.00093
-0.00049
0.00009
0.00005
-0.00131
-0.00329
-0.00397
-0.00238
0.00017
0.00170
0.00169
0.00110
0.00066
0.00027
-0.00021
-0.00041
-0.00029
-0.00058
-0.00129
-0.00095
0.00118
0.00304
0.00239
0.00033
-0.00046
-0.00018
-0.00126
-0.00360
-0.00398
-0.00116
0.00182
0.00188
0.00006
-0.00056
0.00070
0.00200
0.00230
0.00265
0.00388
0.00452
0.00252
-0.00156
-0.00474
-0.00536
-0.00486
-0.00482
-0.00438
-0.00229
0.00033
0.00158
0.00187
0.00284
0.00403
0.00344
0.00112
-0.00043
0.00019
0.00185
0.00290
0.00279
0.00169
0.00008
-0.00139
-0.00265
-0.00408
-0.00516
-0.00454
-0.00222
0.00003
0.00092
0.00095
0.00087
0.00060
0.00016
0.00028
0.00132
0.00240
0.00242
0.00162
0.00143
0.00247
0.00345
0.00271
0.00053
-0.00115
-0.00128
-0.00092
-0.00161
-0.00357
-0.00560
-0.00622
-0.00483
-0.00256
-0.00151
-0.00247
-0.00381
-0.00328
-0.00071
0.00224
0.00457
0.00705
0.01028
0.01284
0.01264
0.00984
0.00679
0.00496
0.00354
0.00121
-0.00261
-0.00819
-0.01489
-0.02011
-0.02138
-0.01917
-0.01528
-0.00950
-0.00120
0.00681
0.01001
0.00747
0.00272
0.00042
0.00387
0.01313
0.02306
0.02612
0.01999
0.01026
0.00348
0.00012
-0.00327
-0.00761
-0.01043
-0.01027
-0.00888
-0.00861
-0.00952
-0.00994
-0.00905
-0.00785
-0.00763
-0.00831
-0.00869
-0.00830
-0.00801
-0.00838
-0.00825
-0.00589
-0.00102
0.00516
0.01173
0.01857
0.02554
0.03199
0.03720
0.04055
0.04147
0.03951
0.03440
0.02569
0.01300
-0.00316
-0.02150
-0.04131
-0.06268
-0.08507
-0.10658
-0.12459
-0.13531
-0.13312
-0.11281
-0.07205
-0.00863
0.08225
0.19825
0.31302
0.37834
0.35546
0.24681
0.09366
-0.05501
-0.16920
-0.24190
-0.27858
-0.28574
-0.26518
-0.21592
-0.14097
-0.05155
0.03553
0.10454
0.14650
0.16109
0.15461
0.13551
0.11002
0.08106
0.05081
0.02278
-0.00026
-0.01885
-0.03489
-0.04776
-0.05500
-0.05630
-0.05382
-0.04885
-0.04109
-0.03133
-0.02192
-0.01392
-0.00629
0.00172
0.00947
0.01643
0.02245
0.02634
0.02647
0.02348
0.02002
0.01752
0.01501
0.01141
0.00687
0.00157
-0.00441
-0.00968
-0.01220
-0.01196
-0.01122
-0.01167
-0.01268
-0.01225
-0.00901
-0.00377
0.00093
0.00334
0.00422
0.00510
0.00582
0.00503
0.00265
0.00054
0.00046
0.00206
0.00319
0.00258
0.00145
0.00154
0.00237
0.00214
0.00063
-0.00090
-0.00212
-0.00352
-0.00437
-0.00339
-0.00156
-0.00115
-0.00198
-0.00174
-0.00018
0.00040
-0.00045
-0.00017
0.00249
0.00525
0.00560
0.00373
0.00120
-0.00109
-0.00272
-0.00320
-0.00263
-0.00178
-0.00126
-0.00091
-0.00046
0.00003
0.00037
0.00061
0.00083
0.00100
0.00108
0.00106
0.00099
0.00087
0.00068
0.00042
0.00013
-0.00017
-0.00049
-0.00084
-0.00113
-0.00132
-0.00146
-0.00157
-0.00149
-0.00112
-0.00065
-0.00022
0.00059
0.00213
0.00349
0.00320
0.00130
-0.00046
-0.00082
-0.00032
-0.00004
-0.00003
0.00036
0.00121
0.00165
0.00076
-0.00147
-0.00393
-0.00502
-0.00372
-0.00048
0.00253
0.00290
0.00050
-0.00187
-0.00147
0.00092
0.00199
0.00047
-0.00116
-0.00023
0.00240
0.00394
0.00349
0.00250
0.00197
0.00149
0.00057
-0.00052
-0.00145
-0.00228
-0.00315
-0.00392
-0.00443
-0.00468
-0.00467
-0.00437
-0.00373
-0.00272
-0.00138
0.00020
0.00193
0.00385
0.00589
0.00770
0.00907
0.01024
0.01124
0.01101
0.00843
0.00413
0.00005
-0.00332
-0.00772
-0.01399
-0.01948
-0.02054
-0.01709
-0.01226
-0.00755
-0.00153
0.00542
0.00896
0.00607
0.00000
-0.00280
0.00116
0.01053
0.02043
0.02482
0.02096
0.01249
0.00556
0.00203
-0.00092
-0.00515
-0.00915
-0.01085
-0.01020
-0.00841
-0.00683
-0.00652
-0.00770
-0.00928
-0.01002
-0.01010
-0.01032
-0.01036
-0.00934
-0.00789
-0.00740
-0.00706
-0.00379
0.00378
0.01324
0.02138
0.02753
0.03288
0.03773
0.04094
0.04135
0.03874
0.03331
0.02476
0.01225
-0.00419
-0.02282
-0.04202
-0.06229
-0.08437
-0.10606
-0.12302
-0.13162
-0.12812
-0.10760
-0.06713
-0.00658
0.07696
0.18571
0.30053
0.37285
0.35640
0.24970
0.09716
-0.04957
-0.16243
-0.23661
-0.27706
-0.28910
-0.27317
-0.22538
-0.14626
-0.04917
0.04347
0.11293
0.15223
0.16419
0.15583
0.13508
0.10866
0.08001
0.05000
0.02032
-0.00569
-0.02570
-0.03986
-0.04904
-0.05385
-0.05507
-0.05314
-0.04763
-0.03904
-0.02979
-0.02154
-0.01302
-0.00293
0.00696
0.01422
0.01921
0.02327
0.02547
0.02437
0.02112
0.01781
0.01433
0.00971
0.00489
0.00136
-0.00122
-0.00389
-0.00621
-0.00747
-0.00841
-0.00975
-0.01026
-0.00827
-0.00452
-0.00184
-0.00183
-0.00321
-0.00389
-0.00321
-0.00152
0.00092
0.00354
0.00516
0.00528
0.00473
0.00434
0.00396
0.00323
0.00233
0.00152
0.00063
-0.00041
-0.00120
-0.00173
-0.00259
-0.00372
-0.00382
-0.00236
-0.00070
-0.00007
0.00037
0.00154
0.00224
0.00121
-0.00048
-0.00101
-0.00046
-0.00017
-0.00043
-0.00053
-0.00024
-0.00004
-0.00006
0.00008
0.00049
0.00078
0.00082
0.00113
0.00199
0.00238
0.00121
-0.00087
-0.00205
-0.00170
-0.00093
-0.00068
-0.00072
-0.00055
-0.00029
-0.00025
-0.00032
-0.00027
-0.00016
-0.00018
-0.00020
0.00009
0.00052
0.00072
0.00103
0.00218
0.00363
0.00345
0.00084
-0.00247
-0.00452
-0.00514
-0.00477
-0.00313
-0.00044
0.00167
0.00231
0.00262
0.00359
0.00418
0.00317
0.00137
0.00053
0.00068
0.00039
-0.00110
-0.00277
-0.00305
-0.00190
-0.00118
-0.00228
-0.00386
-0.00376
-0.00205
-0.00026
0.00111
0.00219
0.00247
0.00213
0.00245
0.00370
0.00450
0.00408
0.00291
0.00086
-0.00243
-0.00520
-0.00442
-0.00013
0.00364
0.00345
0.00023
-0.00293
-0.00477
-0.00580
-0.00556
-0.00281
0.00145
0.00351
0.00121
-0.00297
-0.00455
-0.00241
0.00053
0.00170
0.00179
0.00260
0.00425
0.00612
0.00841
0.01086
0.01168
0.00974
0.00635
0.00288
-0.00165
-0.00844
-0.01564
-0.02005
-0.02090
-0.01919
-0.01454
-0.00683
0.00075
0.00456
0.00495
0.00423
0.00300
0.00243
0.00636
0.01584
0.02455
0.02508
0.01805
0.01019
0.00505
0.00057
-0.00508
-0.00985
-0.01116
-0.00995
-0.00935
-0.01036
-0.01083
-0.00921
-0.00735
-0.00797
-0.01059
-0.01222
-0.01162
-0.01035
-0.00940
-0.00730
-0.00299
0.00169
0.00490
0.00849
0.01538
0.02440
0.03163
0.03620
0.04021
0.04328
0.04220
0.03623
0.02788
0.01758
0.00245
-0.01813
-0.04001
-0.05975
-0.07905
-0.10078
-0.12264
-0.13732
-0.13761
-0.12007
-0.08423
-0.02809
0.05527
0.16908
0.29318
0.37886
0.37826
0.28365
0.13264
-0.02306
-0.14814
-0.23079
-0.27512
-0.29006
-0.27903
-0.23817
-0.16619
-0.07353
0.02024
0.09649
0.14462
0.16344
0.15880
0.13952
0.11382
0.08700
0.06018
0.03219
0.00414
-0.01924
-0.03453
-0.04371
-0.05082
-0.05620
-0.05692
-0.05205
-0.04415
-0.03540
-0.02544
-0.01416
-0.00384
0.00371
0.00980
0.01637
0.02252
0.02577
0.02562
0.02370
0.02104
0.01737
0.01275
0.00790
0.00296
-0.00237
-0.00719
-0.00976
-0.00963
-0.00827
-0.00707
-0.00631
-0.00580
-0.00547
-0.00511
-0.00440
-0.00336
-0.00208
-0.00077
0.00011
0.00044
0.00107
0.00276
0.00483
0.00587
0.00535
0.00373
0.00174
0.00042
0.00051
0.00107
0.00036
-0.00130
-0.00184
-0.00079
0.00005
-0.00060
-0.00211
-0.00334
-0.00362
-0.00259
-0.00061
0.00104
0.00155
0.00149
0.00166
0.00214
0.00271
0.00321
0.00275
0.00036
-0.00283
-0.00380
-0.00162
0.00040
-0.00096
-0.00397
-0.00442
-0.00166
0.00104
0.00160
0.00112
0.00121
0.00199
0.00290
0.00327
0.00242
0.00050
-0.00099
-0.00070
0.00081
0.00162
0.00064
-0.00125
-0.00240
-0.00231
-0.00177
-0.00152
-0.00153
-0.00148
-0.00132
-0.00111
-0.00085
-0.00055
-0.00010
0.00079
0.00203
0.00311
0.00372
0.00386
0.00317
0.00129
-0.00079
-0.00135
-0.00045
-0.00018
-0.00166
-0.00348
-0.00372
-0.00234
-0.00076
0.00012
0.00064
0.00150
0.00243
0.00211
0.00009
-0.00188
-0.00166
0.00037
0.00164
0.00065
-0.00153
-0.00323
-0.00382
-0.00290
0.00011
0.00443
0.00744
0.00725
0.00493
0.00308
0.00235
0.00088
-0.00253
-0.00612
-0.00745
-0.00660
-0.00537
-0.00428
-0.00256
-0.00037
0.00093
0.00066
-0.00034
-0.00088
-0.00068
-0.00015
0.00071
0.00258
0.00566
0.00900
0.01132
0.01181
0.01018
0.00694
0.00350
0.00070
-0.00255
-0.00789
-0.01455
-0.01929
-0.01956
-0.01587
-0.01050
-0.00498
0.00023
0.00444
0.00623
0.00450
0.00019
-0.00294
-0.00038
0.00877
0.01947
0.02454
0.02165
0.01504
0.00953
0.00521
-0.00007
-0.00557
-0.00866
-0.00941
-0.01033
-0.01211
-0.01303
-0.01206
-0.01015
-0.00869
-0.00857
-0.00999
-0.01200
-0.01289
-0.01205
-0.01011
-0.00693
-0.00150
0.00592
0.01340
0.01976
0.02561
0.03153
0.03680
0.04031
0.04150
0.04009
0.03577
0.02814
0.01685
0.00190
-0.01604
-0.03611
-0.05760
-0.07913
-0.09867
-0.11525
-0.12819
-0.13284
-0.12117
-0.08869
-0.03508
0.04417
0.15374
0.27582
0.36242
0.36725
0.28447
0.14872
0.00331
-0.12240
-0.21396
-0.26800
-0.28913
-0.28158
-0.24336
-0.17335
-0.08186
0.01114
0.08729
0.13709
0.15950
0.15896
0.14249
0.11718
0.08865
0.06036
0.03340
0.00782
-0.01498
-0.03262
-0.04467
-0.05273
-0.05720
-0.05669
-0.05135
-0.04361
-0.03493
-0.02450
-0.01238
-0.00146
0.00540
0.00900
0.01281
0.01842
0.02357
0.02520
0.02313
0.01947
0.01552
0.01157
0.00822
0.00568
0.00262
-0.00200
-0.00655
-0.00865
-0.00879
-0.00943
-0.01078
-0.01056
-0.00813
-0.00580
-0.00513
-0.00455
-0.00216
0.00142
0.00431
0.00580
0.00613
0.00530
0.00355
0.00177
0.00065
0.00026
0.00065
0.00167
0.00223
0.00117
-0.00101
-0.00246
-0.00234
-0.00164
-0.00131
-0.00087
0.00018
0.00108
0.00091
0.00007
-0.00041
-0.00036
-0.00032
-0.00044
-0.00038
-0.00003
0.00024
0.00030
0.00056
0.00125
0.00162
0.00070
-0.00122
-0.00268
-0.00271
-0.00180
-0.00117
-0.00137
-0.00140
0.00031
0.00354
0.00563
0.00467
0.00227
0.00125
0.00148
0.00061
-0.00166
-0.00328
-0.00352
-0.00367
-0.00388
-0.00282
-0.00073
0.00041
0.00044
0.00140
0.00367
0.00488
0.00342
0.00072
-0.00107
-0.00168
-0.00229
-0.00344
-0.00404
-0.00254
0.00074
0.00316
0.00286
0.00136
0.00130
0.00246
0.00250
0.00113
0.00053
0.00153
0.00198
-0.00010
-0.00347
-0.00530
-0.00472
-0.00340
-0.00279
-0.00227
-0.00088
0.00084
0.00193
0.00267
0.00360
0.00404
0.00318
0.00156
0.00013
-0.00121
-0.00262
-0.00310
-0.00180
0.00022
0.00123
0.00149
0.00248
0.00390
0.00365
0.00114
-0.00149
-0.00236
-0.00197
-0.00182
-0.00230
-0.00247
-0.00157
-0.00038
-0.00081
-0.00343
-0.00606
-0.00623
-0.00428
-0.00228
-0.00055
0.00242
0.00671
0.01013
0.01130
0.01139
0.01172
0.01128
0.00825
0.00307
-0.00159
-0.00408
-0.00596
-0.01000
-0.01616
-0.02067
-0.02007
-0.01526
-0.00963
-0.00446
0.00094
0.00555
0.00640
0.00294
-0.00033
0.00287
0.01376
0.02561
0.02945
0.02317
0.01312
0.00635
0.00351
0.00021
-0.00636
-0.01363
-0.01683
-0.01466
-0.01074
-0.00911
-0.01016
-0.01164
-0.01210
-0.01183
-0.01146
-0.01097
-0.00993
-0.00800
-0.00489
-0.00068
0.00390
0.00803
0.01201
0.01718
0.02370
0.02956
0.03313
0.03564
0.03880
0.04067
0.03714
0.02727
0.01425
0.00061
-0.01458
-0.03307
-0.05442
-0.07659
-0.09802
-0.11770
-0.13268
-0.13668
-0.12326
-0.08980
-0.03501
0.04618
0.15608
0.27659
0.36462
0.37600
0.29783
0.15733
0.00160
-0.13008
-0.22112
-0.27436
-0.29702
-0.28899
-0.24624
-0.17220
-0.08071
0.01089
0.08751
0.13838
0.16027
0.15904
0.14404
0.12129
0.09343
0.06348
0.03488
0.00897
-0.01422
-0.03340
-0.04650
-0.05336
-0.05589
-0.05573
-0.05316
-0.04786
-0.03921
-0.02683
-0.01237
0.00011
0.00754
0.01103
0.01418
0.01842
0.02174
0.02205
0.01987
0.01721
0.01527
0.01363
0.01112
0.00708
0.00233
-0.00139
-0.00333
-0.00461
-0.00649
-0.00862
-0.00973
-0.00956
-0.00909
-0.00885
-0.00792
-0.00532
-0.00182
0.00082
0.00195
0.00230
0.00235
0.00202
0.00164
0.00186
0.00255
0.00299
0.00298
0.00275
0.00254
0.00259
0.00290
0.00290
0.00203
0.00060
-0.00057
-0.00119
-0.00162
-0.00216
-0.00266
-0.00284
-0.00280
-0.00305
-0.00363
-0.00375
-0.00270
-0.00099
0.00037
0.00141
0.00294
0.00490
0.00571
0.00386
0.00014
-0.00226
-0.00109
0.00186
0.00276
0.00065
-0.00170
-0.00208
-0.00127
-0.00085
-0.00087
-0.00074
-0.00053
-0.00046
-0.00040
-0.00049
-0.00108
-0.00158
-0.00078
0.00121
0.00268
0.00253
0.00146
0.00061
0.00010
-0.00035
-0.00076
-0.00109
-0.00131
-0.00107
-0.00024
0.00042
0.00011
-0.00070
-0.00102
-0.00074
-0.00012
0.00111
0.00270
0.00319
0.00176
-0.00011
-0.00052
0.00030
0.00068
-0.00017
-0.00178
-0.00343
-0.00414
-0.00273
0.00053
0.00318
0.00292
0.00029
-0.00206
-0.00230
-0.00072
0.00121
0.00219
0.00171
0.00025
-0.00134
-0.00244
-0.00229
0.00024
0.00480
0.00836
0.00791
0.00416
0.00035
-0.00178
-0.00304
-0.00439
-0.00591
-0.00756
-0.00891
-0.00846
-0.00538
-0.00136
0.00102
0.00150
0.00200
0.00368
0.00557
0.00626
0.00566
0.00498
0.00549
0.00760
0.01029
0.01142
0.00928
0.00418
-0.00197
-0.00766
-0.01265
-0.01669
-0.01883
-0.01847
-0.01613
-0.01224
-0.00653
0.00049
0.00645
0.00866
0.00679
0.00348
0.00270
0.00675
0.01397
0.01968
0.02023
0.01614
0.01083
0.00671
0.00355
0.00002
-0.00434
-0.00877
-0.01230
-0.01435
-0.01477
-0.01381
-0.01223
-0.01122
-0.01139
-0.01193
-0.01119
-0.00857
-0.00541
-0.00345
-0.00265
-0.00126
0.00191
0.00634
0.01121
0.01676
0.02325
0.02987
0.03542
0.03912
0.04011
0.03776
0.03260
0.02536
0.01507
0.00014
-0.01869
-0.03921
-0.06073
-0.08338
-0.10492
-0.12161
-0.13083
-0.12958
-0.11279
-0.07656
-0.01913
0.06378
0.17452
0.29372
0.37338
0.36695
0.26959
0.12126
-0.02778
-0.14730
-0.22965
-0.27773
-0.29532
-0.28275
-0.23812
-0.16346
-0.06933
0.02661
0.10518
0.15274
0.16745
0.15905
0.13997
0.11646
0.08906
0.05878
0.02902
0.00241
-0.02047
-0.03872
-0.05066
-0.05617
-0.05732
-0.05610
-0.05285
-0.04711
-0.03834
-0.02636
-0.01240
0.00069
0.01042
0.01674
0.02103
0.02395
0.02511
0.02440
0.02226
0.01887
0.01425
0.00907
0.00445
0.00091
-0.00181
-0.00400
-0.00572
-0.00710
-0.00815
-0.00851
-0.00797
-0.00674
-0.00536
-0.00459
-0.00499
-0.00575
-0.00490
-0.00179
0.00173
0.00367
0.00422
0.00460
0.00509
0.00519
0.00475
0.00399
0.00302
0.00192
0.00077
-0.00066
-0.00243
-0.00383
-0.00404
-0.00339
-0.00278
-0.00214
-0.00077
0.00097
0.00177
0.00137
0.00104
0.00179
0.00278
0.00235
0.00038
-0.00117
-0.00079
0.00045
0.00038
-0.00122
-0.00252
-0.00235
-0.00146
-0.00093
-0.00074
-0.00044
-0.00003
0.00021
0.00037
0.00069
0.00104
0.00120
0.00144
0.00209
0.00265
0.00210
0.00042
-0.00104
-0.00111
-0.00013
0.00057
0.00004
-0.00166
-0.00349
-0.00383
-0.00194
0.00082
0.00196
0.00069
-0.00112
-0.00125
0.00022
0.00139
0.00111
0.00019
0.00004
0.00063
0.00075
0.00003
-0.00022
0.00106
0.00291
0.00327
0.00154
-0.00082
-0.00200
-0.00161
-0.00063
-0.00022
-0.00079
-0.00185
-0.00249
-0.00216
-0.00127
-0.00079
-0.00102
-0.00118
-0.00050
0.00077
0.00184
0.00235
0.00249
0.00258
0.00267
0.00241
0.00144
0.00035
0.00037
0.00143
0.00176
0.00026
-0.00176
-0.00264
-0.00265
-0.00282
-0.00300
-0.00278
-0.00285
-0.00354
-0.00362
-0.00220
-0.00044
0.00036
0.00075
0.00167
0.00248
0.00210
0.00122
0.00171
0.00426
0.00761
0.00988
0.01014
0.00880
0.00684
0.00461
0.00113
-0.00462
-0.01165
-0.01718
-0.01944
-0.01894
-0.01629
-0.01083
-0.00288
0.00449
0.00786
0.00670
0.00317
0.00025
0.00097
0.00691
0.01554
0.02116
0.02034
0.01480
0.00822
0.00267
-0.00116
-0.00309
-0.00413
-0.00604
-0.00877
-0.01019
-0.00935
-0.00809
-0.00835
-0.00973
-0.01074
-0.01137
-0.01265
-0.01432
-0.01426
-0.01084
-0.00540
-0.00093
0.00200
0.00635
0.01423
0.02328
0.02954
0.03240
0.03431
0.03677
0.03881
0.03865
0.03490
0.02649
0.01347
-0.00257
-0.02051
-0.04123
-0.06551
-0.09075
-0.11179
-0.12532
-0.13087
-0.12645
-0.10638
-0.06584
-0.00339
0.08308
0.19267
0.30400
0.37054
0.35082
0.24537
0.09594
-0.04905
-0.16199
-0.23716
-0.27893
-0.29148
-0.27414
-0.22400
-0.14379
-0.04707
0.04505
0.11357
0.15061
0.16082
0.15368
0.13543
0.10892
0.07797
0.04767
0.02081
-0.00270
-0.02282
-0.03809
-0.04750
-0.05188
-0.05282
-0.05117
-0.04697
-0.04029
-0.03180
-0.02248
-0.01313
-0.00423
0.00386
0.01057
0.01543
0.01857
0.02074
0.02248
0.02355
0.02340
0.02167
0.01803
0.01232
0.00534
-0.00124
-0.00630
-0.01001
-0.01257
-0.01332
-0.01195
-0.00990
-0.00895
-0.00873
-0.00734
-0.00426
-0.00118
0.00051
0.00137
0.00246
0.00363
0.00434
0.00481
0.00537
0.00539
0.00426
0.00276
0.00220
0.00246
0.00222
0.00094
-0.00058
-0.00169
-0.00276
-0.00426
-0.00567
-0.00597
-0.00494
-0.00326
-0.00145
0.00056
0.00265
0.00408
0.00439
0.00413
0.00407
0.00381
0.00222
-0.00073
-0.00312
-0.00321
-0.00179
-0.00110
-0.00171
-0.00220
-0.00154
-0.00036
0.00034
0.00054
0.00093
0.00181
0.00245
0.00184
0.00006
-0.00156
-0.00215
-0.00216
-0.00205
-0.00121
0.00070
0.00255
0.00304
0.00238
0.00185
0.00207
0.00222
0.00115
-0.00108
-0.00308
-0.00378
-0.00351
-0.00311
-0.00274
-0.00216
-0.00142
-0.00050
0.00099
0.00290
0.00401
0.00357
0.00236
0.00155
0.00125
0.00111
0.00121
0.00144
0.00089
-0.00110
-0.00350
-0.00430
-0.00277
-0.00050
0.00033
-0.00054
-0.00146
-0.00117
-0.00018
0.00042
0.00050
0.00058
0.00058
0.00003
-0.00077
-0.00077
0.00019
0.00103
0.00098
0.00079
0.00157
0.00317
0.00448
0.00477
0.00387
0.00160
-0.00169
-0.00443
-0.00508
-0.00380
-0.00222
-0.00182
-0.00290
-0.00440
-0.00455
-0.00271
-0.00049
-0.00008
-0.00145
-0.00241
-0.00141
0.00095
0.00335
0.00542
0.00754
0.00980
0.01162
0.01217
0.01082
0.00762
0.00346
-0.00066
-0.00464
-0.00921
-0.01437
-0.01867
-0.02025
-0.01848
-0.01396
-0.00769
-0.00088
0.00464
0.00705
0.00577
0.00247
0.00093
0.00458
0.01308
0.02155
0.02455
0.02068
0.01300
0.00543
-0.00029
-0.00436
-0.00718
-0.00858
-0.00863
-0.00832
-0.00865
-0.00934
-0.00954
-0.00949
-0.01019
-0.01160
-0.01251
-0.01214
-0.01081
-0.00929
-0.00791
-0.00628
-0.00354
0.00098
0.00746
0.01558
0.02449
0.03298
0.03988
0.04424
0.04521
0.04252
0.03691
0.02887
0.01770
0.00290
-0.01453
-0.03357
-0.05475
-0.07820
-0.10101
-0.11890
-0.12962
-0.13192
-0.12162
-0.09238
-0.04045
0.03507
0.13436
0.24847
0.34562
0.37853
0.31915
0.18529
0.02712
-0.10992
-0.20631
-0.26305
-0.28760
-0.28498
-0.25486
-0.19470
-0.10830
-0.01132
0.07430
0.13264
0.16043
0.16335
0.14933
0.12551
0.09750
0.06864
0.04034
0.01393
-0.00882
-0.02703
-0.04101
-0.05100
-0.05649
-0.05730
-0.05438
-0.04919
-0.04230
-0.03314
-0.02152
-0.00882
0.00284
0.01216
0.01894
0.02326
0.02511
0.02470
0.02276
0.02037
0.01816
0.01561
0.01162
0.00602
0.00030
-0.00365
-0.00552
-0.00686
-0.00903
-0.01130
-0.01177
-0.01000
-0.00756
-0.00601
-0.00520
-0.00410
-0.00236
-0.00071
0.00021
0.00090
0.00241
0.00478
0.00664
0.00683
0.00576
0.00439
0.00284
0.00091
-0.00069
-0.00103
-0.00044
-0.00026
-0.00097
-0.00182
-0.00230
-0.00268
-0.00305
-0.00289
-0.00196
-0.00065
0.00073
0.00215
0.00327
0.00359
0.00302
0.00170
-0.00037
-0.00278
-0.00414
-0.00321
-0.00090
0.00032
-0.00034
-0.00068
0.00105
0.00308
0.00249
-0.00015
-0.00125
0.00058
0.00250
0.00181
-0.00036
-0.00133
-0.00082
-0.00047
-0.00079
-0.00101
-0.00094
-0.00123
-0.00176
-0.00146
0.00004
0.00185
0.00301
0.00312
0.00198
0.00008
-0.00115
-0.00102
-0.00084
-0.00174
-0.00245
-0.00131
0.00045
0.00018
-0.00192
-0.00264
-0.00021
0.00331
0.00478
0.00349
0.00122
-0.00008
0.00009
0.00115
0.00215
0.00217
0.00060
-0.00221
-0.00477
-0.00555
-0.00446
-0.00269
-0.00133
-0.00048
0.00025
0.00092
0.00138
0.00164
0.00183
0.00197
0.00200
0.00195
0.00186
0.00170
0.00142
0.00104
0.00063
0.00006
-0.00081
-0.00179
-0.00228
-0.00179
-0.00037
0.00123
0.00198
0.00130
-0.00034
-0.00185
-0.00273
-0.00344
-0.00424
-0.00440
-0.00350
-0.00254
-0.00251
-0.00215
0.00039
0.00401
0.00545
0.00417
0.00346
0.00572
0.00922
0.01084
0.01013
0.00870
0.00713
0.00434
-0.00038
-0.00651
-0.01321
-0.01939
-0.02288
-0.02174
-0.01656
-0.01003
-0.00376
0.00271
0.00885
0.01132
0.00765
0.00121
-0.00028
0.00710
0.01846
0.02521
0.02373
0.01713
0.00990
0.00385
-0.00134
-0.00653
-0.01204
-0.01636
-0.01708
-0.01410
-0.01044
-0.00846
-0.00739
-0.00588
-0.00467
-0.00509
-0.00677
-0.00828
-0.00875
-0.00814
-0.00670
-0.00465
-0.00151
0.00391
0.01155
0.01928
0.02535
0.03054
0.03587
0.03979
0.04009
0.03705
0.03207
0.02437
0.01203
-0.00455
-0.02282
-0.04161
-0.06183
-0.08345
-0.10379
-0.11944
-0.12770
-0.12480
-0.10529
-0.06543
-0.00450
0.07874
0.18335
0.29110
0.35971
0.34710
0.24845
0.10223
-0.04201
-0.15550
-0.23286
-0.27729
-0.29054
-0.27225
-0.22260
-0.14581
-0.05288
0.03886
0.11117
0.15291
0.16472
0.15572
0.13556
0.10987
0.08129
0.05162
0.02256
-0.00399
-0.02598
-0.04218
-0.05246
-0.05710
-0.05653
-0.05212
-0.04570
-0.03819
-0.02959
-0.02009
-0.01026
-0.00075
0.00736
0.01314
0.01709
0.02048
0.02289
0.02250
0.01914
0.01522
0.01272
0.01121
0.00936
0.00670
0.00325
-0.00091
-0.00489
-0.00750
-0.00895
-0.01044
-0.01191
-0.01197
-0.01014
-0.00734
-0.00443
-0.00171
0.00040
0.00142
0.00153
0.00165
0.00260
0.00425
0.00569
0.00622
0.00560
0.00364
0.00049
-0.00239
-0.00314
-0.00158
0.00052
0.00153
0.00130
0.00060
0.00001
-0.00028
-0.00036
-0.00045
-0.00060
-0.00051
-0.00012
-0.00033
-0.00216
-0.00483
-0.00577
-0.00344
0.00060
0.00333
0.00363
0.00274
0.00207
0.00173
0.00132
0.00078
0.00030
-0.00005
-0.00020
-0.00026
-0.00046
-0.00065
-0.00027
0.00037
-0.00008
-0.00195
-0.00325
-0.00216
0.00036
0.00196
0.00199
0.00155
0.00151
0.00181
0.00198
0.00123
-0.00091
-0.00339
-0.00422
-0.00261
0.00001
0.00152
0.00096
-0.00080
-0.00192
-0.00139
0.00010
0.00142
0.00243
0.00296
0.00186
-0.00083
-0.00247
-0.00105
0.00152
0.00198
0.00046
-0.00022
0.00104
0.00249
0.00237
0.00071
-0.00159
-0.00360
-0.00438
-0.00347
-0.00165
-0.00021
0.00043
0.00070
0.00085
0.00072
0.00030
-0.00025
-0.00093
-0.00176
-0.00222
-0.00146
0.00068
0.00321
0.00491
0.00557
0.00561
0.00476
0.00249
-0.00025
-0.00152
-0.00104
-0.00086
-0.00254
-0.00495
-0.00606
-0.00565
-0.00494
-0.00460
-0.00425
-0.00349
-0.00249
-0.00149
-0.00051
0.00062
0.00223
0.00479
0.00842
0.01239
0.01526
0.01572
0.01340
0.00886
0.00339
-0.00149
-0.00561
-0.01058
-0.01688
-0.02161
-0.02170
-0.01819
-0.01389
-0.00859
-0.00105
0.00616
0.00866
0.00644
0.00363
0.00339
0.00639
0.01216
0.01866
0.02187
0.01911
0.01214
0.00520
0.00075
-0.00173
-0.00381
-0.00616
-0.00857
-0.01057
-0.01178
-0.01205
-0.01184
-0.01180
-0.01178
-0.01106
-0.00981
-0.00925
-0.00992
-0.01039
-0.00882
-0.00503
-0.00005
0.00558
0.01185
0.01835
0.02464
0.03104
0.03758
0.04269
0.04430
0.04184
0.03600
0.02695
0.01419
-0.00194
-0.02000
-0.03920
-0.06013
-0.08287
-0.10481
-0.12164
-0.13016
-0.12838
-0.11312
-0.07940
-0.02239
0.06085
0.16742
0.27894
0.35714
0.36118
0.27867
0.13809
-0.01255
-0.13711
-0.22319
-0.27296
-0.29072
-0.27796
-0.23470
-0.16376
-0.07452
0.01738
0.09440
0.14349
0.16154
0.15605
0.13852
0.11581
0.08868
0.05781
0.02749
0.00203
-0.01801
-0.03403
-0.04603
-0.05285
-0.05432
-0.05168
-0.04644
-0.03965
-0.03188
-0.02341
-0.01450
-0.00565
0.00238
0.00874
0.01327
0.01675
0.01974
0.02157
0.02125
0.01935
0.01738
0.01547
0.01213
0.00692
0.00180
-0.00135
-0.00332
-0.00607
-0.00944
-0.01127
-0.01062
-0.00896
-0.00786
-0.00737
-0.00690
-0.00603
-0.00416
-0.00096
0.00254
0.00469
0.00512
0.00486
0.00471
0.00446
0.00369
0.00239
0.00089
-0.00032
-0.00069
0.00004
0.00135
0.00207
0.00126
-0.00064
-0.00200
-0.00166
-0.00038
0.00008
-0.00098
-0.00253
-0.00292
-0.00162
0.00019
0.00092
0.00033
-0.00038
-0.00046
-0.00056
-0.00123
-0.00140
0.00028
0.00294
0.00404
0.00249
0.00000
-0.00108
-0.00031
0.00094
0.00114
-0.00007
-0.00164
-0.00217
-0.00136
-0.00026
0.00025
0.00053
0.00126
0.00205
0.00175
0.00012
-0.00171
-0.00276
-0.00298
-0.00241
-0.00089
0.00116
0.00263
0.00297
0.00245
0.00133
-0.00039
-0.00226
-0.00326
-0.00258
-0.00040
0.00190
0.00238
0.00041
-0.00199
-0.00193
0.00085
0.00333
0.00300
0.00099
0.00003
0.00059
0.00102
0.00068
0.00051
0.00044
-0.00094
-0.00355
-0.00517
-0.00436
-0.00233
-0.00088
-0.00019
0.00046
0.00119
0.00161
0.00173
0.00186
0.00195
0.00180
0.00152
0.00137
0.00110
0.00034
-0.00053
-0.00060
0.00016
0.00084
0.00116
0.00171
0.00241
0.00218
0.00058
-0.00154
-0.00323
-0.00439
-0.00540
-0.00652
-0.00744
-0.00717
-0.00510
-0.00195
0.00083
0.00281
0.00448
0.00584
0.00631
0.00621
0.00688
0.00893
0.01121
0.01208
0.01087
0.00779
0.00338
-0.00173
-0.00730
-0.01353
-0.01982
-0.02405
-0.02412
-0.02012
-0.01365
-0.00570
0.00319
0.01087
0.01371
0.01014
0.00370
0.00142
0.00749
0.01829
0.02500
0.02250
0.01423
0.00701
0.00323
0.00058
-0.00292
-0.00708
-0.01137
-0.01504
-0.01641
-0.01453
-0.01111
-0.00882
-0.00829
-0.00832
-0.00824
-0.00823
-0.00810
-0.00713
-0.00529
-0.00355
-0.00226
-0.00007
0.00451
0.01078
0.01650
0.02126
0.02708
0.03459
0.04083
0.04281
0.04111
0.03751
0.03084
0.01829
-0.00020
-0.02161
-0.04344
-0.06556
-0.08856
-0.11125
-0.12965
-0.13837
-0.13267
-0.10988
-0.06883
-0.00730
0.07967
0.19175
0.30662
0.37733
0.36134
0.25670
0.10437
-0.04497
-0.16100
-0.23702
-0.27787
-0.28974
-0.27495
-0.23140
-0.15816
-0.06350
0.03307
0.10919
0.15224
0.16458
0.15704
0.13883
0.11410
0.08526
0.05568
0.02831
0.00387
-0.01774
-0.03561
-0.04839
-0.05573
-0.05835
-0.05718
-0.05307
-0.04658
-0.03775
-0.02691
-0.01545
-0.00494
0.00436
0.01307
0.02105
0.02681
0.02906
0.02828
0.02617
0.02343
0.01896
0.01208
0.00440
-0.00138
-0.00422
-0.00525
-0.00607
-0.00738
-0.00896
-0.01021
-0.01067
-0.01021
-0.00919
-0.00816
-0.00704
-0.00483
-0.00108
0.00281
0.00483
0.00453
0.00355
0.00400
0.00619
0.00797
0.00708
0.00405
0.00140
0.00043
0.00020
-0.00053
-0.00195
-0.00340
-0.00394
-0.00318
-0.00208
-0.00202
-0.00280
-0.00276
-0.00105
0.00132
0.00272
0.00260
0.00171
0.00087
0.00002
-0.00112
-0.00183
-0.00100
0.00095
0.00221
0.00187
0.00098
0.00097
0.00163
0.00149
-0.00013
-0.00214
-0.00298
-0.00247
-0.00166
-0.00122
-0.00089
-0.00038
0.00017
0.00056
0.00087
0.00120
0.00143
0.00152
0.00158
0.00162
0.00147
0.00116
0.00099
0.00099
0.00042
-0.00137
-0.00390
-0.00580
-0.00584
-0.00391
-0.00116
0.00079
0.00140
0.00179
0.00334
0.00545
0.00579
0.00340
0.00057
-0.00004
0.00089
0.00044
-0.00193
-0.00368
-0.00328
-0.00218
-0.00202
-0.00222
-0.00158
-0.00042
0.00016
0.00001
-0.00027
-0.00031
0.00013
0.00143
0.00338
0.00445
0.00317
0.00044
-0.00094
0.00035
0.00241
0.00281
0.00149
-0.00001
-0.00100
-0.00192
-0.00302
-0.00398
-0.00454
-0.00482
-0.00485
-0.00454
-0.00381
-0.00272
-0.00133
0.00035
0.00222
0.00415
0.00608
0.00785
0.00924
0.01007
0.01035
0.00994
0.00842
0.00571
0.00225
-0.00200
-0.00794
-0.01538
-0.02135
-0.02262
-0.01947
-0.01480
-0.00983
-0.00312
0.00541
0.01209
0.01269
0.00750
0.00199
0.00211
0.00871
0.01678
0.02011
0.01696
0.01087
0.00606
0.00320
0.00009
-0.00432
-0.00841
-0.01031
-0.01025
-0.00953
-0.00891
-0.00887
-0.00981
-0.01111
-0.01135
-0.01007
-0.00822
-0.00693
-0.00654
-0.00650
-0.00552
-0.00256
0.00188
0.00656
0.01149
0.01756
0.02432
0.03018
0.03475
0.03869
0.04114
0.03977
0.03355
0.02346
0.01023
-0.00630
-0.02549
-0.04576
-0.06609
-0.08631
-0.10577
-0.12225
-0.13126
-0.12619
-0.10169
-0.05740
0.00591
0.09271
0.20376
0.31451
0.37428
0.34239
0.22525
0.07050
-0.07205
-0.17813
-0.24623
-0.28212
-0.28903
-0.26580
-0.21063
-0.12788
-0.03163
0.05806
0.12368
0.15740
0.16278
0.15017
0.12902
0.10356
0.07456
0.04371
0.01494
-0.00829
-0.02545
-0.03832
-0.04834
-0.05516
-0.05759
-0.05531
-0.04918
-0.04030
-0.02962
-0.01833
-0.00786
0.00094
0.00794
0.01336
0.01770
0.02171
0.02520
0.02657
0.02454
0.01997
0.01463
0.00914
0.00367
-0.00038
-0.00202
-0.00311
-0.00619
-0.01017
-0.01136
-0.00911
-0.00708
-0.00799
-0.01009
-0.01005
-0.00699
-0.00240
0.00230
0.00633
0.00864
0.00808
0.00510
0.00207
0.00100
0.00141
0.00137
0.00009
-0.00134
-0.00149
-0.00034
0.00080
0.00086
0.00020
-0.00024
-0.00039
-0.00066
-0.00072
-0.00009
0.00041
-0.00042
-0.00208
-0.00263
-0.00125
0.00085
0.00224
0.00275
0.00249
0.00120
-0.00074
-0.00199
-0.00187
-0.00112
-0.00068
-0.00067
-0.00070
-0.00048
-0.00001
0.00009
-0.00051
-0.00062
0.00126
0.00399
0.00428
0.00120
-0.00214
-0.00288
-0.00178
-0.00078
0.00008
0.00101
0.00102
0.00019
0.00049
0.00210
0.00230
-0.00002
-0.00241
-0.00281
-0.00216
-0.00193
-0.00204
-0.00199
-0.00164
-0.00048
0.00179
0.00414
0.00515
0.00451
0.00250
-0.00059
-0.00341
-0.00374
-0.00114
0.00175
0.00226
0.00079
-0.00045
-0.00068
-0.00109
-0.00238
-0.00361
-0.00362
-0.00274
-0.00183
-0.00039
0.00257
0.00579
0.00607
0.00276
-0.00047
-0.00005
0.00283
0.00432
0.00314
0.00118
-0.00011
-0.00130
-0.00321
-0.00540
-0.00684
-0.00708
-0.00604
-0.00379
-0.00116
0.00015
-0.00074
-0.00230
-0.00213
0.00015
0.00295
0.00536
0.00788
0.01070
0.01282
0.01337
0.01228
0.00947
0.00481
-0.00077
-0.00557
-0.00919
-0.01297
-0.01745
-0.02092
-0.02124
-0.01797
-0.01185
-0.00361
0.00499
0.01032
0.00967
0.00461
0.00071
0.00328
0.01256
0.02246
0.02518
0.01893
0.00993
0.00493
0.00338
-0.00001
-0.00650
-0.01164
-0.01232
-0.01092
-0.01043
-0.00987
-0.00742
-0.00485
-0.00501
-0.00712
-0.00829
-0.00823
-0.00886
-0.01035
-0.01091
-0.00981
-0.00765
-0.00419
0.00154
0.00918
0.01692
0.02364
0.03018
0.03758
0.04449
0.04756
0.04482
0.03749
0.02754
0.01509
-0.00053
-0.01862
-0.03800
-0.05889
-0.08168
-0.10423
-0.12273
-0.13400
-0.13441
-0.11834
-0.08179
-0.02517
0.05269
0.15628
0.27539
0.36801
0.38081
0.29559
0.14667
-0.01043
-0.13777
-0.22388
-0.27151
-0.28762
-0.27844
-0.24474
-0.18265
-0.09375
0.00621
0.09261
0.14724
0.16773
0.16374
0.14680
0.12354
0.09566
0.06398
0.03160
0.00299
-0.01914
-0.03518
-0.04681
-0.05486
-0.05902
-0.05881
-0.05416
-0.04543
-0.03387
-0.02174
-0.01113
-0.00259
0.00440
0.01031
0.01542
0.01978
0.02278
0.02379
0.02309
0.02139
0.01857
0.01382
0.00729
0.00094
-0.00282
-0.00371
-0.00412
-0.00631
-0.00965
-0.01178
-0.01153
-0.00935
-0.00583
-0.00178
0.00109
0.00158
0.00070
0.00024
0.00040
0.00013
-0.00082
-0.00143
-0.00082
0.00061
0.00158
0.00160
0.00157
0.00222
0.00291
0.00321
0.00385
0.00475
0.00394
0.00069
-0.00242
-0.00294
-0.00220
-0.00274
-0.00400
-0.00357
-0.00134
0.00037
0.00041
-0.00008
-0.00001
0.00034
0.00043
0.00036
0.00040
0.00050
0.00049
0.00038
0.00027
0.00021
0.00016
0.00006
-0.00008
-0.00008
0.00010
0.00020
0.00013
0.00038
0.00119
0.00158
0.00046
-0.00150
-0.00246
-0.00188
-0.00090
-0.00035
0.00008
0.00066
0.00107
0.00142
0.00217
0.00268
0.00159
-0.00082
-0.00222
-0.00137
-0.00024
-0.00136
-0.00395
-0.00465
-0.00205
0.00159
0.00358
0.00341
0.00192
0.00007
-0.00072
0.00055
0.00260
0.00315
0.00185
0.00018
-0.00121
-0.00267
-0.00358
-0.00300
-0.00183
-0.00187
-0.00266
-0.00185
0.00113
0.00401
0.00463
0.00338
0.00229
0.00264
0.00368
0.00334
0.00073
-0.00242
-0.00359
-0.00278
-0.00216
-0.00303
-0.00472
-0.00607
-0.00627
-0.00488
-0.00244
-0.00037
0.00066
0.00144
0.00282
0.00462
0.00627
0.00766
0.00879
0.00951
0.00970
0.00916
0.00756
0.00486
0.00153
-0.00257
-0.00841
-0.01572
-0.02167
-0.02340
-0.02088
-0.01571
-0.00842
0.00060
0.00877
0.01224
0.00960
0.00392
0.00100
0.00507
0.01455
0.02249
0.02288
0.01643
0.00852
0.00276
-0.00117
-0.00459
-0.00787
-0.01075
-0.01228
-0.01116
-0.00805
-0.00579
-0.00585
-0.00665
-0.00660
-0.00653
-0.00751
-0.00864
-0.00865
-0.00820
-0.00850
-0.00872
-0.00671
-0.00187
0.00445
0.01103
0.01784
0.02489
0.03145
0.03664
0.03997
0.04107
0.03929
0.03410
0.02543
0.01338
-0.00216
-0.02108
-0.04219
-0.06373
-0.08466
-0.10478
-0.12273
-0.13388
-0.13133
-0.11009
-0.06932
-0.00768
0.08076
0.19592
0.31180
0.37746
0.35226
0.24128
0.08997
-0.05362
-0.16518
-0.24031
-0.28070
-0.28908
-0.26850
-0.21963
-0.14279
-0.04695
0.04675
0.11610
0.15224
0.16109
0.15279
0.13364
0.10703
0.07681
0.04672
0.01884
-0.00551
-0.02456
-0.03733
-0.04510
-0.04997
-0.05246
-0.05163
-0.04719
-0.04023
-0.03211
-0.02353
-0.01456
-0.00519
0.00433
0.01322
0.02020
0.02413
0.02501
0.02401
0.02207
0.01888
0.01419
0.00929
0.00578
0.00321
-0.00013
-0.00411
-0.00670
-0.00717
-0.00717
-0.00799
-0.00887
-0.00865
-0.00751
-0.00620
-0.00485
-0.00320
-0.00139
0.00011
0.00124
0.00226
0.00309
0.00320
0.00259
0.00215
0.00249
0.00305
0.00321
0.00329
0.00363
0.00358
0.00235
0.00007
-0.00234
-0.00381
-0.00380
-0.00296
-0.00265
-0.00317
-0.00336
-0.00203
0.00066
0.00338
0.00448
0.00323
0.00074
-0.00096
-0.00110
-0.00061
-0.00050
-0.00062
-0.00049
-0.00024
-0.00020
-0.00018
0.00011
0.00040
0.00036
0.00043
0.00120
0.00179
0.00069
-0.00158
-0.00252
-0.00107
0.00080
0.00098
-0.00013
-0.00071
0.00013
0.00158
0.00188
0.00021
-0.00171
-0.00134
0.00092
0.00194
0.00040
-0.00158
-0.00186
-0.00074
0.00035
0.00061
0.00001
-0.00097
-0.00171
-0.00211
-0.00233
-0.00190
0.00003
0.00309
0.00539
0.00518
0.00282
0.00081
0.00117
0.00262
0.00184
-0.00204
-0.00583
-0.00637
-0.00461
-0.00344
-0.00298
-0.00112
0.00210
0.00372
0.00220
-0.00034
-0.00114
0.00003
0.00193
0.00412
0.00629
0.00668
0.00390
-0.00021
-0.00222
-0.00160
-0.00101
-0.00213
-0.00381
-0.00470
-0.00502
-0.00515
-0.00466
-0.00364
-0.00316
-0.00343
-0.00307
-0.00086
0.00265
0.00602
0.00829
0.00918
0.00895
0.00868
0.00937
0.01026
0.00917
0.00549
0.00121
-0.00221
-0.00635
-0.01298
-0.01983
-0.02227
-0.01941
-0.01512
-0.01180
-0.00694
0.00139
0.00947
0.01204
0.00912
0.00534
0.00483
0.00895
0.01605
0.02131
0.01982
0.01215
0.00424
0.00038
-0.00120
-0.00433
-0.00905
-0.01205
-0.01175
-0.01006
-0.00890
-0.00760
-0.00527
-0.00341
-0.00372
-0.00501
-0.00528
-0.00541
-0.00771
-0.01150
-0.01334
-0.01131
-0.00677
-0.00178
0.00338
0.01001
0.01890
0.02863
0.03614
0.03941
0.03949
0.03917
0.03924
0.03657
0.02730
0.01171
-0.00604
-0.02358
-0.04304
-0.06653
-0.09170
-0.11386
-0.12985
-0.13692
-0.13025
-0.10567
-0.06259
0.00116
0.09369
0.21497
0.33389
0.39346
0.35350
0.22623
0.06404
-0.08220
-0.18829
-0.25300
-0.28421
-0.28830
-0.26502
-0.21043
-0.12711
-0.03034
0.05780
0.12066
0.15367
0.16168
0.15248
0.13254
0.10588
0.07516
0.04328
0.01375
-0.01064
-0.02894
-0.04154
-0.04915
-0.05240
-0.05207
-0.04903
-0.04394
-0.03717
-0.02900
-0.01988
-0.01054
-0.00196
0.00520
0.01120
0.01666
0.02139
0.02417
0.02412
0.02159
0.01772
0.01360
0.00977
0.00617
0.00269
-0.00051
-0.00334
-0.00595
-0.00805
-0.00879
-0.00787
-0.00639
-0.00561
-0.00557
-0.00544
-0.00479
-0.00391
-0.00301
-0.00214
-0.00145
-0.00107
-0.00071
0.00025
0.00215
0.00472
0.00708
0.00806
0.00736
0.00612
0.00545
0.00466
0.00232
-0.00122
-0.00403
-0.00535
-0.00608
-0.00657
-0.00606
-0.00445
-0.00277
-0.00157
-0.00050
0.00064
0.00185
0.00338
0.00500
0.00540
0.00367
0.00090
-0.00093
-0.00121
-0.00095
-0.00100
-0.00116
-0.00103
-0.00080
-0.00070
-0.00053
-0.00008
0.00027
0.00033
0.00068
0.00161
0.00204
0.00091
-0.00086
-0.00163
-0.00167
-0.00229
-0.00301
-0.00218
-0.00004
0.00148
0.00188
0.00242
0.00346
0.00363
0.00210
-0.00009
-0.00137
-0.00136
-0.00097
-0.00127
-0.00243
-0.00337
-0.00285
-0.00098
0.00069
0.00093
0.00033
0.00037
0.00152
0.00289
0.00373
0.00383
0.00287
0.00046
-0.00242
-0.00381
-0.00322
-0.00226
-0.00209
-0.00180
-0.00063
0.00031
-0.00028
-0.00160
-0.00165
0.00023
0.00280
0.00444
0.00453
0.00366
0.00277
0.00207
0.00100
-0.00072
-0.00218
-0.00225
-0.00130
-0.00090
-0.00179
-0.00312
-0.00389
-0.00410
-0.00412
-0.00393
-0.00330
-0.00225
-0.00092
0.00062
0.00232
0.00410
0.00587
0.00747
0.00863
0.00926
0.00945
0.00897
0.00732
0.00457
0.00140
-0.00247
-0.00833
-0.01557
-0.02055
-0.02052
-0.01700
-0.01274
-0.00750
-0.00013
0.00721
0.01034
0.00782
0.00245
-0.00083
0.00214
0.01124
0.02058
0.02329
0.01850
0.01116
0.00509
-0.00033
-0.00591
-0.00962
-0.00984
-0.00840
-0.00796
-0.00864
-0.00883
-0.00784
-0.00626
-0.00497
-0.00478
-0.00593
-0.00770
-0.00897
-0.00945
-0.00952
-0.00912
-0.00721
-0.00266
0.00435
0.01201
0.01847
0.02367
0.02856
0.03297
0.03548
0.03548
0.03383
0.03112
0.02625
0.01717
0.00296
-0.01521
-0.03490
-0.05418
-0.07259
-0.09062
-0.10782
-0.12090
-0.12405
-0.11257
-0.08494
-0.03746
0.04043
0.15342
0.27694
0.35797
0.35262
0.26218
0.12655
-0.01141
-0.12791
-0.21412
-0.26654
-0.28475
-0.27038
-0.22464
-0.15045
-0.05875
0.03089
0.09920
0.13737
0.14892
0.14318
0.12800
0.10716
0.08193
0.05347
0.02439
-0.00140
-0.02101
-0.03443
-0.04328
-0.04837
-0.04956
-0.04751
-0.04367
-0.03871
-0.03193
-0.02274
-0.01218
-0.00240
0.00524
0.01091
0.01530
0.01848
0.01994
0.01948
0.01775
0.01577
0.01411
0.01250
0.01033
0.00716
0.00293
-0.00190
-0.00610
-0.00829
-0.00849
-0.00843
-0.00938
-0.01031
-0.00933
-0.00648
-0.00364
-0.00206
-0.00114
0.00004
0.00144
0.00256
0.00331
0.00389
0.00428
0.00436
0.00410
0.00362
0.00298
0.00215
0.00112
0.00002
-0.00102
-0.00209
-0.00330
-0.00440
-0.00462
-0.00339
-0.00110
0.00116
0.00263
0.00336
0.00335
0.00220
0.00005
-0.00184
-0.00234
-0.00168
-0.00088
-0.00043
-0.00014
0.00036
0.00122
0.00196
0.00166
0.00018
-0.00133
-0.00168
-0.00106
-0.00045
-0.00023
-0.00007
0.00022
0.00048
0.00060
0.00066
0.00069
0.00068
0.00063
0.00050
0.00022
-0.00010
-0.00030
-0.00060
-0.00131
-0.00196
-0.00148
0.00024
0.00172
0.00173
0.00091
0.00070
0.00108
0.00055
-0.00142
-0.00314
-0.00283
-0.00123
-0.00057
-0.00123
-0.00124
0.00054
0.00272
0.00372
0.00392
0.00400
0.00296
0.00006
-0.00267
-0.00253
-0.00015
0.00122
0.00008
-0.00203
-0.00333
-0.00353
-0.00300
-0.00204
-0.00127
-0.00110
-0.00104
-0.00032
0.00100
0.00224
0.00289
0.00285
0.00269
0.00351
0.00551
0.00687
0.00554
0.00198
-0.00125
-0.00278
-0.00369
-0.00525
-0.00689
-0.00719
-0.00606
-0.00487
-0.00480
-0.00565
-0.00601
-0.00441
-0.00060
0.00421
0.00825
0.01025
0.01011
0.00921
0.00957
0.01162
0.01312
0.01149
0.00666
0.00094
-0.00394
-0.00858
-0.01448
-0.02094
-0.02463
-0.02317
-0.01761
-0.01042
-0.00258
0.00528
0.01083
0.01146
0.00741
0.00249
0.00196
0.00831
0.01791
0.02315
0.02004
0.01204
0.00506
0.00104
-0.00178
-0.00483
-0.00771
-0.00961
-0.01011
-0.00935
-0.00808
-0.00721
-0.00708
-0.00722
-0.00707
-0.00691
-0.00779
-0.00992
-0.01142
-0.01023
-0.00698
-0.00418
-0.00238
0.00053
0.00602
0.01316
0.02028
0.02668
0.03215
0.03641
0.03937
0.04073
0.03932
0.03344
0.02243
0.00760
-0.00899
-0.02688
-0.04752
-0.07131
-0.09525
-0.11512
-0.12860
-0.13354
-0.12487
-0.09731
-0.04915
0.02159
0.11997
0.23984
0.34520
0.38208
0.32147
0.18619
0.02994
-0.10398
-0.19987
-0.25896
-0.28570
-0.28284
-0.25051
-0.18822
-0.10148
-0.00644
0.07551
0.12948
0.15338
0.15420
0.14067
0.11933
0.09438
0.06805
0.04114
0.01453
-0.00944
-0.02803
-0.04050
-0.04834
-0.05317
-0.05517
-0.05361
-0.04808
-0.03915
-0.02845
-0.01783
-0.00814
0.00072
0.00868
0.01520
0.02011
0.02367
0.02558
0.02505
0.02229
0.01853
0.01441
0.00959
0.00438
0.00020
-0.00225
-0.00421
-0.00708
-0.01032
-0.01213
-0.01167
-0.00972
-0.00742
-0.00548
-0.00432
-0.00395
-0.00353
-0.00190
0.00095
0.00359
0.00479
0.00484
0.00470
0.00467
0.00438
0.00377
0.00309
0.00234
0.00139
0.00041
-0.00039
-0.00129
-0.00257
-0.00357
-0.00335
-0.00217
-0.00123
-0.00069
0.00054
0.00249
0.00315
0.00094
-0.00253
-0.00404
-0.00272
-0.00071
0.00003
-0.00033
-0.00093
-0.00114
-0.00008
0.00253
0.00493
0.00506
0.00357
0.00265
0.00228
0.00048
-0.00276
-0.00488
-0.00444
-0.00289
-0.00202
-0.00174
-0.00110
-0.00025
-0.00003
-0.00028
0.00045
0.00274
0.00487
0.00461
0.00208
-0.00041
-0.00134
-0.00133
-0.00142
-0.00164
-0.00168
-0.00159
-0.00133
-0.00060
0.00030
0.00042
-0.00031
-0.00071
0.00008
0.00157
0.00253
0.00217
0.00070
-0.00038
0.00035
0.00209
0.00240
0.00070
-0.00096
-0.00139
-0.00201
-0.00369
-0.00460
-0.00298
-0.00022
0.00096
0.00018
-0.00061
-0.00013
0.00103
0.00186
0.00219
0.00230
0.00230
0.00221
0.00189
0.00103
-0.00007
-0.00037
0.00054
0.00133
0.00047
-0.00147
-0.00245
-0.00179
-0.00100
-0.00145
-0.00274
-0.00366
-0.00378
-0.00356
-0.00331
-0.00266
-0.00117
0.00077
0.00209
0.00238
0.00255
0.00369
0.00574
0.00786
0.00931
0.00961
0.00861
0.00670
0.00440
0.00160
-0.00232
-0.00766
-0.01368
-0.01850
-0.02008
-0.01779
-0.01237
-0.00500
0.00244
0.00683
0.00578
0.00050
-0.00410
-0.00275
0.00613
0.01846
0.02686
0.02640
0.01837
0.00813
0.00006
-0.00474
-0.00729
-0.00885
-0.00976
-0.00921
-0.00659
-0.00316
-0.00137
-0.00227
-0.00464
-0.00677
-0.00823
-0.00951
-0.01085
-0.01198
-0.01251
-0.01200
-0.01017
-0.00712
-0.00303
0.00243
0.00947
0.01699
0.02335
0.02855
0.03395
0.03925
0.04204
0.04091
0.03671
0.02995
0.01955
0.00521
-0.01158
-0.02997
-0.05077
-0.07395
-0.09734
-0.11845
-0.13474
-0.14124
-0.13135
-0.10064
-0.04597
0.03876
0.15619
0.28686
0.38256
0.39233
0.30249
0.14874
-0.01247
-0.14190
-0.22997
-0.28218
-0.30174
-0.28615
-0.23489
-0.15549
-0.06245
0.02708
0.09732
0.13874
0.15225
0.14688
0.13156
0.11010
0.08407
0.05667
0.03148
0.00943
-0.01043
-0.02801
-0.04184
-0.05095
-0.05553
-0.05594
-0.05236
-0.04528
-0.03568
-0.02478
-0.01382
-0.00394
0.00415
0.01055
0.01597
0.02077
0.02437
0.02572
0.02437
0.02100
0.01669
0.01211
0.00730
0.00217
-0.00286
-0.00672
-0.00856
-0.00881
-0.00870
-0.00868
-0.00812
-0.00653
-0.00446
-0.00261
-0.00128
-0.00079
-0.00121
-0.00173
-0.00146
-0.00064
0.00016
0.00132
0.00323
0.00494
0.00519
0.00419
0.00290
0.00161
0.00025
-0.00054
-0.00015
0.00069
0.00044
-0.00131
-0.00301
-0.00288
-0.00125
-0.00025
-0.00060
-0.00038
0.00167
0.00330
0.00170
-0.00182
-0.00303
-0.00050
0.00233
0.00168
-0.00183
-0.00446
-0.00393
-0.00136
0.00099
0.00210
0.00219
0.00172
0.00113
0.00079
0.00072
0.00060
0.00044
0.00066
0.00116
0.00084
-0.00101
-0.00309
-0.00316
-0.00079
0.00185
0.00263
0.00203
0.00184
0.00206
0.00084
-0.00215
-0.00441
-0.00387
-0.00189
-0.00131
-0.00236
-0.00256
-0.00047
0.00237
0.00353
0.00245
0.00067
0.00003
0.00104
0.00256
0.00312
0.00237
0.00097
-0.00047
-0.00146
-0.00146
-0.00060
-0.00008
-0.00045
-0.00078
-0.00049
-0.00051
-0.00133
-0.00170
-0.00080
0.00007
-0.00058
-0.00217
-0.00303
-0.00256
-0.00136
-0.00012
0.00084
0.00158
0.00266
0.00437
0.00548
0.00429
0.00146
-0.00017
0.00061
0.00170
0.00115
-0.00009
-0.00033
-0.00018
-0.00131
-0.00354
-0.00496
-0.00443
-0.00267
-0.00122
-0.00095
-0.00152
-0.00209
-0.00228
-0.00221
-0.00193
-0.00132
-0.00045
0.00055
0.00186
0.00351
0.00489
0.00565
0.00689
0.00988
0.01350
0.01447
0.01100
0.00488
-0.00084
-0.00556
-0.01107
-0.01811
-0.02427
-0.02602
-0.02216
-0.01432
-0.00497
0.00382
0.01012
0.01218
0.00968
0.00478
0.00190
0.00472
0.01233
0.01927
0.02102
0.01806
0.01326
0.00763
0.00097
-0.00544
-0.00970
-0.01163
-0.01198
-0.01089
-0.00909
-0.00858
-0.01023
-0.01190
-0.01102
-0.00799
-0.00554
-0.00555
-0.00753
-0.00948
-0.00950
-0.00701
-0.00275
0.00262
0.00919
0.01653
0.02300
0.02773
0.03200
0.03708
0.04151
0.04242
0.03855
0.03061
0.01949
0.00564
-0.01077
-0.02982
-0.05144
-0.07450
-0.09693
-0.11673
-0.13164
-0.13749
-0.12845
-0.09958
-0.04746
0.03222
0.14109
0.26418
0.36127
0.38444
0.31358
0.17367
0.01518
-0.12015
-0.21515
-0.27025
-0.29087
-0.28119
-0.24336
-0.17941
-0.09517
-0.00359
0.07733
0.13258
0.15766
0.15848
0.14442
0.12204
0.09452
0.06469
0.03599
0.01058
-0.01138
-0.02963
-0.04280
-0.05050
-0.05445
-0.05598
-0.05379
-0.04626
-0.03491
-0.02349
-0.01409
-0.00597
0.00169
0.00823
0.01303
0.01671
0.01982
0.02166
0.02153
0.02008
0.01837
0.01638
0.01306
0.00797
0.00212
-0.00281
-0.00581
-0.00711
-0.00757
-0.00797
-0.00877
-0.00995
-0.01075
-0.01010
-0.00775
-0.00487
-0.00267
-0.00076
0.00231
0.00633
0.00847
0.00647
0.00214
-0.00031
0.00071
0.00264
0.00294
0.00223
0.00220
0.00251
0.00171
-0.00015
-0.00191
-0.00337
-0.00487
-0.00566
-0.00441
-0.00128
0.00220
0.00479
0.00599
0.00537
0.00288
-0.00040
-0.00288
-0.00377
-0.00347
-0.00300
-0.00314
-0.00356
-0.00297
-0.00072
0.00196
0.00329
0.00325
0.00324
0.00382
0.00398
0.00275
0.00043
-0.00189
-0.00325
-0.00328
-0.00240
-0.00141
-0.00060
0.00037
0.00138
0.00164
0.00068
-0.00080
-0.00167
-0.00123
0.00033
0.00190
0.00218
0.00131
0.00068
0.00061
-0.00033
-0.00276
-0.00468
-0.00391
-0.00114
0.00097
0.00110
0.00008
-0.00062
0.00001
0.00237
0.00546
0.00671
0.00429
-0.00023
-0.00280
-0.00133
0.00156
0.00154
-0.00200
-0.00516
-0.00471
-0.00223
-0.00158
-0.00364
-0.00545
-0.00419
-0.00040
0.00307
0.00445
0.00452
0.00486
0.00544
0.00475
0.00235
0.00013
0.00015
0.00193
0.00290
0.00121
-0.00235
-0.00513
-0.00529
-0.00363
-0.00266
-0.00360
-0.00495
-0.00437
-0.00185
0.00016
-0.00009
-0.00140
-0.00141
0.00031
0.00235
0.00387
0.00527
0.00683
0.00808
0.00864
0.00870
0.00829
0.00692
0.00440
0.00125
-0.00237
-0.00742
-0.01411
-0.01979
-0.02103
-0.01738
-0.01139
-0.00513
0.00093
0.00598
0.00815
0.00646
0.00233
-0.00046
0.00221
0.01072
0.01941
0.02128
0.01562
0.00824
0.00411
0.00273
0.00097
-0.00271
-0.00743
-0.01108
-0.01186
-0.00980
-0.00689
-0.00517
-0.00505
-0.00589
-0.00711
-0.00827
-0.00918
-0.01027
-0.01187
-0.01298
-0.01192
-0.00820
-0.00270
0.00367
0.01065
0.01822
0.02622
0.03394
0.03983
0.04250
0.04213
0.03989
0.03567
0.02781
0.01554
0.00009
-0.01717
-0.03666
-0.05943
-0.08452
-0.10823
-0.12624
-0.13549
-0.13363
-0.11761
-0.08392
-0.02782
0.05832
0.17703
0.30597
0.39199
0.38351
0.27551
0.11511
-0.03914
-0.15613
-0.23378
-0.27874
-0.29400
-0.27943
-0.23452
-0.16064
-0.06626
0.02971
0.10508
0.14797
0.16180
0.15656
0.13917
0.11350
0.08433
0.05618
0.03003
0.00481
-0.01854
-0.03714
-0.04930
-0.05544
-0.05637
-0.05287
-0.04654
-0.03949
-0.03268
-0.02536
-0.01638
-0.00606
0.00343
0.01031
0.01519
0.01964
0.02334
0.02459
0.02303
0.02005
0.01656
0.01249
0.00836
0.00539
0.00372
0.00186
-0.00160
-0.00622
-0.01019
-0.01225
-0.01274
-0.01262
-0.01193
-0.01000
-0.00666
-0.00269
0.00058
0.00206
0.00195
0.00196
0.00348
0.00544
0.00557
0.00382
0.00253
0.00297
0.00348
0.00242
0.00087
0.00081
0.00179
0.00172
0.00018
-0.00103
-0.00099
-0.00122
-0.00329
-0.00595
-0.00641
-0.00404
-0.00109
0.00041
0.00074
0.00106
0.00168
0.00242
0.00315
0.00336
0.00227
0.00024
-0.00102
-0.00048
0.00058
0.00015
-0.00156
-0.00215
-0.00049
0.00129
0.00085
-0.00073
-0.00083
0.00042
0.00051
-0.00117
-0.00250
-0.00205
-0.00079
-0.00003
0.00026
0.00079
0.00190
0.00311
0.00348
0.00264
0.00148
0.00093
0.00052
-0.00084
-0.00290
-0.00427
-0.00425
-0.00330
-0.00189
-0.00032
0.00059
0.00032
-0.00016
0.00056
0.00232
0.00367
0.00378
0.00283
0.00131
-0.00001
-0.00031
0.00024
0.00040
-0.00089
-0.00327
-0.00502
-0.00459
-0.00224
0.00015
0.00131
0.00158
0.00142
0.00072
0.00008
0.00063
0.00223
0.00356
0.00410
0.00425
0.00377
0.00186
-0.00118
-0.00378
-0.00477
-0.00449
-0.00421
-0.00455
-0.00501
-0.00490
-0.00425
-0.00323
-0.00160
0.00063
0.00272
0.00410
0.00507
0.00633
0.00808
0.00978
0.01036
0.00910
0.00658
0.00416
0.00224
-0.00022
-0.00433
-0.00966
-0.01432
-0.01656
-0.01637
-0.01507
-0.01308
-0.00902
-0.00204
0.00571
0.01038
0.00997
0.00595
0.00184
0.00111
0.00529
0.01240
0.01767
0.01768
0.01379
0.00976
0.00645
0.00170
-0.00483
-0.01022
-0.01227
-0.01186
-0.01059
-0.00890
-0.00706
-0.00603
-0.00631
-0.00739
-0.00855
-0.00951
-0.01014
-0.01021
-0.00932
-0.00699
-0.00315
0.00149
0.00610
0.01071
0.01580
0.02123
0.02626
0.03060
0.03448
0.03749
0.03819
0.03519
0.02841
0.01868
0.00598
-0.01091
-0.03229
-0.05574
-0.07778
-0.09701
-0.11385
-0.12677
-0.13012
-0.11736
-0.08598
-0.03555
0.03977
0.14698
0.27162
0.36510
0.37320
0.28381
0.13765
-0.00986
-0.12759
-0.21091
-0.26325
-0.28603
-0.27877
-0.23992
-0.16992
-0.07802
0.01642
0.09289
0.14016
0.15856
0.15512
0.13799
0.11354
0.08584
0.05726
0.02951
0.00430
-0.01660
-0.03209
-0.04249
-0.04896
-0.05215
-0.05186
-0.04817
-0.04183
-0.03383
-0.02502
-0.01621
-0.00784
0.00019
0.00785
0.01447
0.01928
0.02194
0.02272
0.02238
0.02136
0.01897
0.01467
0.01003
0.00686
0.00394
-0.00113
-0.00712
-0.01021
-0.00985
-0.00946
-0.01073
-0.01129
-0.00901
-0.00544
-0.00317
-0.00227
-0.00129
-0.00011
0.00047
0.00090
0.00240
0.00455
0.00515
0.00332
0.00108
0.00107
0.00327
0.00498
0.00402
0.00086
-0.00219
-0.00316
-0.00206
-0.00079
-0.00093
-0.00159
-0.00056
0.00197
0.00313
0.00141
-0.00106
-0.00179
-0.00129
-0.00160
-0.00286
-0.00309
-0.00145
0.00029
0.00041
-0.00014
0.00056
0.00215
0.00266
0.00168
0.00059
-0.00012
-0.00107
-0.00178
-0.00084
0.00122
0.00192
0.00064
0.00000
0.00182
0.00383
0.00296
-0.00010
-0.00237
-0.00304
-0.00342
-0.00374
-0.00317
-0.00204
-0.00124
-0.00032
0.00127
0.00230
0.00143
0.00007
0.00100
0.00415
0.00597
0.00392
-0.00016
-0.00270
-0.00291
-0.00256
-0.00253
-0.00210
-0.00116
-0.00043
0.00003
0.00064
0.00109
0.00097
0.00085
0.00139
0.00183
0.00082
-0.00161
-0.00354
-0.00330
-0.00153
-0.00030
-0.00013
0.00034
0.00181
0.00330
0.00414
0.00468
0.00462
0.00290
-0.00031
-0.00318
-0.00428
-0.00388
-0.00283
-0.00163
-0.00085
-0.00107
-0.00215
-0.00316
-0.00350
-0.00331
-0.00287
-0.00210
-0.00085
0.00075
0.00246
0.00424
0.00609
0.00777
0.00893
0.00952
0.00970
0.00910
0.00710
0.00400
0.00062
-0.00370
-0.01052
-0.01838
-0.02244
-0.02059
-0.01648
-0.01339
-0.00885
0.00019
0.00998
0.01343
0.00951
0.00450
0.00452
0.00989
0.01627
0.01888
0.01583
0.00926
0.00342
0.00062
-0.00083
-0.00378
-0.00797
-0.01018
-0.00853
-0.00469
-0.00154
-0.00086
-0.00312
-0.00733
-0.01095
-0.01225
-0.01242
-0.01320
-0.01344
-0.01096
-0.00676
-0.00394
-0.00265
0.00023
0.00626
0.01360
0.02027
0.02647
0.03259
0.03734
0.03934
0.03916
0.03779
0.03408
0.02563
0.01199
-0.00504
-0.02440
-0.04647
-0.07029
-0.09267
-0.11133
-0.12593
-0.13400
-0.12918
-0.10639
-0.06451
0.00122
0.10137
0.23203
0.35222
0.39986
0.34234
0.20519
0.04610
-0.09069
-0.19117
-0.25800
-0.29424
-0.29840
-0.26745
-0.20262
-0.11295
-0.01426
0.07415
0.13488
0.16069
0.15889
0.14376
0.12412
0.10046
0.07203
0.04173
0.01386
-0.00952
-0.02857
-0.04328
-0.05255
-0.05576
-0.05430
-0.05032
-0.04484
-0.03794
-0.03008
-0.02141
-0.01124
0.00033
0.01103
0.01822
0.02139
0.02217
0.02264
0.02355
0.02348
0.02013
0.01344
0.00639
0.00194
-0.00021
-0.00230
-0.00483
-0.00604
-0.00538
-0.00507
-0.00688
-0.00935
-0.01001
-0.00852
-0.00615
-0.00373
-0.00179
-0.00103
-0.00123
-0.00097
0.00057
0.00249
0.00362
0.00397
0.00432
0.00486
0.00498
0.00433
0.00380
0.00418
0.00420
0.00175
-0.00255
-0.00532
-0.00480
-0.00297
-0.00239
-0.00321
-0.00398
-0.00358
-0.00192
0.00020
0.00160
0.00178
0.00121
0.00058
0.00050
0.00150
0.00345
0.00497
0.00446
0.00187
-0.00116
-0.00313
-0.00400
-0.00436
-0.00404
-0.00244
0.00002
0.00189
0.00223
0.00156
0.00091
0.00039
-0.00034
-0.00081
0.00002
0.00211
0.00385
0.00359
0.00131
-0.00134
-0.00270
-0.00266
-0.00232
-0.00225
-0.00202
-0.00141
-0.00093
-0.00048
0.00081
0.00259
0.00261
-0.00001
-0.00242
-0.00137
0.00195
0.00342
0.00195
0.00067
0.00173
0.00303
0.00203
-0.00015
-0.00097
-0.00090
-0.00239
-0.00525
-0.00628
-0.00405
-0.00108
-0.00022
-0.00080
-0.00052
0.00100
0.00250
0.00360
0.00445
0.00438
0.00306
0.00192
0.00225
0.00308
0.00268
0.00108
-0.00055
-0.00176
-0.00299
-0.00456
-0.00632
-0.00770
-0.00778
-0.00614
-0.00378
-0.00216
-0.00129
0.00024
0.00289
0.00516
0.00577
0.00557
0.00630
0.00821
0.01015
0.01131
0.01159
0.01036
0.00659
0.00028
-0.00738
-0.01488
-0.02041
-0.02211
-0.01975
-0.01508
-0.00959
-0.00336
0.00307
0.00748
0.00773
0.00418
0.00007
-0.00001
0.00640
0.01629
0.02252
0.02069
0.01357
0.00703
0.00291
-0.00109
-0.00589
-0.00934
-0.00995
-0.00875
-0.00676
-0.00388
-0.00091
-0.00001
-0.00201
-0.00539
-0.00874
-0.01231
-0.01634
-0.01930
-0.01871
-0.01381
-0.00670
-0.00033
0.00444
0.00910
0.01478
0.02089
0.02686
0.03304
0.03848
0.04015
0.03673
0.03114
0.02658
0.02164
0.01245
-0.00200
-0.01972
-0.03919
-0.05987
-0.08026
-0.09851
-0.11377
-0.12403
-0.12421
-0.10940
-0.07747
-0.02303
0.06589
0.19030
0.31612
0.38280
0.34977
0.23132
0.08024
-0.05642
-0.16018
-0.23175
-0.27461
-0.28818
-0.26875
-0.21436
-0.13102
-0.03488
0.05322
0.11669
0.14928
0.15553
0.14528
0.12628
0.10123
0.07157
0.04160
0.01623
-0.00375
-0.02077
-0.03565
-0.04649
-0.05201
-0.05302
-0.05090
-0.04637
-0.03972
-0.03096
-0.02035
-0.00892
0.00187
0.01063
0.01627
0.01867
0.01920
0.01952
0.01996
0.01961
0.01759
0.01397
0.00964
0.00549
0.00179
-0.00144
-0.00420
-0.00680
-0.00915
-0.00991
-0.00816
-0.00545
-0.00413
-0.00431
-0.00428
-0.00327
-0.00184
-0.00043
0.00074
0.00092
-0.00027
-0.00169
-0.00144
0.00087
0.00352
0.00470
0.00434
0.00363
0.00315
0.00266
0.00211
0.00178
0.00140
0.00013
-0.00224
-0.00452
-0.00492
-0.00276
0.00045
0.00205
0.00104
-0.00103
-0.00230
-0.00253
-0.00203
-0.00037
0.00223
0.00386
0.00283
-0.00014
-0.00262
-0.00294
-0.00130
0.00076
0.00173
0.00142
0.00078
0.00055
0.00052
0.00035
0.00022
0.00033
0.00042
0.00035
0.00052
0.00108
0.00122
0.00013
-0.00174
-0.00332
-0.00397
-0.00346
-0.00171
0.00049
0.00184
0.00207
0.00191
0.00157
0.00071
-0.00008
0.00050
0.00250
0.00397
0.00295
-0.00010
-0.00266
-0.00305
-0.00233
-0.00248
-0.00345
-0.00350
-0.00201
-0.00035
0.00043
0.00105
0.00244
0.00399
0.00430
0.00320
0.00183
0.00099
0.00017
-0.00144
-0.00345
-0.00440
-0.00338
-0.00113
0.00089
0.00204
0.00265
0.00300
0.00292
0.00224
0.00121
0.00010
-0.00127
-0.00309
-0.00482
-0.00540
-0.00443
-0.00272
-0.00125
-0.00025
0.00022
-0.00011
-0.00089
-0.00078
0.00099
0.00347
0.00547
0.00678
0.00729
0.00656
0.00516
0.00475
0.00569
0.00602
0.00379
-0.00095
-0.00688
-0.01261
-0.01666
-0.01783
-0.01640
-0.01330
-0.00808
-0.00002
0.00830
0.01177
0.00826
0.00124
-0.00336
-0.00152
0.00639
0.01542
0.01947
0.01682
0.01134
0.00731
0.00482
0.00148
-0.00326
-0.00766
-0.01052
-0.01192
-0.01160
-0.00900
-0.00517
-0.00262
-0.00270
-0.00451
-0.00643
-0.00771
-0.00870
-0.01010
-0.01162
-0.01159
-0.00874
-0.00393
0.00117
0.00641
0.01256
0.01928
0.02534
0.03067
0.03603
0.04064
0.04212
0.03902
0.03203
0.02214
0.00895
-0.00804
-0.02773
-0.04818
-0.06858
-0.08923
-0.10925
-0.12522
-0.13188
-0.12439
-0.10034
-0.05758
0.01144
0.11603
0.24607
0.35584
0.38638
0.31476
0.17411
0.02117
-0.10650
-0.19905
-0.25777
-0.28418
-0.27975
-0.24536
-0.18121
-0.09297
0.00226
0.08139
0.12956
0.14789
0.14704
0.13582
0.11736
0.09297
0.06518
0.03708
0.01104
-0.01123
-0.02872
-0.04127
-0.04923
-0.05294
-0.05271
-0.04915
-0.04302
-0.03509
-0.02604
-0.01655
-0.00729
0.00121
0.00856
0.01446
0.01873
0.02133
0.02230
0.02180
0.02003
0.01725
0.01375
0.00982
0.00576
0.00182
-0.00176
-0.00483
-0.00725
-0.00893
-0.00984
-0.01004
-0.00958
-0.00848
-0.00688
-0.00501
-0.00298
-0.00072
0.00165
0.00360
0.00452
0.00402
0.00221
0.00005
-0.00082
0.00042
0.00258
0.00375
0.00336
0.00212
0.00062
-0.00053
-0.00044
0.00073
0.00123
-0.00000
-0.00153
-0.00141
0.00001
0.00083
0.00024
-0.00105
-0.00222
-0.00284
-0.00248
-0.00119
-0.00004
-0.00028
-0.00183
-0.00299
-0.00204
0.00093
0.00416
0.00613
0.00638
0.00469
0.00127
-0.00226
-0.00384
-0.00333
-0.00230
-0.00166
-0.00106
-0.00030
0.00036
0.00106
0.00201
0.00251
0.00161
-0.00027
-0.00182
-0.00252
-0.00250
-0.00153
0.00021
0.00129
0.00067
-0.00049
-0.00025
0.00155
0.00308
0.00284
0.00096
-0.00132
-0.00270
-0.00250
-0.00099
0.00060
0.00092
-0.00027
-0.00187
-0.00248
-0.00145
0.00079
0.00296
0.00370
0.00257
0.00061
-0.00059
-0.00059
-0.00052
-0.00137
-0.00235
-0.00195
-0.00011
0.00172
0.00257
0.00274
0.00274
0.00242
0.00154
0.00028
-0.00100
-0.00235
-0.00402
-0.00565
-0.00608
-0.00459
-0.00220
-0.00102
-0.00196
-0.00340
-0.00288
0.00010
0.00385
0.00692
0.00926
0.01080
0.01079
0.00944
0.00831
0.00748
0.00492
-0.00003
-0.00506
-0.00855
-0.01189
-0.01600
-0.01858
-0.01730
-0.01314
-0.00798
-0.00187
0.00500
0.00985
0.00958
0.00447
-0.00134
-0.00269
0.00280
0.01229
0.01960
0.02070
0.01638
0.00959
0.00262
-0.00297
-0.00642
-0.00839
-0.00944
-0.00829
-0.00421
-0.00007
0.00016
-0.00349
-0.00713
-0.00827
-0.00843
-0.01015
-0.01352
-0.01645
-0.01674
-0.01354
-0.00787
-0.00204
0.00245
0.00639
0.01140
0.01770
0.02417
0.02978
0.03440
0.03862
0.04239
0.04352
0.03880
0.02799
0.01446
0.00072
-0.01460
-0.03383
-0.05662
-0.08067
-0.10400
-0.12479
-0.13929
-0.14121
-0.12465
-0.08775
-0.03001
0.05448
0.17091
0.30067
0.39190
0.39107
0.28913
0.12923
-0.03070
-0.15537
-0.23739
-0.28246
-0.29704
-0.28329
-0.23908
-0.16420
-0.06863
0.02734
0.10318
0.14841
0.16428
0.15893
0.14123
0.11687
0.08800
0.05640
0.02575
-0.00021
-0.02051
-0.03613
-0.04729
-0.05335
-0.05474
-0.05304
-0.04897
-0.04215
-0.03304
-0.02351
-0.01486
-0.00648
0.00259
0.01169
0.01883
0.02271
0.02385
0.02379
0.02330
0.02171
0.01793
0.01191
0.00534
0.00063
-0.00160
-0.00337
-0.00639
-0.00936
-0.01005
-0.00895
-0.00833
-0.00847
-0.00750
-0.00466
-0.00154
0.00021
0.00077
0.00119
0.00182
0.00223
0.00222
0.00207
0.00186
0.00115
-0.00012
-0.00118
-0.00134
-0.00080
0.00027
0.00244
0.00540
0.00665
0.00415
-0.00019
-0.00198
-0.00014
0.00156
-0.00023
-0.00369
-0.00484
-0.00313
-0.00134
-0.00116
-0.00187
-0.00267
-0.00335
-0.00293
-0.00046
0.00286
0.00466
0.00434
0.00327
0.00251
0.00212
0.00198
0.00166
0.00012
-0.00266
-0.00469
-0.00408
-0.00158
0.00039
0.00074
0.00041
0.00041
0.00064
0.00067
0.00052
0.00043
0.00038
0.00024
-0.00002
-0.00027
-0.00044
-0.00060
-0.00083
-0.00098
-0.00082
-0.00051
-0.00034
0.00004
0.00125
0.00282
0.00313
0.00168
-0.00004
-0.00077
-0.00130
-0.00268
-0.00402
-0.00352
-0.00122
0.00080
0.00108
0.00059
0.00112
0.00256
0.00323
0.00265
0.00202
0.00202
0.00197
0.00137
0.00031
-0.00123
-0.00304
-0.00410
-0.00365
-0.00241
-0.00167
-0.00165
-0.00144
-0.00060
0.00005
-0.00051
-0.00189
-0.00266
-0.00205
-0.00057
0.00114
0.00281
0.00404
0.00450
0.00457
0.00517
0.00658
0.00815
0.00889
0.00822
0.00614
0.00261
-0.00308
-0.01102
-0.01879
-0.02243
-0.02030
-0.01470
-0.00863
-0.00259
0.00398
0.00932
0.00975
0.00436
-0.00199
-0.00206
0.00642
0.01765
0.02322
0.02023
0.01270
0.00585
0.00143
-0.00179
-0.00527
-0.00906
-0.01177
-0.01177
-0.00896
-0.00527
-0.00276
-0.00199
-0.00236
-0.00342
-0.00510
-0.00716
-0.00915
-0.01069
-0.01150
-0.01131
-0.00995
-0.00741
-0.00366
0.00138
0.00779
0.01575
0.02517
0.03437
0.04019
0.04102
0.03907
0.03743
0.03535
0.02860
0.01489
-0.00344
-0.02264
-0.04153
-0.06121
-0.08221
-0.10312
-0.12088
-0.13088
-0.12792
-0.10901
-0.07339
-0.01614
0.07370
0.19631
0.31909
0.38437
0.35178
0.23240
0.07704
-0.06453
-0.16960
-0.23820
-0.27632
-0.28570
-0.26382
-0.20924
-0.12751
-0.03338
0.05301
0.11509
0.14732
0.15470
0.14546
0.12561
0.09945
0.07116
0.04378
0.01853
-0.00364
-0.02123
-0.03390
-0.04321
-0.05032
-0.05426
-0.05352
-0.04825
-0.04023
-0.03116
-0.02158
-0.01145
-0.00144
0.00705
0.01338
0.01837
0.02248
0.02466
0.02408
0.02190
0.01965
0.01698
0.01260
0.00668
0.00083
-0.00354
-0.00609
-0.00748
-0.00885
-0.01064
-0.01175
-0.01091
-0.00838
-0.00572
-0.00393
-0.00287
-0.00217
-0.00171
-0.00102
0.00072
0.00339
0.00558
0.00625
0.00585
0.00534
0.00493
0.00427
0.00327
0.00207
0.00084
-0.00040
-0.00178
-0.00343
-0.00509
-0.00588
-0.00528
-0.00394
-0.00290
-0.00197
-0.00001
0.00281
0.00436
0.00339
0.00173
0.00198
0.00369
0.00389
0.00148
-0.00132
-0.00231
-0.00206
-0.00228
-0.00294
-0.00256
-0.00051
0.00190
0.00281
0.00165
-0.00037
-0.00170
-0.00184
-0.00119
-0.00023
0.00051
0.00030
-0.00097
-0.00209
-0.00160
0.00048
0.00273
0.00384
0.00370
0.00300
0.00236
0.00179
0.00093
-0.00023
-0.00132
-0.00231
-0.00347
-0.00454
-0.00478
-0.00407
-0.00300
-0.00199
-0.00100
0.00021
0.00196
0.00432
0.00629
0.00643
0.00468
0.00266
0.00134
-0.00028
-0.00317
-0.00602
-0.00650
-0.00411
-0.00069
0.00184
0.00294
0.00305
0.00246
0.00137
0.00034
0.00010
0.00067
0.00105
0.00043
-0.00060
-0.00078
-0.00014
-0.00001
-0.00121
-0.00318
-0.00506
-0.00634
-0.00648
-0.00496
-0.00218
0.00080
0.00341
0.00560
0.00675
0.00605
0.00423
0.00357
0.00521
0.00753
0.00807
0.00629
0.00371
0.00163
-0.00033
-0.00351
-0.00845
-0.01370
-0.01660
-0.01586
-0.01276
-0.00901
-0.00441
0.00154
0.00664
0.00727
0.00311
-0.00168
-0.00239
0.00239
0.01041
0.01753
0.02002
0.01690
0.01068
0.00495
0.00130
-0.00110
-0.00361
-0.00644
-0.00835
-0.00810
-0.00637
-0.00561
-0.00699
-0.00869
-0.00837
-0.00638
-0.00517
-0.00607
-0.00830
-0.01046
-0.01188
-0.01220
-0.01065
-0.00652
-0.00028
0.00674
0.01355
0.02009
0.02661
0.03318
0.03949
0.04446
0.04636
0.04393
0.03707
0.02600
0.01062
-0.00860
-0.03045
-0.05414
-0.07913
-0.10318
-0.12287
-0.13602
-0.14019
-0.12977
-0.09924
-0.04748
0.02744
0.13174
0.25853
0.36691
0.39821
0.32540
0.17869
0.01710
-0.11634
-0.20903
-0.26506
-0.29061
-0.28796
-0.25480
-0.18943
-0.09945
-0.00373
0.07676
0.12985
0.15507
0.15858
0.14694
0.12481
0.09631
0.06607
0.03780
0.01272
-0.00932
-0.02778
-0.04120
-0.04908
-0.05263
-0.05329
-0.05140
-0.04677
-0.03972
-0.03093
-0.02070
-0.00943
0.00129
0.00934
0.01441
0.01825
0.02182
0.02357
0.02220
0.01945
0.01795
0.01734
0.01506
0.01027
0.00468
-0.00017
-0.00420
-0.00759
-0.01029
-0.01246
-0.01408
-0.01405
-0.01138
-0.00709
-0.00347
-0.00172
-0.00127
-0.00086
0.00041
0.00232
0.00351
0.00322
0.00278
0.00354
0.00452
0.00425
0.00366
0.00432
0.00505
0.00360
0.00066
-0.00108
-0.00101
-0.00108
-0.00230
-0.00374
-0.00462
-0.00529
-0.00564
-0.00460
-0.00187
0.00101
0.00246
0.00276
0.00296
0.00281
0.00154
0.00022
0.00079
0.00273
0.00321
0.00119
-0.00117
-0.00154
-0.00025
0.00074
0.00023
-0.00133
-0.00261
-0.00278
-0.00213
-0.00143
-0.00098
-0.00059
-0.00015
0.00031
0.00079
0.00122
0.00151
0.00186
0.00253
0.00311
0.00271
0.00130
-0.00011
-0.00102
-0.00210
-0.00364
-0.00429
-0.00259
0.00064
0.00277
0.00240
0.00067
-0.00074
-0.00170
-0.00266
-0.00291
-0.00138
0.00140
0.00349
0.00374
0.00243
0.00023
-0.00216
-0.00337
-0.00239
-0.00011
0.00161
0.00237
0.00298
0.00331
0.00250
0.00106
0.00037
0.00041
-0.00007
-0.00127
-0.00201
-0.00184
-0.00167
-0.00222
-0.00312
-0.00368
-0.00397
-0.00460
-0.00549
-0.00524
-0.00253
0.00175
0.00495
0.00566
0.00537
0.00641
0.00887
0.01073
0.01067
0.00927
0.00737
0.00472
0.00094
-0.00344
-0.00791
-0.01271
-0.01744
-0.02018
-0.01935
-0.01518
-0.00860
-0.00069
0.00617
0.00892
0.00700
0.00320
0.00117
0.00315
0.00905
0.01606
0.01993
0.01841
0.01311
0.00710
0.00175
-0.00329
-0.00794
-0.01068
-0.01032
-0.00776
-0.00534
-0.00446
-0.00467
-0.00495
-0.00508
-0.00556
-0.00672
-0.00820
-0.00948
-0.01036
-0.01071
-0.00996
-0.00765
-0.00432
-0.00084
0.00320
0.00924
0.01749
0.02591
0.03219
0.03586
0.03790
0.03882
0.03805
0.03450
0.02678
0.01346
-0.00493
-0.02491
-0.04357
-0.06203
-0.08256
-0.10351
-0.12015
-0.12860
-0.12556
-0.10697
-0.06911
-0.00711
0.08699
0.21092
0.33004
0.38440
0.33585
0.20495
0.05072
-0.08033
-0.17607
-0.24110
-0.27676
-0.28026
-0.25100
-0.19196
-0.11007
-0.01865
0.06361
0.12043
0.14645
0.14794
0.13541
0.11598
0.09223
0.06585
0.03963
0.01608
-0.00422
-0.02156
-0.03544
-0.04493
-0.04988
-0.05116
-0.04957
-0.04534
-0.03851
-0.02945
-0.01890
-0.00802
0.00149
0.00832
0.01276
0.01645
0.02018
0.02281
0.02285
0.02040
0.01689
0.01330
0.00945
0.00495
0.00040
-0.00284
-0.00423
-0.00477
-0.00577
-0.00718
-0.00807
-0.00801
-0.00738
-0.00648
-0.00532
-0.00402
-0.00272
-0.00139
-0.00019
0.00046
0.00064
0.00133
0.00302
0.00466
0.00489
0.00379
0.00237
0.00107
-0.00023
-0.00104
-0.00053
0.00120
0.00298
0.00394
0.00406
0.00335
0.00137
-0.00177
-0.00473
-0.00623
-0.00662
-0.00683
-0.00626
-0.00360
0.00053
0.00365
0.00436
0.00365
0.00310
0.00326
0.00351
0.00272
0.00038
-0.00222
-0.00276
-0.00070
0.00168
0.00185
-0.00021
-0.00266
-0.00381
-0.00292
-0.00034
0.00206
0.00208
-0.00011
-0.00167
-0.00067
0.00147
0.00233
0.00170
0.00100
0.00079
0.00053
-0.00007
-0.00066
-0.00109
-0.00147
-0.00183
-0.00204
-0.00210
-0.00198
-0.00155
-0.00080
0.00007
0.00121
0.00306
0.00511
0.00550
0.00328
0.00027
-0.00081
-0.00005
0.00004
-0.00167
-0.00350
-0.00384
-0.00315
-0.00244
-0.00175
-0.00077
0.00019
0.00054
0.00027
0.00014
0.00107
0.00290
0.00409
0.00345
0.00196
0.00158
0.00245
0.00277
0.00155
-0.00019
-0.00151
-0.00294
-0.00481
-0.00593
-0.00527
-0.00391
-0.00377
-0.00469
-0.00454
-0.00228
0.00070
0.00263
0.00357
0.00460
0.00609
0.00750
0.00840
0.00887
0.00899
0.00846
0.00691
0.00442
0.00125
-0.00283
-0.00835
-0.01462
-0.01913
-0.01974
-0.01701
-0.01292
-0.00797
-0.00148
0.00531
0.00897
0.00772
0.00387
0.00203
0.00550
0.01339
0.02026
0.02058
0.01461
0.00783
0.00362
-0.00027
-0.00626
-0.01196
-0.01331
-0.01037
-0.00656
-0.00387
-0.00159
0.00061
0.00135
-0.00056
-0.00440
-0.00844
-0.01145
-0.01314
-0.01371
-0.01331
-0.01189
-0.00937
-0.00563
-0.00053
0.00576
0.01250
0.01920
0.02642
0.03461
0.04192
0.04507
0.04292
0.03773
0.03142
0.02238
0.00804
-0.01059
-0.02983
-0.04833
-0.06793
-0.08927
-0.10962
-0.12541
-0.13340
-0.12906
-0.10706
-0.06286
0.01020
0.11926
0.25347
0.36691
0.39868
0.32315
0.17411
0.01352
-0.11619
-0.20579
-0.26125
-0.28688
-0.28269
-0.24693
-0.18000
-0.09040
0.00349
0.08128
0.13104
0.15253
0.15263
0.13940
0.11839
0.09229
0.06316
0.03429
0.00900
-0.01169
-0.02882
-0.04293
-0.05291
-0.05718
-0.05552
-0.04952
-0.04135
-0.03228
-0.02283
-0.01374
-0.00586
0.00098
0.00779
0.01474
0.02041
0.02331
0.02355
0.02228
0.02013
0.01702
0.01304
0.00861
0.00396
-0.00073
-0.00479
-0.00724
-0.00789
-0.00778
-0.00813
-0.00905
-0.00958
-0.00875
-0.00628
-0.00274
0.00032
0.00106
-0.00039
-0.00140
0.00009
0.00294
0.00458
0.00443
0.00384
0.00364
0.00342
0.00274
0.00180
0.00092
0.00018
-0.00062
-0.00170
-0.00281
-0.00310
-0.00206
-0.00051
0.00010
-0.00064
-0.00166
-0.00147
0.00033
0.00277
0.00416
0.00339
0.00087
-0.00176
-0.00299
-0.00280
-0.00236
-0.00249
-0.00273
-0.00198
0.00024
0.00321
0.00548
0.00567
0.00341
-0.00001
-0.00240
-0.00251
-0.00089
0.00090
0.00150
0.00035
-0.00205
-0.00424
-0.00458
-0.00235
0.00120
0.00345
0.00313
0.00184
0.00153
0.00169
0.00068
-0.00112
-0.00195
-0.00149
-0.00083
-0.00036
0.00015
0.00027
-0.00061
-0.00183
-0.00195
-0.00045
0.00184
0.00355
0.00350
0.00159
-0.00094
-0.00270
-0.00331
-0.00278
-0.00090
0.00168
0.00293
0.00195
0.00046
0.00011
0.00005
-0.00091
-0.00174
-0.00100
0.00073
0.00205
0.00270
0.00285
0.00200
0.00027
-0.00093
-0.00083
-0.00061
-0.00154
-0.00313
-0.00411
-0.00437
-0.00476
-0.00532
-0.00466
-0.00185
0.00175
0.00367
0.00333
0.00274
0.00370
0.00580
0.00756
0.00847
0.00889
0.00878
0.00766
0.00546
0.00245
-0.00160
-0.00711
-0.01333
-0.01821
-0.02004
-0.01846
-0.01392
-0.00729
-0.00035
0.00448
0.00576
0.00395
0.00141
0.00162
0.00685
0.01506
0.02050
0.01937
0.01380
0.00866
0.00561
0.00260
-0.00184
-0.00637
-0.00895
-0.00911
-0.00777
-0.00617
-0.00520
-0.00503
-0.00519
-0.00547
-0.00625
-0.00781
-0.00972
-0.01130
-0.01222
-0.01233
-0.01134
-0.00898
-0.00521
-0.00014
0.00608
0.01317
0.02068
0.02803
0.03468
0.04003
0.04331
0.04381
0.04122
0.03521
0.02523
0.01100
-0.00672
-0.02684
-0.04893
-0.07228
-0.09497
-0.11534
-0.13257
-0.14288
-0.13793
-0.11134
-0.06296
0.00952
0.11503
0.24895
0.36921
0.41257
0.34667
0.19935
0.03193
-0.10835
-0.20694
-0.26815
-0.29742
-0.29566
-0.26131
-0.19450
-0.10297
-0.00486
0.07779
0.13113
0.15483
0.15660
0.14424
0.12288
0.09615
0.06732
0.03917
0.01356
-0.00860
-0.02668
-0.03995
-0.04817
-0.05223
-0.05355
-0.05264
-0.04841
-0.03967
-0.02768
-0.01607
-0.00714
0.00023
0.00791
0.01518
0.01991
0.02155
0.02102
0.01910
0.01660
0.01472
0.01382
0.01274
0.01036
0.00684
0.00284
-0.00131
-0.00519
-0.00811
-0.00996
-0.01141
-0.01258
-0.01232
-0.00994
-0.00690
-0.00524
-0.00468
-0.00315
-0.00011
0.00294
0.00515
0.00717
0.00878
0.00839
0.00582
0.00340
0.00303
0.00339
0.00171
-0.00210
-0.00492
-0.00460
-0.00282
-0.00219
-0.00247
-0.00180
0.00007
0.00178
0.00226
0.00115
-0.00097
-0.00216
-0.00089
0.00126
0.00140
-0.00045
-0.00166
-0.00106
-0.00012
0.00006
0.00011
0.00061
0.00102
0.00110
0.00150
0.00227
0.00213
0.00037
-0.00177
-0.00259
-0.00209
-0.00131
-0.00070
-0.00025
-0.00026
-0.00071
-0.00077
0.00027
0.00193
0.00306
0.00281
0.00126
-0.00050
-0.00126
-0.00104
-0.00062
-0.00018
0.00045
0.00055
-0.00064
-0.00226
-0.00271
-0.00184
-0.00054
0.00103
0.00277
0.00310
0.00081
-0.00211
-0.00251
-0.00045
0.00115
0.00100
0.00058
0.00076
0.00052
-0.00048
-0.00094
-0.00015
0.00098
0.00146
0.00116
0.00041
-0.00025
-0.00012
0.00065
0.00090
0.00017
-0.00037
0.00023
0.00106
0.00068
-0.00093
-0.00299
-0.00513
-0.00659
-0.00594
-0.00312
-0.00029
0.00074
0.00045
0.00025
0.00079
0.00231
0.00489
0.00772
0.00941
0.00956
0.00894
0.00801
0.00643
0.00387
0.00029
-0.00434
-0.00964
-0.01422
-0.01675
-0.01743
-0.01703
-0.01471
-0.00867
0.00053
0.00903
0.01281
0.01092
0.00554
0.00074
0.00073
0.00658
0.01414
0.01737
0.01421
0.00788
0.00249
-0.00057
-0.00239
-0.00446
-0.00703
-0.00861
-0.00721
-0.00288
0.00141
0.00213
-0.00145
-0.00669
-0.01054
-0.01242
-0.01354
-0.01420
-0.01321
-0.01023
-0.00690
-0.00462
-0.00250
0.00116
0.00636
0.01186
0.01761
0.02437
0.03116
0.03562
0.03716
0.03722
0.03602
0.03164
0.02292
0.01108
-0.00260
-0.01875
-0.03811
-0.05937
-0.08052
-0.10117
-0.12099
-0.13527
-0.13533
-0.11516
-0.07396
-0.00798
0.09236
0.22250
0.34160
0.38932
0.33560
0.20615
0.05469
-0.07926
-0.18171
-0.25064
-0.28589
-0.28795
-0.25696
-0.19344
-0.10483
-0.00964
0.07001
0.12133
0.14500
0.14841
0.13819
0.11895
0.09453
0.06791
0.04063
0.01399
-0.00970
-0.02793
-0.03990
-0.04698
-0.05083
-0.05169
-0.04898
-0.04293
-0.03462
-0.02479
-0.01411
-0.00428
0.00266
0.00665
0.00980
0.01387
0.01834
0.02128
0.02149
0.01951
0.01645
0.01278
0.00855
0.00420
0.00036
-0.00264
-0.00412
-0.00332
-0.00149
-0.00188
-0.00563
-0.00968
-0.01080
-0.00963
-0.00841
-0.00708
-0.00436
-0.00082
0.00181
0.00294
0.00300
0.00266
0.00312
0.00497
0.00625
0.00436
0.00061
-0.00067
0.00177
0.00427
0.00366
0.00107
-0.00088
-0.00187
-0.00316
-0.00483
-0.00567
-0.00495
-0.00303
-0.00049
0.00214
0.00381
0.00346
0.00146
-0.00050
-0.00143
-0.00157
-0.00056
0.00236
0.00561
0.00567
0.00181
-0.00232
-0.00351
-0.00265
-0.00219
-0.00249
-0.00261
-0.00261
-0.00295
-0.00296
-0.00175
0.00044
0.00296
0.00577
0.00826
0.00859
0.00579
0.00150
-0.00187
-0.00388
-0.00532
-0.00606
-0.00538
-0.00383
-0.00252
-0.00104
0.00148
0.00363
0.00315
0.00090
-0.00010
0.00055
0.00056
-0.00057
-0.00078
0.00076
0.00243
0.00280
0.00196
0.00049
-0.00083
-0.00111
-0.00036
0.00014
-0.00082
-0.00289
-0.00433
-0.00368
-0.00133
0.00090
0.00189
0.00201
0.00187
0.00138
0.00069
0.00059
0.00129
0.00201
0.00197
0.00121
0.00012
-0.00090
-0.00128
-0.00056
0.00063
0.00076
-0.00077
-0.00255
-0.00288
-0.00209
-0.00189
-0.00287
-0.00387
-0.00383
-0.00306
-0.00240
-0.00180
-0.00023
0.00293
0.00673
0.00942
0.01030
0.01033
0.01050
0.01037
0.00856
0.00453
-0.00099
-0.00717
-0.01317
-0.01729
-0.01807
-0.01648
-0.01459
-0.01187
-0.00599
0.00237
0.00870
0.00933
0.00478
-0.00093
-0.00249
0.00341
0.01416
0.02205
0.02172
0.01527
0.00839
0.00363
-0.00009
-0.00380
-0.00707
-0.00921
-0.00977
-0.00870
-0.00681
-0.00530
-0.00457
-0.00430
-0.00453
-0.00560
-0.00738
-0.00921
-0.01057
-0.01127
-0.01116
-0.00996
-0.00735
-0.00328
0.00191
0.00791
0.01479
0.02241
0.02932
0.03368
0.03556
0.03687
0.03835
0.03788
0.03276
0.02239
0.00790
-0.00965
-0.02944
-0.05055
-0.07226
-0.09432
-0.11589
-0.13337
-0.13997
-0.12964
-0.10079
-0.05096
0.03073
0.15183
0.28889
0.38416
0.38635
0.29294
0.14568
-0.00726
-0.13565
-0.22653
-0.27812
-0.29523
-0.28138
-0.23516
-0.15832
-0.06425
0.02616
0.09558
0.13642
0.15095
0.14752
0.13397
0.11326
0.08631
0.05668
0.02925
0.00570
-0.01520
-0.03336
-0.04617
-0.05201
-0.05295
-0.05221
-0.04984
-0.04327
-0.03223
-0.02023
-0.01050
-0.00290
0.00380
0.00960
0.01435
0.01869
0.02241
0.02388
0.02232
0.01902
0.01539
0.01137
0.00649
0.00150
-0.00206
-0.00368
-0.00428
-0.00511
-0.00644
-0.00778
-0.00889
-0.00973
-0.00944
-0.00710
-0.00354
-0.00092
0.00016
0.00118
0.00275
0.00338
0.00243
0.00169
0.00257
0.00376
0.00349
0.00206
0.00067
-0.00064
-0.00203
-0.00252
-0.00134
0.00037
0.00096
0.00074
0.00116
0.00209
0.00226
0.00182
0.00210
0.00270
0.00154
-0.00199
-0.00574
-0.00699
-0.00522
-0.00252
-0.00137
-0.00198
-0.00219
-0.00047
0.00216
0.00398
0.00477
0.00500
0.00443
0.00288
0.00114
-0.00024
-0.00169
-0.00307
-0.00303
-0.00115
0.00070
0.00062
-0.00077
-0.00134
-0.00025
0.00135
0.00189
0.00075
-0.00148
-0.00335
-0.00346
-0.00174
0.00037
0.00135
0.00114
0.00062
0.00038
0.00058
0.00131
0.00206
0.00176
0.00042
-0.00049
-0.00027
-0.00036
-0.00167
-0.00224
0.00010
0.00364
0.00430
0.00103
-0.00290
-0.00413
-0.00243
0.00040
0.00236
0.00171
-0.00159
-0.00477
-0.00482
-0.00214
0.00045
0.00169
0.00243
0.00303
0.00290
0.00240
0.00284
0.00417
0.00447
0.00251
-0.00055
-0.00258
-0.00306
-0.00324
-0.00403
-0.00474
-0.00439
-0.00302
-0.00132
-0.00004
-0.00007
-0.00157
-0.00283
-0.00197
0.00013
0.00121
0.00148
0.00312
0.00599
0.00752
0.00720
0.00721
0.00829
0.00862
0.00738
0.00567
0.00298
-0.00308
-0.01184
-0.01847
-0.02009
-0.01906
-0.01759
-0.01355
-0.00547
0.00262
0.00605
0.00567
0.00509
0.00569
0.00779
0.01264
0.01900
0.02158
0.01683
0.00791
0.00073
-0.00244
-0.00335
-0.00410
-0.00506
-0.00547
-0.00497
-0.00450
-0.00520
-0.00652
-0.00669
-0.00557
-0.00537
-0.00775
-0.01138
-0.01370
-0.01391
-0.01297
-0.01153
-0.00907
-0.00501
0.00042
0.00668
0.01358
0.02107
0.02857
0.03506
0.03991
0.04320
0.04439
0.04165
0.03374
0.02173
0.00763
-0.00784
-0.02492
-0.04379
-0.06503
-0.08902
-0.11339
-0.13268
-0.14143
-0.13623
-0.11447
-0.07164
0.00031
0.10813
0.24158
0.36016
0.40749
0.35182
0.21301
0.04604
-0.09929
-0.20204
-0.26472
-0.29532
-0.29573
-0.26295
-0.19764
-0.10965
-0.01566
0.06729
0.12681
0.15745
0.16162
0.14803
0.12642
0.10156
0.07324
0.04188
0.01171
-0.01280
-0.03076
-0.04354
-0.05195
-0.05617
-0.05630
-0.05216
-0.04397
-0.03369
-0.02394
-0.01549
-0.00731
0.00106
0.00866
0.01460
0.01886
0.02166
0.02289
0.02242
0.02042
0.01729
0.01337
0.00874
0.00342
-0.00201
-0.00611
-0.00746
-0.00619
-0.00433
-0.00411
-0.00578
-0.00760
-0.00794
-0.00664
-0.00453
-0.00288
-0.00262
-0.00297
-0.00201
0.00040
0.00234
0.00322
0.00451
0.00627
0.00642
0.00427
0.00162
0.00009
-0.00008
0.00089
0.00192
0.00104
-0.00202
-0.00481
-0.00505
-0.00310
-0.00063
0.00113
0.00156
0.00096
0.00067
0.00140
0.00186
0.00074
-0.00098
-0.00159
-0.00129
-0.00152
-0.00217
-0.00197
-0.00089
-0.00018
0.00009
0.00123
0.00323
0.00406
0.00259
0.00034
-0.00072
-0.00043
0.00039
0.00123
0.00142
0.00017
-0.00190
-0.00307
-0.00294
-0.00271
-0.00272
-0.00179
0.00041
0.00225
0.00240
0.00160
0.00143
0.00209
0.00222
0.00082
-0.00132
-0.00245
-0.00172
-0.00005
0.00105
0.00091
0.00006
-0.00072
-0.00134
-0.00197
-0.00214
-0.00092
0.00173
0.00418
0.00431
0.00165
-0.00142
-0.00178
0.00060
0.00225
0.00068
-0.00263
-0.00477
-0.00485
-0.00342
-0.00103
0.00122
0.00188
0.00135
0.00154
0.00269
0.00294
0.00162
0.00042
0.00053
0.00109
0.00114
0.00081
0.00024
-0.00078
-0.00157
-0.00109
0.00025
0.00077
-0.00021
-0.00167
-0.00261
-0.00299
-0.00316
-0.00336
-0.00347
-0.00285
-0.00131
-0.00007
-0.00041
-0.00109
0.00051
0.00440
0.00780
0.00907
0.00931
0.00957
0.00926
0.00786
0.00588
0.00302
-0.00223
-0.00986
-0.01679
-0.01984
-0.01892
-0.01573
-0.01065
-0.00341
0.00383
0.00734
0.00601
0.00221
-0.00135
-0.00254
0.00116
0.01026
0.01980
0.02282
0.01796
0.01032
0.00448
0.00063
-0.00247
-0.00484
-0.00663
-0.00837
-0.00926
-0.00790
-0.00512
-0.00342
-0.00390
-0.00546
-0.00704
-0.00886
-0.01120
-0.01340
-0.01455
-0.01425
-0.01198
-0.00727
-0.00100
0.00519
0.01138
0.01900
0.02746
0.03379
0.03648
0.03724
0.03792
0.03803
0.03550
0.02869
0.01701
0.00120
-0.01707
-0.03655
-0.05722
-0.07918
-0.10112
-0.11998
-0.13109
-0.12945
-0.11284
-0.08196
-0.03266
0.04858
0.16863
0.30115
0.38705
0.37558
0.26663
0.10827
-0.04348
-0.15815
-0.23282
-0.27528
-0.28959
-0.27305
-0.22266
-0.14315
-0.04892
0.04077
0.10891
0.14697
0.15739
0.14952
0.13116
0.10521
0.07413
0.04326
0.01699
-0.00447
-0.02203
-0.03494
-0.04313
-0.04838
-0.05108
-0.04933
-0.04291
-0.03468
-0.02660
-0.01782
-0.00821
-0.00041
0.00386
0.00654
0.00991
0.01331
0.01522
0.01649
0.01851
0.02017
0.01907
0.01483
0.00943
0.00498
0.00212
0.00021
-0.00181
-0.00439
-0.00701
-0.00886
-0.00962
-0.00971
-0.00974
-0.00967
-0.00871
-0.00641
-0.00356
-0.00103
0.00134
0.00385
0.00575
0.00625
0.00576
0.00513
0.00450
0.00366
0.00272
0.00162
0.00008
-0.00125
-0.00117
0.00014
0.00081
-0.00013
-0.00134
-0.00166
-0.00217
-0.00421
-0.00627
-0.00522
-0.00050
0.00460
0.00637
0.00434
0.00111
-0.00084
-0.00129
-0.00127
-0.00131
-0.00145
-0.00186
-0.00217
-0.00100
0.00199
0.00455
0.00410
0.00129
-0.00060
-0.00002
0.00109
0.00044
-0.00149
-0.00258
-0.00209
-0.00112
-0.00061
-0.00036
0.00002
0.00041
0.00058
0.00061
0.00061
0.00056
0.00041
0.00021
0.00001
-0.00022
-0.00040
-0.00044
-0.00042
-0.00039
-0.00011
0.00062
0.00143
0.00144
0.00042
-0.00087
-0.00149
-0.00152
-0.00163
-0.00181
-0.00113
0.00087
0.00307
0.00378
0.00256
0.00057
-0.00060
-0.00040
0.00018
-0.00015
-0.00144
-0.00250
-0.00260
-0.00216
-0.00153
-0.00028
0.00168
0.00305
0.00228
-0.00025
-0.00220
-0.00190
-0.00014
0.00129
0.00205
0.00293
0.00384
0.00348
0.00142
-0.00083
-0.00152
-0.00069
0.00005
-0.00075
-0.00309
-0.00572
-0.00718
-0.00692
-0.00559
-0.00419
-0.00297
-0.00119
0.00196
0.00627
0.01028
0.01229
0.01182
0.01012
0.00872
0.00770
0.00601
0.00324
-0.00034
-0.00512
-0.01156
-0.01783
-0.02064
-0.01909
-0.01528
-0.01057
-0.00415
0.00320
0.00758
0.00643
0.00225
0.00018
0.00331
0.01086
0.01893
0.02254
0.01912
0.01095
0.00301
-0.00155
-0.00294
-0.00303
-0.00377
-0.00599
-0.00838
-0.00863
-0.00656
-0.00465
-0.00475
-0.00610
-0.00717
-0.00762
-0.00802
-0.00923
-0.01162
-0.01387
-0.01347
-0.00956
-0.00403
0.00118
0.00626
0.01226
0.01918
0.02604
0.03192
0.03629
0.03912
0.04059
0.04019
0.03634
0.02763
0.01425
-0.00238
-0.02130
-0.04280
-0.06686
-0.09131
-0.11269
-0.12854
-0.13688
-0.13362
-0.11306
-0.07031
-0.00012
0.10251
0.22918
0.34335
0.39181
0.34321
0.21451
0.05607
-0.08591
-0.19066
-0.25741
-0.29040
-0.29061
-0.25703
-0.19267
-0.10792
-0.01781
0.06252
0.12067
0.15020
0.15404
0.14203
0.12250
0.09797
0.06933
0.04024
0.01469
-0.00655
-0.02436
-0.03801
-0.04638
-0.05048
-0.05208
-0.05096
-0.04591
-0.03769
-0.02840
-0.01893
-0.00912
0.00007
0.00697
0.01152
0.01534
0.01934
0.02266
0.02400
0.02286
0.01944
0.01446
0.00937
0.00568
0.00325
0.00034
-0.00389
-0.00777
-0.00924
-0.00865
-0.00804
-0.00830
-0.00848
-0.00772
-0.00632
-0.00486
-0.00336
-0.00165
0.00002
0.00142
0.00259
0.00363
0.00431
0.00448
0.00445
0.00446
0.00398
0.00270
0.00167
0.00219
0.00339
0.00292
0.00003
-0.00347
-0.00557
-0.00594
-0.00539
-0.00462
-0.00375
-0.00254
-0.00103
0.00042
0.00183
0.00360
0.00540
0.00617
0.00528
0.00314
0.00055
-0.00178
-0.00314
-0.00325
-0.00261
-0.00199
-0.00164
-0.00134
-0.00089
-0.00034
0.00009
0.00034
0.00071
0.00146
0.00207
0.00155
-0.00009
-0.00146
-0.00142
-0.00042
0.00033
0.00060
0.00114
0.00220
0.00285
0.00229
0.00098
-0.00015
-0.00111
-0.00239
-0.00360
-0.00376
-0.00280
-0.00173
-0.00122
-0.00064
0.00085
0.00267
0.00309
0.00164
-0.00002
-0.00015
0.00112
0.00259
0.00332
0.00259
0.00010
-0.00301
-0.00459
-0.00368
-0.00130
0.00093
0.00219
0.00244
0.00185
0.00061
-0.00083
-0.00178
-0.00186
-0.00159
-0.00169
-0.00185
-0.00126
-0.00035
-0.00029
-0.00068
0.00018
0.00257
0.00482
0.00569
0.00548
0.00462
0.00305
0.00111
-0.00071
-0.00281
-0.00584
-0.00891
-0.00985
-0.00792
-0.00513
-0.00366
-0.00306
-0.00136
0.00173
0.00460
0.00636
0.00777
0.00942
0.01070
0.01101
0.01070
0.01004
0.00824
0.00434
-0.00144
-0.00805
-0.01466
-0.02035
-0.02347
-0.02246
-0.01714
-0.00884
0.00024
0.00755
0.01104
0.01017
0.00615
0.00204
0.00192
0.00773
0.01596
0.01983
0.01603
0.00796
0.00158
-0.00072
-0.00110
-0.00254
-0.00518
-0.00671
-0.00574
-0.00380
-0.00295
-0.00332
-0.00448
-0.00754
-0.01295
-0.01759
-0.01740
-0.01249
-0.00696
-0.00400
-0.00318
-0.00239
-0.00058
0.00214
0.00561
0.01023
0.01631
0.02321
0.02963
0.03478
0.03875
0.04134
0.04112
0.03616
0.02556
0.01024
-0.00771
-0.02692
-0.04778
-0.07085
-0.09439
-0.11488
-0.12897
-0.13324
-0.12326
-0.09611
-0.05110
0.01637
0.11523
0.23962
0.34935
0.38632
0.32140
0.18079
0.02198
-0.10995
-0.20111
-0.25678
-0.28305
-0.27994
-0.24510
-0.18016
-0.09400
-0.00228
0.07669
0.12903
0.15160
0.15133
0.13775
0.11677
0.09088
0.06246
0.03478
0.01073
-0.00868
-0.02462
-0.03858
-0.04983
-0.05569
-0.05520
-0.05069
-0.04449
-0.03618
-0.02497
-0.01315
-0.00427
0.00147
0.00715
0.01418
0.02028
0.02298
0.02277
0.02153
0.01958
0.01598
0.01107
0.00686
0.00482
0.00401
0.00209
-0.00209
-0.00751
-0.01222
-0.01490
-0.01496
-0.01225
-0.00763
-0.00319
-0.00059
0.00042
0.00117
0.00223
0.00340
0.00470
0.00591
0.00581
0.00338
-0.00036
-0.00308
-0.00347
-0.00228
-0.00101
-0.00023
0.00053
0.00166
0.00255
0.00244
0.00145
0.00051
0.00016
0.00006
-0.00045
-0.00117
-0.00105
0.00010
0.00097
0.00050
-0.00067
-0.00149
-0.00199
-0.00215
-0.00117
0.00061
0.00103
-0.00097
-0.00310
-0.00241
0.00092
0.00371
0.00352
0.00124
-0.00051
-0.00081
-0.00082
-0.00084
0.00061
0.00357
0.00511
0.00301
-0.00082
-0.00287
-0.00242
-0.00141
-0.00119
-0.00134
-0.00118
-0.00090
-0.00102
-0.00154
-0.00183
-0.00113
0.00064
0.00255
0.00328
0.00216
-0.00001
-0.00131
-0.00053
0.00127
0.00188
0.00071
-0.00068
-0.00117
-0.00133
-0.00176
-0.00165
-0.00019
0.00183
0.00294
0.00267
0.00157
0.00019
-0.00111
-0.00165
-0.00086
0.00054
0.00086
-0.00040
-0.00188
-0.00247
-0.00275
-0.00328
-0.00329
-0.00205
-0.00017
0.00158
0.00324
0.00452
0.00470
0.00382
0.00264
0.00151
0.00047
0.00016
0.00110
0.00245
0.00262
0.00109
-0.00148
-0.00433
-0.00693
-0.00853
-0.00850
-0.00711
-0.00535
-0.00376
-0.00192
0.00075
0.00367
0.00551
0.00599
0.00652
0.00818
0.01013
0.01116
0.01156
0.01170
0.00984
0.00419
-0.00361
-0.00988
-0.01361
-0.01655
-0.01918
-0.01969
-0.01701
-0.01200
-0.00600
-0.00017
0.00430
0.00668
0.00697
0.00580
0.00534
0.00865
0.01572
0.02163
0.02149
0.01592
0.00916
0.00350
-0.00180
-0.00704
-0.01086
-0.01221
-0.01155
-0.00988
-0.00803
-0.00663
-0.00586
-0.00512
-0.00411
-0.00389
-0.00563
-0.00837
-0.00982
-0.00941
-0.00866
-0.00803
-0.00576
-0.00098
0.00464
0.00949
0.01438
0.02074
0.02800
0.03402
0.03725
0.03789
0.03713
0.03525
0.03067
0.02108
0.00568
-0.01420
-0.03632
-0.05901
-0.08158
-0.10352
-0.12283
-0.13490
-0.13416
-0.11713
-0.08220
-0.02496
0.06288
0.18136
0.30429
0.38064
0.36685
0.26218
0.10915
-0.04068
-0.15756
-0.23608
-0.28016
-0.29200
-0.27132
-0.21925
-0.14164
-0.05043
0.03762
0.10573
0.14462
0.15618
0.14903
0.13089
0.10590
0.07708
0.04820
0.02261
0.00137
-0.01657
-0.03223
-0.04498
-0.05296
-0.05507
-0.05204
-0.04599
-0.03893
-0.03136
-0.02254
-0.01234
-0.00228
0.00590
0.01174
0.01579
0.01863
0.02069
0.02214
0.02240
0.02035
0.01590
0.01067
0.00661
0.00381
0.00069
-0.00340
-0.00687
-0.00817
-0.00827
-0.00918
-0.01064
-0.01022
-0.00708
-0.00350
-0.00194
-0.00198
-0.00163
-0.00048
0.00030
0.00060
0.00174
0.00412
0.00619
0.00650
0.00552
0.00446
0.00336
0.00158
-0.00050
-0.00176
-0.00218
-0.00276
-0.00381
-0.00434
-0.00345
-0.00150
0.00040
0.00135
0.00127
0.00067
0.00015
-0.00001
0.00008
0.00019
0.00038
0.00090
0.00176
0.00255
0.00278
0.00230
0.00095
-0.00137
-0.00391
-0.00513
-0.00430
-0.00254
-0.00117
-0.00002
0.00161
0.00313
0.00328
0.00224
0.00129
0.00079
0.00005
-0.00091
-0.00119
-0.00054
0.00024
0.00048
0.00033
0.00023
0.00026
0.00002
-0.00076
-0.00158
-0.00142
-0.00012
0.00108
0.00110
0.00029
-0.00045
-0.00087
-0.00105
-0.00084
-0.00044
-0.00061
-0.00158
-0.00233
-0.00171
0.00043
0.00324
0.00536
0.00552
0.00377
0.00180
0.00102
0.00064
-0.00096
-0.00343
-0.00473
-0.00392
-0.00235
-0.00172
-0.00209
-0.00229
-0.00158
-0.00032
0.00081
0.00136
0.00119
0.00083
0.00131
0.00289
0.00435
0.00436
0.00298
0.00115
-0.00054
-0.00173
-0.00192
-0.00109
-0.00003
0.00059
0.00097
0.00136
0.00086
-0.00168
-0.00541
-0.00756
-0.00670
-0.00464
-0.00388
-0.00404
-0.00280
0.00041
0.00374
0.00574
0.00690
0.00803
0.00902
0.00967
0.01007
0.00959
0.00724
0.00363
0.00057
-0.00195
-0.00618
-0.01278
-0.01876
-0.02093
-0.01931
-0.01527
-0.00863
0.00035
0.00806
0.00979
0.00509
-0.00113
-0.00272
0.00310
0.01394
0.02347
0.02562
0.01930
0.00925
0.00137
-0.00255
-0.00465
-0.00675
-0.00832
-0.00849
-0.00761
-0.00632
-0.00488
-0.00416
-0.00547
-0.00832
-0.01019
-0.00948
-0.00769
-0.00751
-0.00957
-0.01207
-0.01260
-0.00982
-0.00389
0.00367
0.01109
0.01785
0.02480
0.03245
0.03952
0.04360
0.04336
0.03976
0.03437
0.02685
0.01532
-0.00069
-0.01948
-0.03962
-0.06129
-0.08443
-0.10749
-0.12764
-0.13982
-0.13672
-0.11347
-0.07042
-0.00645
0.08544
0.20345
0.31690
0.37484
0.34401
0.23475
0.08834
-0.05334
-0.16519
-0.23933
-0.27856
-0.28729
-0.26531
-0.21092
-0.12997
-0.03830
0.04535
0.10759
0.14320
0.15401
0.14650
0.12832
0.10469
0.07768
0.04884
0.02113
-0.00238
-0.02062
-0.03437
-0.04430
-0.05045
-0.05315
-0.05316
-0.05052
-0.04437
-0.03453
-0.02256
-0.01069
-0.00020
0.00853
0.01517
0.01959
0.02215
0.02332
0.02312
0.02145
0.01858
0.01491
0.01057
0.00575
0.00119
-0.00205
-0.00365
-0.00466
-0.00638
-0.00871
-0.01021
-0.01013
-0.00934
-0.00862
-0.00736
-0.00479
-0.00163
0.00065
0.00160
0.00193
0.00229
0.00270
0.00311
0.00347
0.00359
0.00355
0.00387
0.00449
0.00417
0.00229
0.00044
0.00032
0.00067
-0.00119
-0.00504
-0.00743
-0.00595
-0.00179
0.00212
0.00380
0.00293
0.00040
-0.00230
-0.00405
-0.00462
-0.00407
-0.00229
0.00043
0.00321
0.00517
0.00584
0.00505
0.00302
0.00083
-0.00032
-0.00032
-0.00013
-0.00043
-0.00093
-0.00116
-0.00131
-0.00195
-0.00290
-0.00306
-0.00187
-0.00048
-0.00040
-0.00154
-0.00223
-0.00126
0.00093
0.00297
0.00390
0.00388
0.00370
0.00355
0.00289
0.00154
0.00001
-0.00123
-0.00211
-0.00265
-0.00305
-0.00377
-0.00439
-0.00361
-0.00144
0.00013
0.00006
0.00012
0.00188
0.00385
0.00387
0.00269
0.00226
0.00208
0.00051
-0.00158
-0.00167
0.00018
0.00122
0.00004
-0.00168
-0.00205
-0.00138
-0.00105
-0.00153
-0.00224
-0.00260
-0.00234
-0.00132
0.00020
0.00142
0.00195
0.00237
0.00328
0.00435
0.00502
0.00517
0.00464
0.00287
-0.00012
-0.00311
-0.00482
-0.00537
-0.00582
-0.00649
-0.00657
-0.00534
-0.00329
-0.00172
-0.00142
-0.00164
-0.00069
0.00205
0.00530
0.00744
0.00834
0.00897
0.00967
0.00990
0.00927
0.00793
0.00591
0.00286
-0.00164
-0.00767
-0.01460
-0.02056
-0.02298
-0.02062
-0.01473
-0.00745
-0.00027
0.00553
0.00835
0.00747
0.00413
0.00140
0.00283
0.00979
0.01904
0.02433
0.02174
0.01317
0.00395
-0.00221
-0.00527
-0.00691
-0.00798
-0.00831
-0.00794
-0.00747
-0.00744
-0.00787
-0.00842
-0.00880
-0.00902
-0.00937
-0.00991
-0.01025
-0.00993
-0.00871
-0.00653
-0.00329
0.00107
0.00640
0.01240
0.01875
0.02505
0.03075
0.03521
0.03791
0.03841
0.03611
0.03043
0.02135
0.00952
-0.00440
-0.02040
-0.03864
-0.05871
-0.07927
-0.09836
-0.11344
-0.12105
-0.11732
-0.09978
-0.06718
-0.01519
0.06469
0.17277
0.28373
0.35040
0.33533
0.23982
0.10044
-0.03883
-0.14939
-0.22275
-0.26294
-0.27522
-0.25894
-0.21102
-0.13529
-0.04577
0.03904
0.10372
0.14032
0.14988
0.14075
0.12276
0.10128
0.07662
0.04852
0.01979
-0.00472
-0.02216
-0.03321
-0.04015
-0.04468
-0.04740
-0.04796
-0.04538
-0.03938
-0.03133
-0.02282
-0.01400
-0.00460
0.00434
0.01135
0.01620
0.01959
0.02171
0.02224
0.02117
0.01885
0.01567
0.01194
0.00781
0.00330
-0.00118
-0.00457
-0.00620
-0.00678
-0.00771
-0.00936
-0.01060
-0.01011
-0.00765
-0.00432
-0.00170
-0.00064
-0.00072
-0.00082
0.00000
0.00200
0.00448
0.00582
0.00473
0.00195
-0.00013
-0.00011
0.00103
0.00182
0.00223
0.00279
0.00307
0.00210
-0.00010
-0.00250
-0.00417
-0.00470
-0.00394
-0.00203
0.00017
0.00159
0.00180
0.00102
-0.00018
-0.00090
-0.00070
-0.00056
-0.00148
-0.00235
-0.00104
0.00219
0.00453
0.00427
0.00263
0.00143
0.00067
-0.00063
-0.00219
-0.00285
-0.00238
-0.00168
-0.00135
-0.00115
-0.00078
-0.00033
0.00006
0.00047
0.00088
0.00132
0.00193
0.00267
0.00294
0.00208
0.00019
-0.00179
-0.00290
-0.00271
-0.00146
0.00012
0.00106
0.00078
-0.00032
-0.00124
-0.00130
-0.00058
0.00034
0.00066
-0.00021
-0.00173
-0.00206
0.00007
0.00351
0.00563
0.00488
0.00201
-0.00077
-0.00200
-0.00234
-0.00346
-0.00499
-0.00450
-0.00120
0.00238
0.00363
0.00266
0.00092
-0.00070
-0.00143
-0.00039
0.00173
0.00277
0.00174
0.00000
-0.00078
-0.00043
0.00044
0.00149
0.00206
0.00106
-0.00124
-0.00268
-0.00196
-0.00095
-0.00218
-0.00490
-0.00616
-0.00514
-0.00383
-0.00332
-0.00196
0.00155
0.00552
0.00769
0.00873
0.01086
0.01366
0.01405
0.01065
0.00553
0.00116
-0.00263
-0.00767
-0.01438
-0.02054
-0.02284
-0.02001
-0.01406
-0.00788
-0.00219
0.00394
0.00950
0.01090
0.00661
0.00115
0.00175
0.01013
0.01970
0.02223
0.01638
0.00780
0.00204
-0.00031
-0.00190
-0.00438
-0.00718
-0.00887
-0.00870
-0.00711
-0.00566
-0.00589
-0.00771
-0.00921
-0.00873
-0.00679
-0.00558
-0.00656
-0.00891
-0.01021
-0.00879
-0.00542
-0.00203
0.00128
0.00639
0.01403
0.02199
0.02772
0.03146
0.03495
0.03795
0.03806
0.03425
0.02797
0.02003
0.00861
-0.00804
-0.02898
-0.05190
-0.07512
-0.09684
-0.11416
-0.12428
-0.12512
-0.11419
-0.08802
-0.04169
0.03216
0.13755
0.25868
0.35178
0.36771
0.29060
0.15061
-0.00152
-0.12707
-0.21140
-0.25769
-0.27501
-0.26756
-0.23254
-0.16820
-0.08227
0.00863
0.08563
0.13470
0.15276
0.14848
0.13380
0.11415
0.08878
0.05873
0.02942
0.00543
-0.01330
-0.02876
-0.04113
-0.04892
-0.05153
-0.05018
-0.04660
-0.04155
-0.03499
-0.02724
-0.01902
-0.01077
-0.00238
0.00623
0.01463
0.02171
0.02601
0.02693
0.02530
0.02248
0.01910
0.01506
0.01048
0.00579
0.00130
-0.00288
-0.00655
-0.00959
-0.01204
-0.01386
-0.01452
-0.01337
-0.01044
-0.00666
-0.00318
-0.00066
0.00095
0.00219
0.00386
0.00616
0.00776
0.00679
0.00365
0.00130
0.00154
0.00256
0.00174
-0.00043
-0.00155
-0.00113
-0.00084
-0.00141
-0.00157
-0.00030
0.00141
0.00179
0.00039
-0.00146
-0.00208
-0.00133
-0.00085
-0.00193
-0.00347
-0.00336
-0.00121
0.00117
0.00212
0.00179
0.00144
0.00188
0.00262
0.00264
0.00170
0.00058
-0.00004
-0.00033
-0.00065
-0.00091
-0.00092
-0.00085
-0.00090
-0.00085
-0.00058
-0.00048
-0.00082
-0.00095
-0.00028
0.00057
0.00066
0.00025
-0.00010
-0.00063
-0.00127
-0.00094
0.00056
0.00179
0.00205
0.00211
0.00208
0.00103
-0.00050
-0.00060
0.00068
0.00096
-0.00100
-0.00345
-0.00411
-0.00284
-0.00112
-0.00015
0.00023
0.00090
0.00220
0.00318
0.00267
0.00088
-0.00067
-0.00093
-0.00024
0.00045
0.00055
0.00001
-0.00082
-0.00135
-0.00138
-0.00116
-0.00052
0.00103
0.00283
0.00314
0.00157
0.00005
0.00020
0.00105
0.00073
-0.00093
-0.00270
-0.00382
-0.00445
-0.00484
-0.00511
-0.00518
-0.00434
-0.00183
0.00177
0.00457
0.00564
0.00627
0.00806
0.01043
0.01127
0.00978
0.00722
0.00483
0.00229
-0.00140
-0.00664
-0.01273
-0.01785
-0.01968
-0.01745
-0.01291
-0.00818
-0.00308
0.00342
0.00946
0.01056
0.00515
-0.00188
-0.00306
0.00435
0.01554
0.02274
0.02206
0.01553
0.00748
0.00070
-0.00425
-0.00767
-0.00984
-0.01066
-0.00977
-0.00741
-0.00494
-0.00390
-0.00431
-0.00456
-0.00365
-0.00298
-0.00474
-0.00841
-0.01111
-0.01144
-0.01068
-0.00971
-0.00729
-0.00242
0.00399
0.01059
0.01713
0.02377
0.03003
0.03510
0.03833
0.03933
0.03790
0.03381
0.02624
0.01397
-0.00326
-0.02377
-0.04477
-0.06437
-0.08261
-0.10033
-0.11678
-0.12772
-0.12576
-0.10422
-0.06083
0.00469
0.09498
0.20636
0.31114
0.36085
0.32144
0.20434
0.05686
-0.07476
-0.16996
-0.23069
-0.26495
-0.27441
-0.25376
-0.19918
-0.11684
-0.02365
0.05973
0.11818
0.14753
0.15265
0.14134
0.12027
0.09467
0.06805
0.04165
0.01590
-0.00750
-0.02624
-0.03952
-0.04804
-0.05248
-0.05296
-0.04972
-0.04363
-0.03580
-0.02685
-0.01699
-0.00689
0.00191
0.00818
0.01247
0.01619
0.01960
0.02163
0.02164
0.02018
0.01784
0.01464
0.01065
0.00644
0.00239
-0.00171
-0.00578
-0.00875
-0.00971
-0.00943
-0.00929
-0.00907
-0.00716
-0.00341
-0.00036
-0.00026
-0.00206
-0.00280
-0.00163
-0.00040
-0.00027
0.00006
0.00192
0.00430
0.00527
0.00463
0.00364
0.00303
0.00247
0.00166
0.00083
0.00020
-0.00032
-0.00081
-0.00120
-0.00146
-0.00163
-0.00171
-0.00168
-0.00166
-0.00169
-0.00159
-0.00137
-0.00142
-0.00177
-0.00156
-0.00003
0.00215
0.00341
0.00315
0.00233
0.00218
0.00268
0.00252
0.00078
-0.00169
-0.00313
-0.00301
-0.00234
-0.00204
-0.00188
-0.00137
-0.00062
0.00002
0.00059
0.00146
0.00258
0.00339
0.00325
0.00193
-0.00022
-0.00199
-0.00201
-0.00045
0.00066
-0.00005
-0.00135
-0.00147
-0.00076
-0.00064
-0.00112
-0.00141
-0.00144
-0.00122
-0.00005
0.00206
0.00364
0.00333
0.00130
-0.00092
-0.00141
0.00037
0.00227
0.00167
-0.00080
-0.00203
-0.00119
-0.00048
-0.00107
-0.00159
-0.00115
-0.00066
-0.00090
-0.00146
-0.00159
-0.00063
0.00155
0.00378
0.00469
0.00439
0.00380
0.00287
0.00118
-0.00046
-0.00101
-0.00115
-0.00253
-0.00534
-0.00781
-0.00812
-0.00594
-0.00252
0.00025
0.00121
0.00078
0.00019
0.00033
0.00159
0.00419
0.00747
0.00961
0.00957
0.00866
0.00852
0.00819
0.00568
0.00147
-0.00240
-0.00620
-0.01193
-0.01875
-0.02243
-0.02027
-0.01403
-0.00690
0.00018
0.00709
0.01136
0.00955
0.00240
-0.00349
-0.00127
0.00899
0.01973
0.02291
0.01741
0.00911
0.00388
0.00177
-0.00089
-0.00527
-0.00865
-0.00889
-0.00737
-0.00638
-0.00638
-0.00671
-0.00711
-0.00744
-0.00753
-0.00772
-0.00836
-0.00881
-0.00828
-0.00736
-0.00702
-0.00658
-0.00414
0.00091
0.00731
0.01377
0.02010
0.02632
0.03188
0.03591
0.03776
0.03707
0.03371
0.02723
0.01690
0.00291
-0.01270
-0.02791
-0.04348
-0.06202
-0.08379
-0.10469
-0.11936
-0.12447
-0.11780
-0.09531
-0.04992
0.02600
0.13266
0.25070
0.33820
0.35111
0.27627
0.14348
0.00211
-0.11243
-0.19096
-0.23903
-0.26159
-0.25752
-0.22362
-0.16104
-0.07855
0.00809
0.08019
0.12430
0.13983
0.13672
0.12411
0.10439
0.07886
0.05270
0.03074
0.01226
-0.00570
-0.02277
-0.03614
-0.04479
-0.04959
-0.05048
-0.04685
-0.03975
-0.03162
-0.02378
-0.01619
-0.00868
-0.00110
0.00677
0.01418
0.01929
0.02130
0.02139
0.02072
0.01889
0.01548
0.01168
0.00894
0.00696
0.00425
0.00023
-0.00426
-0.00794
-0.00993
-0.01039
-0.01024
-0.00981
-0.00834
-0.00587
-0.00410
-0.00397
-0.00381
-0.00167
0.00166
0.00384
0.00423
0.00405
0.00422
0.00451
0.00447
0.00404
0.00346
0.00315
0.00311
0.00247
0.00043
-0.00234
-0.00435
-0.00506
-0.00487
-0.00383
-0.00179
0.00026
0.00052
-0.00153
-0.00392
-0.00387
-0.00071
0.00348
0.00625
0.00694
0.00598
0.00341
-0.00028
-0.00293
-0.00283
-0.00141
-0.00138
-0.00274
-0.00320
-0.00203
-0.00053
0.00063
0.00182
0.00261
0.00214
0.00091
-0.00002
-0.00082
-0.00220
-0.00353
-0.00349
-0.00174
0.00100
0.00395
0.00617
0.00632
0.00363
-0.00067
-0.00373
-0.00370
-0.00171
-0.00063
-0.00154
-0.00266
-0.00191
0.00057
0.00265
0.00254
0.00068
-0.00065
-0.00015
0.00038
-0.00135
-0.00425
-0.00491
-0.00232
0.00095
0.00242
0.00197
0.00094
0.00114
0.00364
0.00665
0.00651
0.00272
-0.00058
-0.00037
0.00090
-0.00073
-0.00482
-0.00743
-0.00647
-0.00353
-0.00087
0.00086
0.00178
0.00172
0.00093
0.00012
-0.00064
-0.00165
-0.00231
-0.00198
-0.00181
-0.00338
-0.00535
-0.00431
0.00067
0.00682
0.01138
0.01381
0.01404
0.01186
0.00831
0.00506
0.00209
-0.00150
-0.00532
-0.00897
-0.01361
-0.01921
-0.02244
-0.02056
-0.01480
-0.00754
0.00090
0.00944
0.01398
0.01173
0.00582
0.00251
0.00474
0.01019
0.01452
0.01541
0.01350
0.01026
0.00599
0.00058
-0.00472
-0.00790
-0.00860
-0.00835
-0.00821
-0.00762
-0.00597
-0.00411
-0.00341
-0.00413
-0.00556
-0.00715
-0.00879
-0.01027
-0.01111
-0.01097
-0.00971
-0.00724
-0.00346
0.00154
0.00752
0.01415
0.02106
0.02772
0.03348
0.03777
0.04012
0.03988
0.03641
0.02954
0.01941
0.00579
-0.01168
-0.03201
-0.05267
-0.07210
-0.09139
-0.11163
-0.12920
-0.13571
-0.12436
-0.09416
-0.04357
0.03732
0.15582
0.28933
0.37980
0.37344
0.26868
0.11574
-0.02962
-0.14113
-0.21696
-0.26082
-0.27546
-0.26241
-0.22007
-0.14807
-0.05708
0.03103
0.09650
0.13276
0.14433
0.13878
0.12289
0.10200
0.07850
0.05217
0.02453
0.00046
-0.01669
-0.02895
-0.03958
-0.04769
-0.05019
-0.04702
-0.04130
-0.03537
-0.02932
-0.02258
-0.01485
-0.00602
0.00316
0.01072
0.01507
0.01694
0.01834
0.01971
0.01975
0.01793
0.01522
0.01202
0.00754
0.00238
-0.00079
-0.00093
-0.00101
-0.00388
-0.00780
-0.00917
-0.00838
-0.00876
-0.01052
-0.01016
-0.00639
-0.00230
-0.00039
0.00066
0.00269
0.00479
0.00532
0.00466
0.00416
0.00405
0.00366
0.00274
0.00171
0.00091
0.00014
-0.00105
-0.00255
-0.00345
-0.00312
-0.00219
-0.00145
-0.00069
0.00053
0.00155
0.00150
0.00074
0.00023
0.00016
0.00009
-0.00012
-0.00025
-0.00023
-0.00020
-0.00022
-0.00022
-0.00016
-0.00012
-0.00009
-0.00006
-0.00002
0.00001
0.00004
0.00009
0.00013
0.00013
0.00016
0.00027
0.00031
0.00023
0.00026
0.00048
0.00051
0.00017
0.00016
0.00081
0.00084
-0.00108
-0.00360
-0.00386
-0.00150
0.00087
0.00136
0.00090
0.00118
0.00237
0.00325
0.00283
0.00133
-0.00003
-0.00042
-0.00064
-0.00222
-0.00500
-0.00655
-0.00483
-0.00082
0.00237
0.00284
0.00154
0.00072
0.00143
0.00288
0.00369
0.00304
0.00117
-0.00054
-0.00059
0.00069
0.00144
0.00108
0.00095
0.00144
0.00064
-0.00230
-0.00508
-0.00540
-0.00407
-0.00317
-0.00293
-0.00238
-0.00172
-0.00184
-0.00234
-0.00189
-0.00023
0.00161
0.00315
0.00498
0.00745
0.00962
0.01037
0.00975
0.00847
0.00665
0.00410
0.00114
-0.00223
-0.00706
-0.01343
-0.01850
-0.01923
-0.01635
-0.01279
-0.00876
-0.00211
0.00644
0.01219
0.01139
0.00529
-0.00111
-0.00287
0.00206
0.01136
0.01936
0.02095
0.01532
0.00630
-0.00123
-0.00504
-0.00642
-0.00762
-0.00916
-0.00961
-0.00758
-0.00364
-0.00032
0.00041
-0.00078
-0.00193
-0.00283
-0.00471
-0.00754
-0.01005
-0.01183
-0.01313
-0.01316
-0.01081
-0.00658
-0.00180
0.00370
0.01110
0.02002
0.02813
0.03363
0.03682
0.03878
0.03960
0.03825
0.03347
0.02404
0.00909
-0.01051
-0.03162
-0.05156
-0.07069
-0.09021
-0.10834
-0.12106
-0.12582
-0.12077
-0.09989
-0.05166
0.03416
0.15355
0.27734
0.35696
0.35213
0.26059
0.11983
-0.02133
-0.13220
-0.20637
-0.24898
-0.26345
-0.24854
-0.20372
-0.13499
-0.05512
0.02097
0.08126
0.11935
0.13495
0.13274
0.11955
0.10078
0.07836
0.05254
0.02513
0.00019
-0.01878
-0.03138
-0.03955
-0.04469
-0.04647
-0.04435
-0.03907
-0.03227
-0.02516
-0.01830
-0.01195
-0.00611
-0.00044
0.00529
0.01096
0.01606
0.01955
0.02002
0.01734
0.01397
0.01280
0.01351
0.01306
0.01005
0.00635
0.00344
0.00016
-0.00451
-0.00912
-0.01206
-0.01371
-0.01487
-0.01538
-0.01551
-0.01593
-0.01566
-0.01267
-0.00694
-0.00011
0.00750
0.01611
0.02356
0.02693
0.02659
0.02528
0.02356
0.01928
0.01127
0.00091
-0.00999
-0.02084
-0.03150
-0.04076
-0.04555
-0.04205
-0.02885
-0.00989
0.00721
0.01745
0.02228
0.02623
0.03045
0.03183
0.02796
0.02042
0.01233
0.00511
-0.00104
-0.00574
-0.00926
-0.01266
-0.01578
-0.01699
-0.01583
-0.01383
-0.01198
-0.00953
-0.00633
-0.00400
-0.00327
-0.00195
0.00256
0.00935
0.01432
0.01482
0.01266
0.01089
0.00935
0.00604
0.00184
-0.00026
-0.00057
-0.00248
-0.00628
-0.00803
-0.00578
-0.00270
-0.00212
-0.00316
-0.00347
-0.00314
-0.00349
-0.00407
-0.00341
-0.00164
-0.00010
0.00107
0.00288
0.00529
0.00663
0.00580
0.00374
0.00196
0.00072
-0.00035
-0.00093
-0.00045
0.00055
0.00072
-0.00037
-0.00153
-0.00129
0.00013
0.00087
-0.00018
-0.00177
-0.00199
-0.00090
-0.00005
-0.00010
-0.00052
-0.00120
-0.00243
-0.00354
-0.00338
-0.00214
-0.00119
-0.00124
-0.00180
-0.00209
-0.00141
0.00072
0.00390
0.00675
0.00827
0.00881
0.00920
0.00955
0.00920
0.00756
0.00483
0.00164
-0.00233
-0.00840
-0.01618
-0.02195
-0.02229
-0.01819
-0.01322
-0.00834
-0.00178
0.00632
0.01214
0.01207
0.00709
0.00266
0.00385
0.01046
0.01727
0.01908
0.01472
0.00679
-0.00059
-0.00445
-0.00520
-0.00574
-0.00727
-0.00761
-0.00511
-0.00182
-0.00067
-0.00161
-0.00265
-0.00325
-0.00443
-0.00652
-0.00885
-0.01111
-0.01333
-0.01458
-0.01350
-0.01016
-0.00601
-0.00190
0.00273
0.00857
0.01546
0.02260
0.02906
0.03419
0.03815
0.04124
0.04246
0.03978
0.03219
0.02031
0.00492
-0.01386
-0.03542
-0.05824
-0.08104
-0.10331
-0.12356
-0.13744
-0.13863
-0.12281
-0.08871
-0.03181
0.05918
0.18687
0.32018
0.39745
0.37116
0.24991
0.08900
-0.05665
-0.16324
-0.23181
-0.26921
-0.27894
-0.26046
-0.21173
-0.13542
-0.04474
0.03996
0.10240
0.13754
0.14861
0.14145
0.12286
0.09977
0.07596
0.05100
0.02449
-0.00043
-0.01974
-0.03286
-0.04208
-0.04885
-0.05240
-0.05173
-0.04702
-0.03895
-0.02841
-0.01720
-0.00748
0.00007
0.00636
0.01192
0.01611
0.01846
0.01934
0.01883
0.01649
0.01280
0.00967
0.00823
0.00725
0.00505
0.00190
-0.00051
-0.00186
-0.00356
-0.00637
-0.00887
-0.00920
-0.00750
-0.00564
-0.00476
-0.00426
-0.00326
-0.00190
-0.00075
0.00019
0.00113
0.00181
0.00186
0.00167
0.00217
0.00352
0.00459
0.00404
0.00185
-0.00023
-0.00052
0.00034
0.00002
-0.00180
-0.00235
-0.00001
0.00264
0.00235
-0.00000
-0.00111
-0.00040
-0.00036
-0.00207
-0.00341
-0.00246
-0.00065
-0.00044
-0.00141
-0.00114
0.00056
0.00138
0.00067
0.00046
0.00154
0.00217
0.00165
0.00172
0.00293
0.00308
0.00081
-0.00195
-0.00291
-0.00245
-0.00239
-0.00321
-0.00367
-0.00254
-0.00028
0.00140
0.00153
0.00106
0.00159
0.00337
0.00511
0.00530
0.00332
-0.00008
-0.00286
-0.00334
-0.00205
-0.00120
-0.00206
-0.00362
-0.00411
-0.00280
-0.00034
0.00189
0.00260
0.00141
-0.00080
-0.00248
-0.00244
-0.00046
0.00248
0.00470
0.00499
0.00348
0.00137
0.00014
0.00046
0.00144
0.00155
0.00040
-0.00097
-0.00174
-0.00209
-0.00218
-0.00178
-0.00124
-0.00144
-0.00228
-0.00248
-0.00155
-0.00092
-0.00214
-0.00459
-0.00575
-0.00394
-0.00022
0.00283
0.00394
0.00414
0.00510
0.00735
0.00975
0.01048
0.00900
0.00687
0.00584
0.00513
0.00213
-0.00405
-0.01141
-0.01727
-0.01995
-0.01878
-0.01459
-0.00948
-0.00453
0.00117
0.00729
0.01017
0.00692
0.00035
-0.00279
0.00165
0.01127
0.01920
0.01997
0.01423
0.00738
0.00314
0.00020
-0.00376
-0.00748
-0.00826
-0.00663
-0.00534
-0.00489
-0.00354
-0.00142
-0.00103
-0.00337
-0.00643
-0.00831
-0.00949
-0.01101
-0.01233
-0.01243
-0.01154
-0.01014
-0.00719
-0.00150
0.00589
0.01271
0.01860
0.02499
0.03200
0.03771
0.04050
0.04049
0.03817
0.03307
0.02417
0.01122
-0.00468
-0.02215
-0.04104
-0.06206
-0.08479
-0.10696
-0.12520
-0.13516
-0.13197
-0.11165
-0.06962
0.00319
0.11332
0.24411
0.34792
0.37408
0.30857
0.18129
0.03752
-0.09001
-0.18686
-0.24975
-0.27958
-0.27649
-0.23937
-0.17155
-0.08560
-0.00009
0.06882
0.11332
0.13437
0.13773
0.12894
0.11141
0.08815
0.06296
0.03861
0.01580
-0.00510
-0.02270
-0.03569
-0.04396
-0.04813
-0.04873
-0.04626
-0.04115
-0.03376
-0.02518
-0.01730
-0.01098
-0.00478
0.00292
0.01128
0.01769
0.02089
0.02181
0.02159
0.02035
0.01796
0.01472
0.01097
0.00697
0.00306
-0.00049
-0.00391
-0.00717
-0.00932
-0.00973
-0.00949
-0.01012
-0.01098
-0.00981
-0.00598
-0.00170
0.00082
0.00199
0.00361
0.00557
0.00578
0.00356
0.00118
0.00092
0.00206
0.00226
0.00083
-0.00089
-0.00187
-0.00238
-0.00245
-0.00106
0.00211
0.00509
0.00550
0.00351
0.00099
-0.00127
-0.00336
-0.00441
-0.00342
-0.00138
-0.00027
-0.00068
-0.00160
-0.00188
-0.00099
0.00070
0.00199
0.00199
0.00114
0.00050
0.00020
-0.00037
-0.00110
-0.00117
-0.00050
0.00019
0.00086
0.00209
0.00336
0.00326
0.00172
0.00013
-0.00086
-0.00201
-0.00353
-0.00417
-0.00290
-0.00045
0.00148
0.00202
0.00166
0.00122
0.00090
0.00052
0.00002
-0.00048
-0.00090
-0.00118
-0.00127
-0.00123
-0.00103
-0.00037
0.00079
0.00154
0.00094
-0.00023
0.00006
0.00193
0.00276
0.00093
-0.00135
-0.00127
0.00019
-0.00020
-0.00265
-0.00389
-0.00196
0.00122
0.00302
0.00340
0.00358
0.00348
0.00254
0.00150
0.00109
0.00024
-0.00237
-0.00557
-0.00667
-0.00510
-0.00314
-0.00284
-0.00342
-0.00299
-0.00159
-0.00084
-0.00085
0.00027
0.00332
0.00640
0.00778
0.00830
0.00951
0.01075
0.01017
0.00766
0.00472
0.00195
-0.00178
-0.00713
-0.01289
-0.01711
-0.01906
-0.01924
-0.01765
-0.01302
-0.00458
0.00552
0.01271
0.01357
0.00892
0.00331
0.00168
0.00575
0.01271
0.01724
0.01579
0.00953
0.00304
-0.00035
-0.00153
-0.00362
-0.00732
-0.00975
-0.00833
-0.00437
-0.00147
-0.00116
-0.00200
-0.00254
-0.00320
-0.00487
-0.00729
-0.00955
-0.01132
-0.01263
-0.01310
-0.01218
-0.00987
-0.00659
-0.00208
0.00452
0.01315
0.02210
0.02960
0.03531
0.03967
0.04238
0.04242
0.03918
0.03264
0.02258
0.00861
-0.00889
-0.02854
-0.04916
-0.07100
-0.09474
-0.11893
-0.13836
-0.14586
-0.13608
-0.10586
-0.04958
0.04201
0.16860
0.30160
0.38667
0.37808
0.27526
0.12238
-0.02751
-0.14408
-0.22171
-0.26459
-0.27688
-0.26091
-0.21738
-0.14801
-0.06147
0.02450
0.09089
0.12883
0.14222
0.13975
0.12651
0.10422
0.07614
0.04816
0.02470
0.00597
-0.01027
-0.02516
-0.03738
-0.04488
-0.04724
-0.04594
-0.04268
-0.03818
-0.03248
-0.02534
-0.01667
-0.00736
0.00089
0.00719
0.01214
0.01630
0.01926
0.02077
0.02101
0.01971
0.01670
0.01313
0.01026
0.00759
0.00384
-0.00065
-0.00449
-0.00744
-0.01015
-0.01209
-0.01209
-0.01061
-0.00914
-0.00757
-0.00425
0.00078
0.00480
0.00538
0.00293
-0.00003
-0.00146
-0.00114
0.00011
0.00184
0.00407
0.00578
0.00492
0.00135
-0.00173
-0.00131
0.00148
0.00303
0.00195
0.00002
-0.00096
-0.00136
-0.00225
-0.00327
-0.00294
-0.00085
0.00126
0.00131
-0.00073
-0.00293
-0.00352
-0.00226
0.00009
0.00244
0.00367
0.00310
0.00124
-0.00041
-0.00080
-0.00019
0.00038
0.00050
0.00067
0.00132
0.00191
0.00142
-0.00020
-0.00182
-0.00243
-0.00200
-0.00124
-0.00101
-0.00182
-0.00307
-0.00310
-0.00099
0.00209
0.00419
0.00481
0.00481
0.00454
0.00320
0.00060
-0.00185
-0.00263
-0.00224
-0.00234
-0.00329
-0.00394
-0.00384
-0.00360
-0.00316
-0.00145
0.00168
0.00468
0.00595
0.00511
0.00291
0.00078
0.00010
0.00091
0.00142
0.00010
-0.00206
-0.00265
-0.00126
-0.00020
-0.00129
-0.00343
-0.00416
-0.00236
0.00119
0.00470
0.00644
0.00584
0.00391
0.00193
0.00008
-0.00206
-0.00429
-0.00608
-0.00767
-0.00949
-0.01042
-0.00842
-0.00348
0.00162
0.00466
0.00652
0.00904
0.01195
0.01377
0.01421
0.01365
0.01152
0.00738
0.00256
-0.00161
-0.00652
-0.01414
-0.02242
-0.02622
-0.02339
-0.01687
-0.00985
-0.00254
0.00488
0.00975
0.00980
0.00652
0.00369
0.00394
0.00760
0.01326
0.01803
0.01883
0.01482
0.00831
0.00222
-0.00256
-0.00658
-0.00955
-0.01040
-0.00926
-0.00771
-0.00668
-0.00558
-0.00392
-0.00229
-0.00158
-0.00219
-0.00405
-0.00661
-0.00903
-0.01078
-0.01164
-0.01118
-0.00919
-0.00633
-0.00309
0.00151
0.00894
0.01879
0.02827
0.03460
0.03733
0.03826
0.03906
0.03916
0.03608
0.02766
0.01379
-0.00381
-0.02315
-0.04364
-0.06606
-0.09043
-0.11417
-0.13263
-0.14106
-0.13572
-0.11359
-0.06950
0.00663
0.12217
0.26107
0.37346
0.40135
0.32403
0.17534
0.01426
-0.11654
-0.20541
-0.25864
-0.28283
-0.27810
-0.24163
-0.17482
-0.08796
0.00125
0.07478
0.12223
0.14348
0.14469
0.13275
0.11289
0.08894
0.06361
0.03850
0.01487
-0.00595
-0.02303
-0.03620
-0.04565
-0.05130
-0.05273
-0.04973
-0.04312
-0.03463
-0.02586
-0.01753
-0.00977
-0.00234
0.00519
0.01247
0.01794
0.02055
0.02143
0.02220
0.02238
0.02006
0.01498
0.00931
0.00487
0.00131
-0.00222
-0.00510
-0.00638
-0.00667
-0.00732
-0.00841
-0.00890
-0.00836
-0.00730
-0.00612
-0.00472
-0.00306
-0.00139
0.00011
0.00143
0.00257
0.00344
0.00399
0.00426
0.00428
0.00404
0.00359
0.00299
0.00230
0.00150
0.00067
-0.00009
-0.00077
-0.00149
-0.00215
-0.00253
-0.00275
-0.00322
-0.00368
-0.00307
-0.00102
0.00112
0.00183
0.00149
0.00161
0.00223
0.00175
-0.00021
-0.00164
-0.00071
0.00173
0.00319
0.00242
0.00028
-0.00160
-0.00227
-0.00201
-0.00161
-0.00139
-0.00111
-0.00062
-0.00017
0.00024
0.00094
0.00185
0.00210
0.00107
-0.00041
-0.00084
0.00023
0.00160
0.00170
0.00031
-0.00125
-0.00167
-0.00109
-0.00054
-0.00039
-0.00020
0.00011
0.00020
0.00023
0.00075
0.00144
0.00121
0.00007
-0.00067
-0.00078
-0.00169
-0.00379
-0.00493
-0.00320
0.00042
0.00327
0.00386
0.00271
0.00109
0.00014
0.00047
0.00183
0.00302
0.00287
0.00154
0.00054
0.00113
0.00282
0.00339
0.00081
-0.00452
-0.00924
-0.00989
-0.00654
-0.00249
-0.00018
0.00099
0.00203
0.00203
0.00021
-0.00170
-0.00179
-0.00083
-0.00069
-0.00093
0.00028
0.00316
0.00630
0.00900
0.01157
0.01332
0.01227
0.00756
0.00143
-0.00271
-0.00456
-0.00750
-0.01335
-0.01874
-0.01946
-0.01633
-0.01294
-0.00942
-0.00314
0.00509
0.01015
0.00860
0.00295
-0.00049
0.00300
0.01256
0.02196
0.02483
0.01992
0.01112
0.00277
-0.00355
-0.00832
-0.01184
-0.01360
-0.01290
-0.00959
-0.00453
0.00041
0.00314
0.00276
0.00041
-0.00214
-0.00492
-0.00934
-0.01479
-0.01773
-0.01608
-0.01256
-0.01083
-0.00992
-0.00575
0.00266
0.01208
0.02001
0.02732
0.03532
0.04289
0.04766
0.04834
0.04497
0.03791
0.02714
0.01222
-0.00658
-0.02749
-0.04885
-0.07095
-0.09454
-0.11784
-0.13647
-0.14541
-0.13996
-0.11584
-0.06810
0.01070
0.12527
0.26065
0.37158
0.40314
0.33282
0.18966
0.02896
-0.10730
-0.20471
-0.26435
-0.28963
-0.28331
-0.24792
-0.18588
-0.10273
-0.01161
0.06877
0.12374
0.15006
0.15382
0.14284
0.12241
0.09606
0.06708
0.03848
0.01251
-0.00933
-0.02653
-0.03962
-0.04894
-0.05366
-0.05292
-0.04803
-0.04179
-0.03520
-0.02668
-0.01588
-0.00587
0.00084
0.00602
0.01237
0.01836
0.02035
0.01840
0.01624
0.01601
0.01621
0.01470
0.01145
0.00797
0.00517
0.00259
-0.00051
-0.00399
-0.00696
-0.00896
-0.01014
-0.01069
-0.01068
-0.01026
-0.00921
-0.00661
-0.00211
0.00262
0.00512
0.00478
0.00317
0.00191
0.00176
0.00303
0.00488
0.00507
0.00261
-0.00035
-0.00130
-0.00052
0.00016
0.00002
-0.00038
-0.00029
0.00074
0.00187
0.00117
-0.00165
-0.00395
-0.00349
-0.00142
-0.00014
-0.00000
-0.00016
-0.00058
-0.00127
-0.00119
0.00015
0.00169
0.00252
0.00282
0.00264
0.00147
-0.00030
-0.00119
-0.00060
0.00029
0.00001
-0.00160
-0.00359
-0.00477
-0.00422
-0.00163
0.00213
0.00532
0.00646
0.00532
0.00292
0.00070
-0.00052
-0.00101
-0.00139
-0.00177
-0.00221
-0.00302
-0.00385
-0.00347
-0.00176
-0.00047
-0.00073
-0.00108
0.00036
0.00282
0.00393
0.00314
0.00221
0.00235
0.00266
0.00207
0.00136
0.00159
0.00161
-0.00052
-0.00397
-0.00573
-0.00479
-0.00326
-0.00292
-0.00305
-0.00217
-0.00025
0.00167
0.00276
0.00275
0.00197
0.00154
0.00238
0.00387
0.00429
0.00297
0.00099
-0.00051
-0.00130
-0.00133
-0.00065
-0.00020
-0.00094
-0.00219
-0.00244
-0.00182
-0.00195
-0.00350
-0.00517
-0.00527
-0.00336
-0.00049
0.00169
0.00210
0.00109
0.00029
0.00105
0.00319
0.00547
0.00709
0.00823
0.00913
0.00943
0.00858
0.00671
0.00434
0.00087
-0.00532
-0.01416
-0.02192
-0.02421
-0.02069
-0.01469
-0.00818
-0.00061
0.00706
0.01107
0.00930
0.00419
0.00027
0.00122
0.00839
0.01869
0.02473
0.02130
0.01135
0.00226
-0.00285
-0.00615
-0.00916
-0.01034
-0.00904
-0.00736
-0.00685
-0.00635
-0.00464
-0.00278
-0.00244
-0.00346
-0.00455
-0.00548
-0.00716
-0.00983
-0.01210
-0.01228
-0.01002
-0.00630
-0.00208
0.00277
0.00921
0.01747
0.02609
0.03305
0.03752
0.03988
0.04025
0.03798
0.03246
0.02347
0.01102
-0.00455
-0.02268
-0.04314
-0.06553
-0.08802
-0.10750
-0.12142
-0.12769
-0.12251
-0.10110
-0.05991
0.00534
0.10042
0.21933
0.32718
0.37077
0.31929
0.19232
0.04229
-0.08641
-0.17857
-0.23849
-0.27133
-0.27550
-0.24732
-0.18790
-0.10560
-0.01523
0.06487
0.11973
0.14538
0.14844
0.13784
0.11878
0.09397
0.06643
0.03909
0.01365
-0.00898
-0.02783
-0.04177
-0.05004
-0.05299
-0.05187
-0.04762
-0.04036
-0.03082
-0.02107
-0.01286
-0.00649
-0.00128
0.00386
0.01009
0.01688
0.02151
0.02216
0.02037
0.01851
0.01647
0.01285
0.00777
0.00258
-0.00151
-0.00350
-0.00329
-0.00272
-0.00406
-0.00673
-0.00766
-0.00573
-0.00352
-0.00366
-0.00530
-0.00579
-0.00433
-0.00237
-0.00128
-0.00093
-0.00010
0.00215
0.00504
0.00610
0.00386
0.00017
-0.00152
-0.00032
0.00132
0.00133
0.00071
0.00138
0.00314
0.00417
0.00340
0.00136
-0.00087
-0.00217
-0.00188
-0.00076
-0.00083
-0.00290
-0.00491
-0.00431
-0.00185
-0.00056
-0.00125
-0.00169
-0.00031
0.00162
0.00220
0.00134
0.00034
0.00041
0.00204
0.00451
0.00564
0.00376
-0.00009
-0.00295
-0.00334
-0.00227
-0.00101
0.00013
0.00075
0.00012
-0.00129
-0.00186
-0.00108
-0.00018
-0.00003
-0.00004
0.00028
0.00017
-0.00068
-0.00079
0.00092
0.00266
0.00192
-0.00079
-0.00257
-0.00222
-0.00125
-0.00090
-0.00032
0.00137
0.00312
0.00318
0.00160
0.00022
0.00041
0.00152
0.00189
0.00068
-0.00118
-0.00217
-0.00197
-0.00157
-0.00153
-0.00154
-0.00170
-0.00255
-0.00331
-0.00226
0.00049
0.00255
0.00231
0.00107
0.00090
0.00191
0.00278
0.00288
0.00272
0.00263
0.00225
0.00144
0.00058
-0.00020
-0.00135
-0.00294
-0.00391
-0.00338
-0.00215
-0.00180
-0.00263
-0.00350
-0.00363
-0.00328
-0.00281
-0.00209
-0.00092
0.00058
0.00218
0.00384
0.00556
0.00716
0.00839
0.00915
0.00942
0.00899
0.00757
0.00514
0.00199
-0.00206
-0.00759
-0.01411
-0.01935
-0.02113
-0.01938
-0.01523
-0.00902
-0.00093
0.00694
0.01099
0.00946
0.00456
0.00135
0.00399
0.01200
0.01964
0.02073
0.01479
0.00704
0.00176
-0.00159
-0.00496
-0.00759
-0.00767
-0.00600
-0.00512
-0.00567
-0.00603
-0.00505
-0.00351
-0.00292
-0.00420
-0.00719
-0.01064
-0.01289
-0.01335
-0.01257
-0.01103
-0.00844
-0.00440
0.00092
0.00717
0.01409
0.02129
0.02822
0.03434
0.03910
0.04173
0.04155
0.03841
0.03213
0.02193
0.00749
-0.00969
-0.02788
-0.04773
-0.07090
-0.09569
-0.11692
-0.13048
-0.13460
-0.12652
-0.10176
-0.05558
0.01915
0.12926
0.26220
0.37045
0.39442
0.31271
0.16257
0.00563
-0.11874
-0.20473
-0.25990
-0.28719
-0.28345
-0.24568
-0.17630
-0.08599
0.00690
0.08275
0.13018
0.15012
0.15036
0.13774
0.11649
0.09046
0.06300
0.03572
0.00981
-0.01260
-0.02991
-0.04229
-0.05017
-0.05307
-0.05115
-0.04629
-0.04039
-0.03368
-0.02572
-0.01718
-0.00906
-0.00115
0.00718
0.01492
0.01999
0.02191
0.02216
0.02166
0.01971
0.01614
0.01264
0.01050
0.00836
0.00401
-0.00226
-0.00768
-0.01007
-0.00976
-0.00869
-0.00845
-0.00885
-0.00830
-0.00584
-0.00233
0.00052
0.00163
0.00095
-0.00066
-0.00145
-0.00023
0.00165
0.00155
-0.00054
-0.00134
0.00129
0.00529
0.00719
0.00613
0.00362
0.00124
-0.00008
-0.00006
0.00049
0.00024
-0.00098
-0.00224
-0.00319
-0.00410
-0.00440
-0.00319
-0.00110
0.00012
-0.00004
-0.00035
0.00002
0.00049
0.00064
0.00109
0.00216
0.00278
0.00205
0.00077
0.00004
-0.00043
-0.00126
-0.00157
-0.00024
0.00184
0.00265
0.00194
0.00130
0.00121
0.00022
-0.00231
-0.00497
-0.00623
-0.00559
-0.00274
0.00167
0.00489
0.00456
0.00193
0.00026
0.00041
0.00087
0.00089
0.00103
0.00107
0.00011
-0.00160
-0.00244
-0.00145
0.00068
0.00217
0.00172
-0.00019
-0.00166
-0.00163
-0.00110
-0.00113
-0.00093
0.00047
0.00163
0.00043
-0.00223
-0.00313
-0.00102
0.00218
0.00421
0.00427
0.00246
-0.00036
-0.00228
-0.00198
-0.00063
-0.00051
-0.00194
-0.00286
-0.00155
0.00134
0.00365
0.00412
0.00346
0.00300
0.00264
0.00119
-0.00144
-0.00367
-0.00416
-0.00334
-0.00283
-0.00377
-0.00558
-0.00639
-0.00501
-0.00227
0.00034
0.00229
0.00367
0.00433
0.00470
0.00608
0.00877
0.01105
0.01121
0.00937
0.00655
0.00317
-0.00047
-0.00368
-0.00660
-0.01046
-0.01524
-0.01869
-0.01904
-0.01687
-0.01260
-0.00503
0.00503
0.01249
0.01259
0.00660
0.00058
-0.00036
0.00490
0.01360
0.02018
0.01964
0.01262
0.00520
0.00177
0.00028
-0.00310
-0.00748
-0.00904
-0.00734
-0.00584
-0.00635
-0.00699
-0.00617
-0.00511
-0.00523
-0.00595
-0.00696
-0.00962
-0.01364
-0.01532
-0.01215
-0.00709
-0.00438
-0.00291
0.00191
0.01069
0.01932
0.02560
0.03134
0.03720
0.04068
0.04041
0.03798
0.03398
0.02649
0.01483
0.00122
-0.01323
-0.03077
-0.05321
-0.07842
-0.10286
-0.12447
-0.13988
-0.14200
-0.12529
-0.09017
-0.03431
0.05544
0.18492
0.32187
0.40163
0.37820
0.26308
0.10794
-0.03968
-0.15693
-0.23795
-0.28350
-0.29654
-0.27839
-0.22768
-0.14700
-0.04994
0.04161
0.10852
0.14377
0.15287
0.14617
0.13066
0.10843
0.08102
0.05227
0.02603
0.00352
-0.01574
-0.03166
-0.04346
-0.05075
-0.05376
-0.05279
-0.04855
-0.04234
-0.03495
-0.02588
-0.01499
-0.00427
0.00404
0.01041
0.01668
0.02240
0.02523
0.02466
0.02245
0.01953
0.01537
0.01056
0.00698
0.00476
0.00164
-0.00327
-0.00758
-0.00892
-0.00846
-0.00878
-0.00978
-0.00907
-0.00601
-0.00288
-0.00187
-0.00264
-0.00337
-0.00319
-0.00242
-0.00106
0.00131
0.00415
0.00589
0.00589
0.00512
0.00451
0.00396
0.00310
0.00208
0.00107
0.00002
-0.00092
-0.00160
-0.00238
-0.00350
-0.00406
-0.00298
-0.00086
0.00047
0.00030
-0.00029
-0.00030
-0.00000
0.00001
-0.00013
0.00001
0.00033
0.00036
0.00021
0.00052
0.00119
0.00105
-0.00030
-0.00120
-0.00001
0.00230
0.00308
0.00139
-0.00097
-0.00194
-0.00148
-0.00084
-0.00065
-0.00057
-0.00031
-0.00008
-0.00001
0.00001
0.00008
0.00007
-0.00002
-0.00005
-0.00001
-0.00010
-0.00022
-0.00004
0.00034
0.00035
0.00028
0.00118
0.00255
0.00181
-0.00188
-0.00493
-0.00348
0.00099
0.00347
0.00215
0.00015
0.00035
0.00166
0.00158
0.00009
-0.00118
-0.00193
-0.00302
-0.00414
-0.00385
-0.00159
0.00161
0.00398
0.00402
0.00176
-0.00064
-0.00096
0.00046
0.00160
0.00167
0.00154
0.00161
0.00107
-0.00034
-0.00140
-0.00126
-0.00073
-0.00092
-0.00147
-0.00137
-0.00041
0.00081
0.00130
-0.00006
-0.00301
-0.00514
-0.00459
-0.00280
-0.00220
-0.00208
-0.00004
0.00336
0.00498
0.00388
0.00259
0.00353
0.00642
0.00927
0.01013
0.00837
0.00534
0.00285
0.00020
-0.00503
-0.01251
-0.01801
-0.01824
-0.01476
-0.01110
-0.00768
-0.00226
0.00477
0.00876
0.00628
0.00035
-0.00265
-0.00007
0.00567
0.01146
0.01595
0.01793
0.01603
0.01069
0.00456
-0.00004
-0.00292
-0.00516
-0.00731
-0.00876
-0.00835
-0.00581
-0.00302
-0.00309
-0.00669
-0.01040
-0.01072
-0.00866
-0.00794
-0.01010
-0.01325
-0.01432
-0.01129
-0.00483
0.00182
0.00623
0.00996
0.01595
0.02419
0.03212
0.03799
0.04152
0.04254
0.04091
0.03692
0.03009
0.01872
0.00185
-0.01922
-0.04221
-0.06561
-0.08841
-0.10896
-0.12569
-0.13702
-0.13872
-0.12340
-0.08513
-0.02088
0.07407
0.20002
0.33103
0.40982
0.38558
0.26053
0.08924
-0.06762
-0.18092
-0.25142
-0.28841
-0.29657
-0.27529
-0.22254
-0.14092
-0.04338
0.04825
0.11448
0.14912
0.15850
0.15196
0.13521
0.11093
0.08177
0.05135
0.02316
-0.00090
-0.02081
-0.03695
-0.04896
-0.05621
-0.05857
-0.05620
-0.04960
-0.04002
-0.02938
-0.01926
-0.01026
-0.00210
0.00550
0.01212
0.01678
0.01918
0.02046
0.02180
0.02259
0.02116
0.01737
0.01280
0.00834
0.00363
-0.00088
-0.00350
-0.00391
-0.00453
-0.00762
-0.01197
-0.01402
-0.01218
-0.00851
-0.00582
-0.00452
-0.00328
-0.00148
0.00035
0.00175
0.00288
0.00388
0.00459
0.00490
0.00493
0.00472
0.00419
0.00344
0.00264
0.00170
0.00047
-0.00076
-0.00164
-0.00260
-0.00422
-0.00563
-0.00500
-0.00213
0.00092
0.00246
0.00266
0.00221
0.00113
-0.00054
-0.00200
-0.00236
-0.00136
0.00031
0.00149
0.00153
0.00086
0.00041
0.00057
0.00082
0.00059
0.00037
0.00118
0.00233
0.00131
-0.00256
-0.00603
-0.00564
-0.00211
0.00121
0.00272
0.00296
0.00233
0.00098
-0.00014
-0.00005
0.00105
0.00220
0.00249
0.00144
-0.00049
-0.00200
-0.00227
-0.00185
-0.00174
-0.00200
-0.00200
-0.00162
-0.00135
-0.00123
-0.00057
0.00082
0.00189
0.00183
0.00152
0.00214
0.00299
0.00256
0.00120
0.00074
0.00167
0.00248
0.00184
-0.00002
-0.00233
-0.00459
-0.00594
-0.00519
-0.00255
-0.00010
0.00032
-0.00068
-0.00107
-0.00016
0.00100
0.00160
0.00194
0.00235
0.00252
0.00242
0.00258
0.00275
0.00150
-0.00163
-0.00427
-0.00354
0.00020
0.00348
0.00393
0.00246
0.00104
0.00013
-0.00083
-0.00198
-0.00310
-0.00406
-0.00472
-0.00498
-0.00521
-0.00561
-0.00517
-0.00277
0.00077
0.00348
0.00502
0.00659
0.00832
0.00887
0.00792
0.00694
0.00696
0.00717
0.00627
0.00395
0.00065
-0.00362
-0.00945
-0.01607
-0.02024
-0.01904
-0.01373
-0.00804
-0.00313
0.00210
0.00638
0.00641
0.00201
-0.00254
-0.00252
0.00367
0.01337
0.02103
0.02248
0.01850
0.01249
0.00579
-0.00191
-0.00866
-0.01100
-0.00853
-0.00479
-0.00324
-0.00428
-0.00624
-0.00757
-0.00780
-0.00750
-0.00741
-0.00776
-0.00829
-0.00920
-0.01094
-0.01308
-0.01360
-0.01043
-0.00348
0.00531
0.01395
0.02183
0.02890
0.03422
0.03642
0.03598
0.03536
0.03580
0.03482
0.02868
0.01641
0.00014
-0.01811
-0.03832
-0.06063
-0.08279
-0.10129
-0.11508
-0.12509
-0.12857
-0.11732
-0.08392
-0.02478
0.06401
0.18181
0.30463
0.38059
0.36300
0.25210
0.09599
-0.05037
-0.15996
-0.23211
-0.27237
-0.28232
-0.26192
-0.21254
-0.13828
-0.04892
0.03837
0.10480
0.14057
0.14946
0.14238
0.12721
0.10544
0.07740
0.04748
0.02192
0.00271
-0.01334
-0.02891
-0.04238
-0.05065
-0.05307
-0.05101
-0.04590
-0.03929
-0.03275
-0.02620
-0.01789
-0.00717
0.00408
0.01317
0.01868
0.02098
0.02181
0.02259
0.02272
0.02058
0.01642
0.01237
0.00932
0.00590
0.00118
-0.00377
-0.00774
-0.01074
-0.01298
-0.01367
-0.01206
-0.00877
-0.00538
-0.00291
-0.00108
0.00089
0.00289
0.00397
0.00352
0.00209
0.00072
0.00011
0.00031
0.00069
0.00029
-0.00102
-0.00157
0.00066
0.00490
0.00745
0.00585
0.00180
-0.00157
-0.00358
-0.00498
-0.00502
-0.00268
0.00049
0.00183
0.00117
0.00046
0.00044
0.00034
0.00020
0.00070
0.00096
-0.00052
-0.00284
-0.00323
-0.00113
0.00100
0.00129
0.00060
0.00039
0.00060
0.00053
0.00022
0.00008
0.00011
0.00007
-0.00001
-0.00000
0.00009
0.00016
0.00021
0.00031
0.00043
0.00047
0.00045
0.00045
0.00044
0.00024
-0.00008
-0.00026
-0.00038
-0.00088
-0.00161
-0.00162
-0.00062
0.00023
-0.00026
-0.00157
-0.00217
-0.00125
0.00044
0.00144
0.00123
0.00103
0.00207
0.00332
0.00276
0.00077
-0.00016
0.00073
0.00133
0.00001
-0.00199
-0.00268
-0.00186
-0.00081
-0.00032
-0.00017
-0.00014
-0.00048
-0.00133
-0.00214
-0.00213
-0.00126
-0.00015
0.00063
0.00099
0.00114
0.00128
0.00148
0.00136
0.00071
0.00023
0.00103
0.00280
0.00380
0.00311
0.00174
0.00082
-0.00009
-0.00171
-0.00321
-0.00320
-0.00209
-0.00170
-0.00260
-0.00373
-0.00438
-0.00492
-0.00509
-0.00367
-0.00058
0.00229
0.00312
0.00216
0.00136
0.00266
0.00631
0.01025
0.01175
0.01036
0.00813
0.00656
0.00500
0.00231
-0.00163
-0.00669
-0.01286
-0.01895
-0.02235
-0.02115
-0.01574
-0.00810
-0.00028
0.00618
0.00998
0.01004
0.00633
0.00166
0.00101
0.00687
0.01544
0.01998
0.01773
0.01176
0.00626
0.00227
-0.00135
-0.00510
-0.00835
-0.01047
-0.01107
-0.00967
-0.00652
-0.00357
-0.00293
-0.00447
-0.00635
-0.00742
-0.00788
-0.00817
-0.00859
-0.00947
-0.01036
-0.00961
-0.00620
-0.00105
0.00444
0.01040
0.01782
0.02633
0.03389
0.03863
0.04026
0.03970
0.03764
0.03345
0.02536
0.01229
-0.00486
-0.02431
-0.04552
-0.06894
-0.09309
-0.11389
-0.12737
-0.13160
-0.12477
-0.10292
-0.05996
0.01143
0.11510
0.23834
0.34237
0.37761
0.31970
0.18995
0.03718
-0.09704
-0.19476
-0.25476
-0.28095
-0.27709
-0.24502
-0.18541
-0.10265
-0.01027
0.07134
0.12578
0.14971
0.15087
0.13847
0.11752
0.09104
0.06305
0.03700
0.01356
-0.00786
-0.02651
-0.04042
-0.04838
-0.05090
-0.04966
-0.04617
