0.06487
0.06487
0.06487
0.07100
0.08065
0.08503
0.08503
0.08240
0.07714
0.07188
0.07276
0.07802
0.08328
0.08766
0.09029
0.09029
0.09029
0.09029
0.09292
0.09818
0.10256
0.10782
0.10957
0.10694
0.10168
0.09993
0.09993
0.10256
0.10782
0.10957
0.11308
0.11483
0.11483
0.11220
0.10957
0.10957
0.11308
0.11483
0.11834
0.12009
0.12009
0.11396
0.10957
0.10957
0.10957
0.10957
0.10957
0.10957
0.10694
0.09905
0.08941
0.08503
0.08240
0.07977
0.07714
0.07188
0.06750
0.05961
0.04646
0.03419
0.02717
0.02191
0.01753
0.01490
0.00877
-0.00088
-0.00789
-0.01578
-0.02542
-0.02980
-0.02980
-0.02980
-0.03331
-0.03769
-0.04295
-0.04821
-0.05259
-0.05522
-0.05522
-0.05522
-0.05522
-0.05522
-0.05522
-0.05785
-0.06311
-0.06224
-0.05698
-0.05522
-0.05172
-0.05259
-0.05522
-0.05522
-0.05522
-0.05522
-0.05259
-0.04734
-0.04208
-0.04032
-0.04295
-0.05084
-0.05522
-0.05522
-0.05522
-0.05522
-0.05259
-0.04734
-0.04821
-0.05259
-0.05522
-0.05785
-0.05961
-0.05698
-0.05522
-0.05522
-0.05522
-0.05522
-0.05522
-0.05785
-0.05961
-0.05961
-0.05698
-0.05522
-0.05522
-0.05522
-0.05522
-0.05522
-0.05259
-0.04471
-0.03419
-0.02191
-0.01227
-0.00701
-0.00526
-0.00263
0.00789
0.02016
0.03331
0.04821
0.06048
0.06487
0.06224
0.05698
0.04909
0.04208
0.03419
0.02191
0.00438
-0.01315
-0.02805
-0.04558
-0.06048
-0.07013
-0.07802
-0.07977
-0.07977
-0.07977
-0.07977
-0.08503
-0.09292
-0.09730
-0.09993
-0.09730
-0.09204
-0.08766
-0.08503
-0.09029
-0.09730
-0.09993
-0.09993
-0.09730
-0.08941
-0.08503
-0.08503
-0.08766
-0.09029
-0.09029
-0.09029
-0.09029
-0.08766
-0.08766
-0.09555
-0.09730
-0.07363
-0.00438
0.10081
0.21915
0.33310
0.41988
0.42076
0.28927
0.03068
-0.27086
-0.52332
-0.71178
-0.86080
-0.97476
-1.03086
-1.01070
-0.91953
-0.77052
-0.58994
-0.41375
-0.27174
-0.17269
-0.10607
-0.06399
-0.03945
-0.02717
-0.02279
-0.01753
-0.01227
-0.00701
-0.00263
0.00263
0.00789
0.00964
0.00701
0.00526
0.00526
0.00789
0.01227
0.01490
0.01490
0.01490
0.01227
0.00964
0.00964
0.01227
0.01490
0.01490
0.01753
0.02279
0.02279
0.02016
0.02279
0.02542
0.02717
0.03243
0.03506
0.03506
0.03243
0.02717
0.02279
0.02279
0.02717
0.03243
0.03769
0.04032
0.04032
0.04032
0.04032
0.04032
0.04032
0.04295
0.04471
0.04471
0.04208
0.04032
0.03769
0.03769
0.04208
0.04734
0.05522
0.05961
0.06224
0.06224
0.05961
0.05961
0.05961
0.05961
0.06224
0.07013
0.07714
0.07714
0.07539
0.07276
0.07013
0.07276
0.07714
0.08240
0.08503
0.08503
0.08503
0.08240
0.07977
0.08240
0.08503
0.09029
0.09730
0.09993
0.09993
0.09993
0.09993
0.09993
0.10256
0.10782
0.10957
0.10957
0.10957
0.10957
0.10957
0.10957
0.10957
0.10957
0.10957
0.11220
0.11483
0.11483
0.11220
0.10957
0.10957
0.10957
0.11483
0.12009
0.12009
0.11746
0.11220
0.10519
0.09730
0.09467
0.09467
0.09292
0.08766
0.08065
0.07013
0.06048
0.04997
0.04295
0.03769
0.03068
0.02279
0.01490
0.00526
-0.00438
-0.01490
-0.02191
-0.02542
-0.02542
-0.02542
-0.02717
-0.03243
-0.03769
-0.04032
-0.04032
-0.04032
-0.04032
-0.04032
-0.04208
-0.04734
-0.05259
-0.05522
-0.05522
-0.05522
-0.05259
-0.04734
-0.04471
-0.04471
-0.04471
-0.04734
-0.04997
-0.04997
-0.04734
-0.04471
-0.04471
-0.04295
-0.04032
-0.04208
-0.04734
-0.04997
-0.04734
-0.04295
-0.04032
-0.04032
-0.04032
-0.04208
-0.04734
-0.04997
-0.04997
-0.04734
-0.04295
-0.04208
-0.04471
-0.04734
-0.05259
-0.05522
-0.05522
-0.05522
-0.05259
-0.04734
-0.04471
-0.04471
-0.04471
-0.04295
-0.03769
-0.03068
-0.01841
-0.00526
0.00438
0.01227
0.02191
0.03682
0.05172
0.06224
0.06750
0.06750
0.06487
0.06487
0.06048
0.04821
0.03156
0.01140
-0.00701
-0.01928
-0.02980
-0.04120
-0.05435
-0.06662
-0.07714
-0.07977
-0.07977
-0.07977
-0.07977
-0.07977
-0.07977
-0.07977
-0.07977
-0.07977
-0.07977
-0.07977
-0.07977
-0.07802
-0.07539
-0.07714
-0.07977
-0.07977
-0.07977
-0.07977
-0.07539
-0.06750
-0.06487
-0.06750
-0.07188
-0.07539
-0.07714
-0.08240
-0.08678
-0.08328
-0.04734
0.03682
0.15340
0.27349
0.37781
0.43391
0.38044
0.18584
-0.10256
-0.38657
-0.59871
-0.76350
-0.90288
-1.00193
-1.02735
-0.96599
-0.83801
-0.66533
-0.48212
-0.32171
-0.20249
-0.12886
-0.08328
-0.04734
-0.02367
-0.01052
-0.00088
0.00526
0.00526
0.00701
0.00964
0.01227
0.01490
0.01666
0.02016
0.02016
0.01753
0.01490
0.01490
0.01666
0.02191
0.02893
0.03506
0.03331
0.02980
0.02980
0.02980
0.03419
0.04032
0.04032
0.04032
0.04032
0.03769
0.03331
0.03243
0.03506
0.03682
0.04032
0.04208
0.04471
0.04471
0.04295
0.04032
0.04032
0.04208
0.04734
0.05172
0.05259
0.04997
0.04821
0.04471
0.04734
0.04997
0.05172
0.05698
0.05785
0.05522
0.05259
0.04997
0.05172
0.05522
0.05698
0.06224
0.06487
0.06487
0.06487
0.06487
0.06487
0.06487
0.06662
0.07188
0.07539
0.07714
0.07977
0.07977
0.07977
0.07977
0.08152
0.08503
0.08678
0.09204
0.09292
0.08766
0.08503
0.08503
0.08678
0.09204
0.09730
0.10168
0.10344
0.09993
0.09993
0.09993
0.10168
0.10519
0.10694
0.10957
0.10957
0.10957
0.10957
0.10957
0.10957
0.11220
0.11659
0.12184
0.12535
0.12272
0.11834
0.11308
0.10957
0.10957
0.10957
0.11220
0.11308
0.10782
0.10344
0.09642
0.08853
0.08503
0.08328
0.07802
0.07276
0.06662
0.05435
0.04120
0.03156
0.02104
0.01490
0.01315
0.00789
0.00351
-0.00175
-0.01052
-0.02367
-0.02980
-0.02980
-0.02980
-0.03156
-0.03682
-0.04208
-0.04646
-0.05172
-0.05522
-0.05522
-0.05522
-0.05522
-0.05522
-0.05522
-0.05522
-0.05698
-0.05785
-0.05522
-0.05522
-0.05522
-0.05347
-0.04997
-0.05172
-0.05522
-0.05522
-0.05522
-0.05522
-0.05172
-0.04471
-0.04471
-0.04471
-0.04646
-0.05172
-0.05522
-0.05522
-0.05522
-0.05347
-0.04821
-0.04471
-0.04646
-0.05172
-0.05522
-0.05522
-0.05522
-0.05347
-0.04997
-0.04997
-0.05172
-0.05698
-0.05961
-0.05961
-0.05785
-0.05347
-0.04997
-0.04997
-0.05172
-0.05522
-0.05522
-0.05347
-0.04646
-0.03682
-0.02805
-0.02191
-0.01140
-0.00526
-0.00351
0.00351
0.01315
0.02630
0.04471
0.05873
0.06487
0.06487
0.06311
0.05873
0.05172
0.04295
0.03331
0.01490
0.00000
-0.01666
-0.03506
-0.04821
-0.05961
-0.07188
-0.07626
-0.07977
-0.07977
-0.07977
-0.07977
-0.08328
-0.09204
-0.09379
-0.08853
-0.08328
-0.07977
-0.07977
-0.08152
-0.08503
-0.08503
-0.08503
-0.08328
-0.07977
-0.07977
-0.07977
-0.07977
-0.08152
-0.08678
-0.08853
-0.08503
-0.08328
-0.07977
-0.08152
-0.08678
-0.08065
-0.03594
0.04997
0.16129
0.27349
0.36992
0.41725
0.34537
0.13762
-0.14727
-0.41901
-0.62150
-0.78016
-0.91252
-0.99580
-1.00632
-0.94057
-0.81522
-0.64604
-0.46283
-0.30680
-0.19372
-0.11834
-0.07100
-0.04383
-0.02717
-0.01666
-0.00877
-0.00526
-0.00351
0.00175
0.00614
0.00701
-0.00263
-0.01490
-0.02630
-0.03331
-0.04120
-0.04646
-0.04997
-0.05172
-0.05522
-0.05610
-0.06136
-0.06662
-0.07013
-0.06837
-0.06487
-0.06487
-0.06487
-0.06662
-0.07013
-0.07013
-0.06837
-0.06487
-0.06311
-0.05873
-0.05522
-0.05610
-0.05961
-0.06136
-0.06311
-0.05873
-0.05522
-0.05522
-0.05522
-0.05522
-0.05522
-0.05522
-0.05522
-0.05522
-0.05522
-0.05347
-0.04997
-0.04997
-0.04997
-0.04997
-0.04821
-0.04471
-0.04383
-0.03682
-0.02980
-0.02980
-0.02980
-0.03156
-0.03331
-0.02980
-0.02893
-0.02191
-0.01403
-0.00964
-0.01140
-0.01666
-0.02016
-0.02016
-0.01753
-0.00877
-0.00351
0.00175
0.00526
0.00526
0.00526
0.00526
0.00614
0.01140
0.01490
0.01666
0.02016
0.02016
0.02016
0.01841
0.01666
0.02104
0.02630
0.03156
0.03506
0.03506
0.03506
0.03506
0.03506
0.03594
0.04120
0.04734
0.05522
0.05347
0.04997
0.04997
0.04997
0.04997
0.05172
0.05610
0.05961
0.05961
0.05698
0.04734
0.03857
0.03331
0.02980
0.02893
0.02542
0.02367
0.01841
0.01140
-0.00088
-0.00789
-0.01753
-0.02630
-0.02980
-0.03156
-0.03769
-0.04734
-0.05785
-0.06750
-0.07539
-0.07539
-0.07539
-0.07626
-0.07977
-0.08240
-0.09116
-0.09642
-0.09993
-0.09905
-0.09467
-0.09467
-0.09642
-0.09993
-0.10168
-0.10519
-0.10519
-0.10519
-0.10344
-0.09905
-0.09467
-0.09467
-0.09642
-0.09993
-0.09993
-0.09993
-0.09993
-0.09905
-0.09379
-0.09029
-0.09116
-0.09642
-0.09993
-0.09993
-0.09905
-0.09379
-0.08853
-0.08503
-0.08590
-0.09116
-0.09467
-0.09467
-0.09379
-0.08853
-0.08415
-0.07977
-0.08152
-0.08503
-0.08590
-0.09029
-0.09029
-0.08853
-0.08415
-0.07977
-0.07977
-0.07977
-0.07977
-0.08152
-0.08415
-0.07977
-0.07889
-0.07363
-0.06925
-0.06399
-0.05873
-0.05347
-0.04734
-0.03769
-0.02630
-0.01315
-0.00175
0.01227
0.02367
0.03594
0.04032
0.04032
0.04032
0.04032
0.03857
0.03156
0.01666
-0.00088
-0.02542
-0.04821
-0.06224
-0.07188
-0.08152
-0.08678
-0.09642
-0.10081
-0.10519
-0.10519
-0.10431
-0.09993
-0.09905
-0.09467
-0.09467
-0.09642
-0.09993
-0.09993
-0.09993
-0.09993
-0.09993
-0.09905
-0.09467
-0.09642
-0.09993
-0.09993
-0.09993
-0.09905
-0.09379
-0.08853
-0.08503
-0.08590
-0.09204
-0.10344
-0.11571
-0.11133
-0.06136
0.03594
0.15866
0.26999
0.35940
0.40849
0.34800
0.14639
-0.13850
-0.41024
-0.61887
-0.77928
-0.91427
-0.99843
-1.02209
-0.96687
-0.84152
-0.67058
-0.48037
-0.31645
-0.20512
-0.13587
-0.09379
-0.06574
-0.04646
-0.02805
-0.01841
-0.00877
-0.00526
-0.00526
-0.00526
-0.00526
-0.00526
-0.00526
-0.00438
0.00088
0.00526
0.00526
0.00438
0.00000
0.00000
0.00088
0.00614
0.01052
0.01490
0.01403
0.00964
0.00964
0.00964
0.00964
0.01052
0.01490
0.01490
0.01490
0.01490
0.01490
0.01490
0.01490
0.01490
0.01578
0.02016
0.01928
0.01490
0.01490
0.01490
0.01490
0.01490
0.01578
0.02104
0.02630
0.02980
0.02893
0.02454
0.02016
0.02104
0.02542
0.02630
0.02980
0.02980
0.02980
0.02893
0.02542
0.02630
0.03068
0.03594
0.04120
0.04471
0.04471
0.04383
0.04032
0.04032
0.04120
0.04558
0.05084
0.05522
0.05522
0.05522
0.05522
0.05522
0.05698
0.06487
0.06487
0.06487
0.06487
0.06487
0.06399
0.06048
0.06487
0.06574
0.07013
0.07100
0.07539
0.07889
0.07539
0.07539
0.07539
0.07539
0.08065
0.08503
0.08503
0.08503
0.08503
0.08503
0.08503
0.08503
0.08503
0.08503
0.08503
0.08503
0.08503
0.08415
0.07889
0.07539
0.07451
0.07013
0.06925
0.06487
0.06399
0.05873
0.04909
0.04383
0.03945
0.03506
0.03331
0.02367
0.01403
0.00877
-0.00175
-0.01140
-0.02104
-0.02542
-0.02980
-0.02980
-0.03156
-0.04120
-0.05084
-0.05610
-0.05961
-0.05961
-0.05961
-0.05522
-0.05610
-0.06048
-0.06487
-0.06574
-0.06925
-0.06399
-0.05961
-0.05961
-0.05610
-0.06048
-0.06574
-0.07013
-0.07013
-0.06925
-0.06399
-0.05961
-0.05435
-0.04997
-0.05084
-0.05522
-0.05522
-0.05522
-0.05522
-0.05435
-0.04997
-0.05084
-0.05522
-0.05522
-0.05961
-0.05961
-0.05961
-0.05961
-0.05435
-0.04997
-0.05084
-0.05522
-0.05522
-0.05522
-0.05961
-0.05522
-0.05522
-0.05522
-0.05522
-0.05522
-0.06048
-0.06399
-0.05961
-0.05347
-0.04295
-0.02980
-0.02454
-0.01841
-0.00964
-0.00438
0.00088
0.01140
0.02717
0.04208
0.06048
0.06487
0.06399
0.05961
0.05522
0.05435
0.04909
0.03857
0.02279
0.00175
-0.02191
-0.04208
-0.05610
-0.06574
-0.07539
-0.07977
-0.07977
-0.08065
-0.08590
-0.09029
-0.09555
-0.09993
-0.09905
-0.09467
-0.09029
-0.09029
-0.09029
-0.09467
-0.09467
-0.09467
-0.09467
-0.09029
-0.08941
-0.08415
-0.08065
-0.08590
-0.09029
-0.09029
-0.08941
-0.08415
-0.07977
-0.07977
-0.08240
-0.10081
-0.10344
-0.08415
-0.01841
0.09730
0.21564
0.32258
0.39446
0.37430
0.20424
-0.05785
-0.33661
-0.55049
-0.70828
-0.84064
-0.95109
-1.00281
-0.97038
-0.85993
-0.69688
-0.50929
-0.34274
-0.21739
-0.13499
-0.08240
-0.05347
-0.03945
-0.02893
-0.01928
-0.01403
-0.00526
-0.00438
0.00000
0.00000
0.00000
0.00000
-0.00438
0.00000
0.00526
0.01052
0.01490
0.01490
0.01490
0.00964
0.00964
0.01052
0.01490
0.01578
0.02016
0.02016
0.02454
0.01928
0.01490
0.01578
0.02016
0.02016
0.02542
0.02542
0.02454
0.01928
0.01490
0.01490
0.01490
0.01578
0.02016
0.02454
0.02016
0.01928
0.01490
0.01490
0.01578
0.02016
0.02016
0.02542
0.02980
0.02980
0.02980
0.02542
0.02454
0.02016
0.02542
0.02980
0.02980
0.02980
0.02542
0.02542
0.03068
0.03506
0.04032
0.04558
0.05522
0.05435
0.04997
0.04997
0.04997
0.04997
0.05522
0.06048
0.06487
0.06487
0.06487
0.06487
0.05961
0.05522
0.06048
0.06487
0.07013
0.07013
0.07539
0.07539
0.07539
0.07539
0.07539
0.08065
0.08503
0.08503
0.08941
0.08503
0.08503
0.08503
0.08503
0.08503
0.09029
0.09467
0.09467
0.09467
0.09029
0.09029
0.09029
0.09029
0.09467
0.09467
0.09467
0.08941
0.08503
0.08415
0.07539
0.07539
0.07539
0.07451
0.07013
0.06487
0.05435
0.04471
0.03945
0.03506
0.02980
0.02016
0.01490
0.00964
-0.00526
-0.01052
-0.02016
-0.02542
-0.02980
-0.02980
-0.02980
-0.03068
-0.04032
-0.04997
-0.05522
-0.05961
-0.05522
-0.05522
-0.05522
-0.05522
-0.05522
-0.05522
-0.06048
-0.07013
-0.07539
-0.07451
-0.06487
-0.05961
-0.06048
-0.06487
-0.07013
-0.07013
-0.07013
-0.06487
-0.05522
-0.05522
-0.04997
-0.04997
-0.05522
-0.06048
-0.06487
-0.06487
-0.05961
-0.05961
-0.05522
-0.06048
-0.06487
-0.07013
-0.07539
-0.07451
-0.07013
-0.06487
-0.05961
-0.05522
-0.06048
-0.06487
-0.07013
-0.07013
-0.06487
-0.06487
-0.05961
-0.05961
-0.06048
-0.06487
-0.07013
-0.07451
-0.07013
-0.06487
-0.05961
-0.05522
-0.04997
-0.04032
-0.03506
-0.02980
-0.02016
-0.00526
0.00526
0.02016
0.03506
0.04032
0.04032
0.03506
0.03506
0.03506
0.03506
0.02454
0.00964
-0.01490
-0.04032
-0.05522
-0.07013
-0.07977
-0.09029
-0.09467
-0.09467
-0.09993
-0.09993
-0.10519
-0.10957
-0.10957
-0.10519
-0.09993
-0.09993
-0.09993
-0.10519
-0.10519
-0.10957
-0.10957
-0.10519
-0.09993
-0.09993
-0.09467
-0.09029
-0.09029
-0.09467
-0.09993
-0.09993
-0.09993
-0.09467
-0.09467
-0.09993
-0.11483
-0.12535
-0.09993
-0.02104
0.09905
0.21389
0.31908
0.38920
0.36992
0.20161
-0.07714
-0.35239
-0.55751
-0.71354
-0.85291
-0.96336
-1.00982
-0.97038
-0.86606
-0.72230
-0.54260
-0.36290
-0.23668
-0.15165
-0.10081
-0.07013
-0.05522
-0.04032
-0.02980
-0.02016
-0.01490
-0.01052
-0.00526
-0.00526
-0.00526
-0.00526
-0.00526
-0.00526
0.00000
0.00526
0.00964
0.00526
0.00526
0.00000
0.00000
0.00000
0.00526
0.01490
0.01490
0.01490
0.01490
0.01490
0.01052
0.00964
0.00964
0.01490
0.01490
0.01490
0.01490
0.01490
0.01052
0.00964
0.01490
0.01490
0.01490
0.02016
0.02016
0.02016
0.02016
0.01490
0.01490
0.02016
0.02454
0.02980
0.02980
0.02542
0.02016
0.02016
0.02454
0.02980
0.03506
0.03945
0.04032
0.03506
0.02980
0.02980
0.02542
0.02980
0.03945
0.04471
0.04997
0.04997
0.04997
0.04997
0.04997
0.04997
0.05435
0.05522
0.05961
0.05961
0.05961
0.05522
0.05522
0.05961
0.06487
0.07013
0.07451
0.07539
0.07539
0.07539
0.07539
0.07539
0.07539
0.07977
0.08503
0.08503
0.08503
0.08503
0.08503
0.08503
0.08503
0.08941
0.09467
0.09993
0.09993
0.09993
0.09555
0.09467
0.09467
0.09467
0.09993
0.09993
0.09993
0.09993
0.09555
0.09029
0.08503
0.08503
0.08065
0.07539
0.06574
0.06487
0.05084
0.04032
0.03506
0.02542
0.02016
0.01490
0.00526
-0.00438
-0.01403
-0.02893
-0.03506
-0.03945
-0.04032
-0.04471
-0.04471
-0.04997
-0.05435
-0.05522
-0.06399
-0.06925
-0.07013
-0.07013
-0.06574
-0.06487
-0.06487
-0.06925
-0.07451
-0.07539
-0.07013
-0.07013
-0.06574
-0.06487
-0.06487
-0.06487
-0.06487
-0.06487
-0.06048
-0.05522
-0.05522
-0.04997
-0.04997
-0.04997
-0.05435
-0.05522
-0.05522
-0.05522
-0.05084
-0.04558
-0.04471
-0.04997
-0.05435
-0.05522
-0.05961
-0.05522
-0.05522
-0.05522
-0.05522
-0.05522
-0.05522
-0.06399
-0.06487
-0.06487
-0.06048
-0.05522
-0.04558
-0.04032
-0.03506
-0.03068
-0.02542
-0.01140
0.00351
0.01841
0.03331
0.04383
0.05435
0.05522
0.05084
0.04997
0.04997
0.04997
0.04120
0.02630
0.01140
-0.01227
-0.03331
-0.04821
-0.05873
-0.06925
-0.07451
-0.07977
-0.07977
-0.08415
-0.08941
-0.09467
-0.09905
-0.09993
-0.09993
-0.09555
-0.09029
-0.09029
-0.09467
-0.09467
-0.09467
-0.09467
-0.09467
-0.09029
-0.09029
-0.09029
-0.09029
-0.09029
-0.09029
-0.09029
-0.08590
-0.08065
-0.07977
-0.07539
-0.07977
-0.09818
-0.09993
-0.07363
0.00526
0.12184
0.23668
0.34274
0.40410
0.35239
0.18145
-0.07013
-0.33398
-0.53734
-0.69250
-0.83363
-0.93794
-0.98089
-0.93619
-0.81960
-0.67321
-0.50053
-0.33924
-0.21476
-0.13850
-0.09029
-0.06311
-0.04646
-0.03156
-0.02542
-0.01227
-0.00526
-0.00088
0.00438
0.00526
0.00088
-0.00438
-0.00088
0.00438
0.00964
0.01403
0.01490
0.01490
0.01490
0.01490
0.01490
0.01490
0.01928
0.02016
0.02016
0.02016
0.01578
0.01490
0.01490
0.01928
0.02454
0.02893
0.02980
0.02980
0.02980
0.02542
0.02104
0.02016
0.02454
0.02893
0.02980
0.03419
0.03068
0.02542
0.02104
0.02016
0.02454
0.02893
0.03419
0.03506
0.03506
0.03506
0.03068
0.02980
0.03419
0.03945
0.04032
0.04471
0.04471
0.04471
0.04471
0.04471
0.05347
0.05961
0.05961
0.06399
0.06487
0.06048
0.05961
0.05961
0.06399
0.06487
0.06925
0.07013
0.07451
0.07100
0.07013
0.06574
0.06925
0.07451
0.07889
0.08415
0.08503
0.08503
0.08503
0.08503
0.08503
0.08503
0.08941
0.09379
0.09905
0.09993
0.09993
0.09993
0.09555
0.09467
0.09467
0.09467
0.09905
0.09993
0.09993
0.09993
0.09555
0.09467
0.09905
0.10431
0.10519
0.10957
0.10607
0.09642
0.08678
0.08503
0.08065
0.07977
0.07977
0.07626
0.06662
0.06048
0.04734
0.04120
0.03156
0.02542
0.02104
0.01578
0.01052
-0.00263
-0.00877
-0.02279
-0.02893
-0.02980
-0.02980
-0.02980
-0.03419
-0.04295
-0.04909
-0.05435
-0.05522
-0.05522
-0.05084
-0.04558
-0.04471
-0.04909
-0.05435
-0.05522
-0.05873
-0.05961
-0.05610
-0.05522
-0.05084
-0.04997
-0.05435
-0.05522
-0.05522
-0.05522
-0.05084
-0.04558
-0.04120
-0.04032
-0.04383
-0.04909
-0.05435
-0.05522
-0.05522
-0.05522
-0.05522
-0.05522
-0.05522
-0.05522
-0.05522
-0.05873
-0.05961
-0.05610
-0.05522
-0.05084
-0.04997
-0.04997
-0.04997
-0.04558
-0.03682
-0.02717
-0.00877
0.00263
0.01315
0.02279
0.03331
0.04295
0.04909
0.05435
0.05873
0.06399
0.06487
0.05698
0.04295
0.02016
-0.00088
-0.02104
-0.03331
-0.04295
-0.05259
-0.06311
-0.07714
-0.07977
-0.08415
-0.08941
-0.09029
-0.08590
-0.08503
-0.08503
-0.08941
-0.09029
-0.09029
-0.09029
-0.08590
-0.08065
-0.07977
-0.07626
-0.07539
-0.07539
-0.07889
-0.07977
-0.07977
-0.07977
-0.07626
-0.07539
-0.07539
-0.07539
-0.07889
-0.07977
-0.09204
-0.09905
-0.09993
-0.06487
0.01140
0.12009
0.22703
0.32434
0.39183
0.37342
0.22440
-0.02980
-0.30154
-0.51631
-0.68461
-0.83363
-0.94671
-0.98966
-0.95635
-0.85554
-0.70127
-0.52507
-0.35677
-0.23405
-0.15515
-0.10081
-0.06311
-0.03594
-0.01841
-0.00701
-0.00526
-0.00526
-0.00526
-0.00088
0.00000
0.00351
0.00877
0.00964
0.00964
0.00964
0.00614
0.00088
0.00000
0.00351
0.01227
0.01490
0.01841
0.01578
0.01490
0.01490
0.01490
0.01490
0.01841
0.02367
0.02893
0.02630
0.02104
0.02016
0.01578
0.01841
0.02367
0.02893
0.02980
0.02980
0.02630
0.02104
0.01578
0.01490
0.01841
0.02717
0.03419
0.03506
0.03156
0.02630
0.02104
0.02016
0.02367
0.03243
0.03857
0.04032
0.04032
0.04032
0.04032
0.04032
0.04032
0.04383
0.04471
0.04909
0.04997
0.04997
0.04646
0.04471
0.04909
0.04997
0.05785
0.06399
0.06487
0.06487
0.06136
0.05961
0.06399
0.06837
0.07363
0.07539
0.07539
0.07539
0.07539
0.07539
0.07889
0.08415
0.08503
0.08503
0.08853
0.09029
0.08590
0.08503
0.08503
0.08503
0.08853
0.09379
0.09905
0.09993
0.09993
0.09642
0.09467
0.09905
0.09993
0.10344
0.10519
0.10870
0.10607
0.10168
0.09642
0.09116
0.09029
0.09029
0.08590
0.08503
0.08503
0.07363
0.06662
0.05785
0.04734
0.04471
0.04120
0.03594
0.02805
0.01753
0.00088
-0.01227
-0.02191
-0.02893
-0.02980
-0.02980
-0.03682
-0.04734
-0.05347
-0.05522
-0.05873
-0.06399
-0.06487
-0.06487
-0.06487
-0.06487
-0.06487
-0.06837
-0.07363
-0.07100
-0.06662
-0.06487
-0.06487
-0.06487
-0.06837
-0.07363
-0.07889
-0.07977
-0.07626
-0.07100
-0.07013
-0.07013
-0.07013
-0.07363
-0.07539
-0.07539
-0.07539
-0.07100
-0.06662
-0.06136
-0.05961
-0.06399
-0.06487
-0.06837
-0.07013
-0.06311
-0.05610
-0.05522
-0.05172
-0.04646
-0.04120
-0.03682
-0.03156
-0.01928
-0.00789
0.00526
0.01666
0.03419
0.04032
0.04032
0.04032
0.04032
0.04032
0.04032
0.03682
0.02454
0.00614
-0.01403
-0.03769
-0.05522
-0.06662
-0.07714
-0.08328
-0.08853
-0.09730
-0.09993
-0.09993
-0.10344
-0.10168
-0.09993
-0.09642
-0.09467
-0.09818
-0.09993
-0.10344
-0.10519
-0.10168
-0.09642
-0.09116
-0.09029
-0.09379
-0.09818
-0.09993
-0.09993
-0.09993
-0.09993
-0.09292
-0.08678
-0.08503
-0.08503
-0.09204
-0.10168
-0.11220
-0.10168
-0.04734
0.04997
0.16743
0.27700
0.36466
0.39359
0.31294
0.11133
-0.16304
-0.41199
-0.59783
-0.74860
-0.88009
-0.97125
-0.99141
-0.93268
-0.81347
-0.65130
-0.46985
-0.31206
-0.20074
-0.13236
-0.09116
-0.06311
-0.03769
-0.02016
-0.00789
-0.00526
-0.00526
-0.00526
-0.00526
-0.00175
0.00000
0.00351
0.00877
0.01315
0.01490
0.01140
0.00964
0.00964
0.01315
0.01841
0.02367
0.02805
0.02630
0.02191
0.01666
0.01490
0.01490
0.01841
0.02630
0.03331
0.03156
0.02980
0.02630
0.02542
0.02805
0.03331
0.03857
0.04032
0.04032
0.04032
0.04032
0.03682
0.03506
0.03857
0.04032
0.04295
0.04471
0.04471
0.04471
0.04208
0.04032
0.04032
0.04032
0.04646
0.05698
0.05961
0.05698
0.05522
0.05172
0.04997
0.05347
0.05785
0.06311
0.06487
0.06487
0.06487
0.06487
0.06487
0.06487
0.06837
0.07013
0.07363
0.07802
0.07977
0.07714
0.07539
0.07539
0.07802
0.08328
0.08503
0.08503
0.08503
0.08503
0.08152
0.07977
0.08328
0.08503
0.08853
0.09292
0.09467
0.09467
0.09204
0.09029
0.09029
0.09292
0.09818
0.10344
0.10782
0.10957
0.10694
0.10519
0.10519
0.10519
0.10782
0.10957
0.10957
0.10694
0.10519
0.10168
0.09642
0.09467
0.09467
0.09467
0.08853
0.08503
0.07889
0.06837
0.05873
0.04909
0.04208
0.03682
0.03156
0.02367
0.01403
0.00088
-0.00789
-0.01666
-0.02016
-0.02279
-0.02805
-0.03331
-0.03769
-0.04646
-0.05347
-0.05522
-0.05522
-0.05785
-0.05961
-0.05961
-0.05961
-0.06311
-0.06837
-0.07276
-0.07188
-0.06662
-0.06224
-0.05961
-0.05961
-0.06311
-0.06837
-0.07276
-0.07539
-0.07188
-0.06399
-0.05698
-0.05522
-0.05522
-0.05522
-0.05785
-0.05961
-0.05961
-0.05698
-0.05522
-0.05522
-0.05522
-0.05522
-0.05785
-0.05698
-0.05522
-0.04909
-0.03594
-0.02717
-0.01928
-0.01227
-0.00701
-0.00175
0.00877
0.02717
0.04120
0.05084
0.05522
0.04909
0.04208
0.04032
0.04032
0.03419
0.02104
0.00614
-0.01227
-0.03243
-0.04909
-0.06662
-0.08065
-0.08766
-0.09292
-0.09204
-0.09029
-0.09292
-0.09818
-0.09993
-0.10256
-0.10519
-0.10168
-0.09993
-0.09730
-0.09204
-0.09029
-0.09292
-0.09818
-0.09993
-0.09730
-0.09204
-0.08678
-0.08503
-0.08503
-0.08503
-0.08766
-0.09029
-0.09029
-0.08678
-0.08240
-0.07977
-0.08853
-0.10081
-0.09642
-0.05522
0.03156
0.14814
0.26122
0.35502
0.39008
0.30856
0.09555
-0.18408
-0.43303
-0.61185
-0.75649
-0.88447
-0.97301
-0.99404
-0.93794
-0.81347
-0.64253
-0.46371
-0.31469
-0.20775
-0.13499
-0.08941
-0.06311
-0.04646
-0.03419
-0.02717
-0.01928
-0.00964
-0.00526
-0.00526
-0.00526
-0.00526
-0.00526
-0.00526
-0.00526
-0.00175
0.00263
0.00789
0.00964
0.00701
0.00526
0.00526
0.00526
0.01052
0.01490
0.01490
0.01490
0.01490
0.01490
0.01490
0.01490
0.01490
0.01490
0.01490
0.01490
0.01490
0.01490
0.01490
0.01490
0.01753
0.02279
0.02805
0.02980
0.02980
0.02717
0.02542
0.02542
0.02542
0.02805
0.02980
0.03243
0.03769
0.04032
0.03682
0.03243
0.03243
0.03769
0.04295
0.04734
0.05259
0.05259
0.04734
0.04471
0.04471
0.04734
0.05259
0.05785
0.06311
0.06487
0.06487
0.06487
0.06487
0.06487
0.06750
0.07276
0.07802
0.07977
0.07714
0.07188
0.07013
0.07276
0.07802
0.08240
0.08503
0.08766
0.08766
0.08503
0.08503
0.08503
0.08503
0.09029
0.09730
0.10256
0.10519
0.10256
0.09993
0.09993
0.09993
0.09993
0.10256
0.10519
0.10519
0.10256
0.09993
0.09730
0.09467
0.09467
0.09467
0.09730
0.09730
0.09204
0.08766
0.08240
0.07451
0.07013
0.06750
0.06487
0.06224
0.05435
0.04471
0.03769
0.02980
0.02279
0.01753
0.00964
0.00000
-0.00789
-0.01753
-0.02805
-0.03243
-0.03769
-0.04032
-0.03769
-0.03769
-0.04295
-0.04734
-0.05259
-0.05785
-0.06224
-0.06487
-0.06224
-0.05961
-0.06224
-0.06750
-0.07276
-0.07276
-0.06750
-0.06487
-0.06224
-0.05961
-0.05961
-0.05961
-0.06224
-0.06750
-0.07013
-0.07013
-0.06750
-0.06224
-0.05785
-0.05522
-0.05522
-0.05785
-0.05961
-0.05961
-0.05961
-0.05785
-0.05522
-0.05522
-0.05522
-0.05259
-0.04734
-0.04032
-0.03243
-0.02279
-0.00964
0.00263
0.01490
0.02542
0.03506
0.04032
0.04295
0.04734
0.04997
0.04997
0.04734
0.04032
0.02454
0.00526
-0.01753
-0.04032
-0.05522
-0.06750
-0.07714
-0.08503
-0.09467
-0.10256
-0.10782
-0.10957
-0.10957
-0.10782
-0.10519
-0.10519
-0.10519
-0.10782
-0.10782
-0.10519
-0.10519
-0.10256
-0.09993
-0.09993
-0.09993
-0.09993
-0.09993
-0.09993
-0.09730
-0.09292
-0.09029
-0.08766
-0.08503
-0.08766
-0.09204
-0.09730
-0.10256
-0.10519
-0.09292
-0.04558
0.04120
0.14814
0.24895
0.33836
0.38745
0.32434
0.12973
-0.14727
-0.41375
-0.61711
-0.77753
-0.91252
-1.00632
-1.02998
-0.97213
-0.84590
-0.67409
-0.48913
-0.33047
-0.21739
-0.14376
-0.09555
-0.06311
-0.04032
-0.02542
-0.01753
-0.01227
-0.00964
-0.00789
-0.00526
-0.00526
-0.00263
0.00263
0.00526
0.00526
0.00263
-0.00263
-0.00263
0.00000
0.00263
0.00701
0.01227
0.01490
0.01227
0.00964
0.00964
0.00964
0.01227
0.01753
0.02016
0.01753
0.01490
0.01490
0.01490
0.01490
0.01490
0.01753
0.02016
0.01753
0.01490
0.01490
0.01490
0.01490
0.01490
0.01753
0.02016
0.02191
0.02542
0.02542
0.02279
0.01753
0.01753
0.02191
0.02717
0.02980
0.02980
0.02980
0.02805
0.02542
0.02542
0.02717
0.03419
0.04032
0.04032
0.04032
0.04032
0.04032
0.04208
0.04734
0.04997
0.05259
0.05522
0.05522
0.05259
0.04997
0.04997
0.05259
0.05961
0.06487
0.06750
0.07188
0.07539
0.07276
0.07013
0.07188
0.07714
0.08240
0.08503
0.08503
0.08503
0.08503
0.08503
0.08503
0.08503
0.08678
0.09029
0.09029
0.09029
0.08766
0.08503
0.08503
0.08678
0.09204
0.09730
0.09993
0.09818
0.09292
0.09029
0.08766
0.08503
0.08503
0.08503
0.08503
0.08328
0.07539
0.06574
0.05610
0.04821
0.04295
0.04032
0.03594
0.02542
0.01578
0.00351
-0.00701
-0.01403
-0.02191
-0.02717
-0.02980
-0.03243
-0.03682
-0.04383
-0.05172
-0.05698
-0.05961
-0.05961
-0.05785
-0.05522
-0.05522
-0.05698
-0.06224
-0.06750
-0.06750
-0.06487
-0.06311
-0.05961
-0.05961
-0.06224
-0.06750
-0.07013
-0.07013
-0.06750
-0.06487
-0.06311
-0.05961
-0.05961
-0.06224
-0.06750
-0.07013
-0.07013
-0.07013
-0.06837
-0.06311
-0.05785
-0.05522
-0.05522
-0.05522
-0.05259
-0.04558
-0.03594
-0.02630
-0.01403
-0.00526
-0.00088
0.00877
0.01928
0.03068
0.04208
0.04471
0.04295
0.04032
0.04032
0.03594
0.02367
0.00877
-0.00614
-0.02104
-0.03769
-0.05435
-0.06837
-0.08590
-0.09730
-0.10168
-0.10519
-0.10519
-0.10344
-0.10168
-0.10519
-0.10694
-0.11220
-0.11659
-0.12009
-0.11834
-0.11308
-0.10782
-0.10519
-0.10694
-0.10957
-0.10782
-0.10519
-0.10344
-0.09993
-0.09993
-0.09993
-0.09993
-0.09993
-0.09993
-0.09993
-0.09993
-0.09993
-0.09993
-0.10168
-0.09555
-0.05259
0.03419
0.14990
0.26034
0.35589
0.39183
0.30067
0.08590
-0.18759
-0.44443
-0.63903
-0.78892
-0.91690
-1.00193
-1.01683
-0.95284
-0.82399
-0.65481
-0.47511
-0.32258
-0.21301
-0.13762
-0.08678
-0.05785
-0.04120
-0.03331
-0.02980
-0.02805
-0.02279
-0.01666
-0.00789
-0.00526
-0.00526
-0.00526
-0.00526
-0.00526
-0.00526
-0.00351
0.00175
0.00526
0.00526
0.00526
0.00351
0.00000
0.00175
0.00701
0.01227
0.01490
0.01490
0.01490
0.01315
0.00789
0.00701
0.01140
0.01490
0.01490
0.01841
0.02542
0.02542
0.02279
0.02016
0.02191
0.02542
0.02717
0.02980
0.02980
0.02980
0.02805
0.02542
0.02717
0.03156
0.03506
0.03682
0.04032
0.04032
0.03857
0.03506
0.03506
0.03682
0.04032
0.04208
0.04471
0.04471
0.04471
0.04295
0.04032
0.04208
0.04646
0.04997
0.05172
0.05347
0.04997
0.04997
0.05172
0.05698
0.06136
0.06487
0.06487
0.06487
0.06487
0.06487
0.06487
0.06487
0.06837
0.07714
0.08152
0.08503
0.08328
0.07977
0.07802
0.07714
0.08152
0.08678
0.09204
0.09642
0.09818
0.09292
0.08853
0.08503
0.08678
0.09204
0.09642
0.09993
0.09818
0.09467
0.09292
0.09029
0.09029
0.09029
0.09204
0.09292
0.09029
0.08853
0.08503
0.08152
0.07188
0.06311
0.05873
0.05347
0.04646
0.03857
0.03156
0.02191
0.00964
-0.00175
-0.00701
-0.01140
-0.01666
-0.02191
-0.02630
-0.03331
-0.04295
-0.05172
-0.05522
-0.05522
-0.05522
-0.05522
-0.05522
-0.05698
-0.06136
-0.06487
-0.06311
-0.05873
-0.05522
-0.05522
-0.05522
-0.05522
-0.05698
-0.05961
-0.05961
-0.05873
-0.05522
-0.05522
-0.05522
-0.05522
-0.05522
-0.05698
-0.05961
-0.05873
-0.05522
-0.05522
-0.05522
-0.05522
-0.05522
-0.05698
-0.05961
-0.05961
-0.05873
-0.05347
-0.04646
-0.03857
-0.03331
-0.02980
-0.02805
-0.02191
-0.01227
0.00088
0.01928
0.03331
0.04295
0.04997
0.04821
0.04646
0.04997
0.04997
0.04734
0.03506
0.01753
-0.00789
-0.03068
-0.04997
-0.06311
-0.07276
-0.07977
-0.08152
-0.08678
-0.09292
-0.09993
-0.09993
-0.09993
-0.09993
-0.09818
-0.09467
-0.09379
-0.09116
-0.09642
-0.09993
-0.09993
-0.09818
-0.09379
-0.08853
-0.08503
-0.08503
-0.08678
-0.09116
-0.09467
-0.09379
-0.08853
-0.08328
-0.07889
-0.07626
-0.08152
-0.08941
-0.10168
-0.09818
-0.05873
0.02542
0.13149
0.24018
0.33661
0.39183
0.35502
0.18058
-0.09029
-0.37167
-0.58819
-0.75123
-0.89061
-0.99843
-1.04050
-1.00018
-0.88096
-0.71354
-0.51806
-0.34537
-0.22002
-0.13938
-0.09204
-0.06311
-0.04120
-0.02717
-0.01578
-0.00351
0.00000
-0.00175
-0.00526
-0.00526
-0.00526
-0.00351
0.00175
0.00789
0.01490
0.01490
0.01403
0.00964
0.00964
0.01140
0.01490
0.01666
0.02016
0.01841
0.01490
0.01490
0.01490
0.01490
0.01666
0.02104
0.02542
0.02630
0.02980
0.02893
0.02542
0.02542
0.02630
0.03156
0.03594
0.04032
0.04032
0.03857
0.03506
0.03506
0.03506
0.03506
0.03594
0.04032
0.04032
0.03857
0.03506
0.03506
0.03594
0.04032
0.04120
0.04646
0.04997
0.04997
0.04909
0.04383
0.04120
0.04646
0.05084
0.05610
0.06136
0.06487
0.06487
0.06399
0.05961
0.05961
0.06136
0.06487
0.06662
0.07013
0.07013
0.07013
0.07013
0.07013
0.07100
0.07626
0.07977
0.08152
0.08415
0.07889
0.07539
0.07539
0.07626
0.08152
0.08590
0.09116
0.09467
0.09379
0.08853
0.08503
0.08590
0.09116
0.09642
0.10081
0.10344
0.09905
0.09467
0.09467
0.09642
0.10081
0.10607
0.10957
0.10870
0.10256
0.09292
0.08503
0.08415
0.07977
0.07977
0.07889
0.07276
0.06399
0.05785
0.04734
0.03857
0.03419
0.02893
0.02279
0.01490
0.01227
0.00263
-0.00701
-0.01578
-0.02104
-0.02630
-0.02980
-0.02980
-0.03156
-0.03594
-0.04208
-0.04997
-0.05084
-0.05522
-0.05347
-0.04997
-0.04997
-0.04997
-0.05084
-0.05522
-0.05522
-0.05522
-0.05522
-0.05347
-0.04997
-0.05084
-0.05522
-0.05610
-0.05961
-0.05961
-0.05873
-0.05522
-0.05522
-0.05522
-0.05522
-0.05522
-0.05522
-0.05522
-0.05522
-0.05522
-0.05522
-0.05522
-0.05522
-0.05522
-0.05610
-0.05961
-0.05873
-0.05435
-0.04646
-0.03419
-0.02893
-0.02279
-0.01403
-0.00877
-0.00263
0.00789
0.02454
0.04120
0.04646
0.04909
0.04471
0.04471
0.04471
0.04383
0.03769
0.02717
0.01052
-0.00964
-0.03419
-0.05435
-0.07188
-0.08240
-0.09116
-0.09642
-0.09993
-0.09993
-0.09993
-0.10081
-0.10519
-0.10519
-0.10519
-0.10431
-0.09993
-0.09993
-0.09993
-0.09993
-0.09993
-0.09993
-0.09993
-0.09993
-0.09905
-0.09467
-0.09467
-0.09467
-0.09467
-0.09467
-0.09467
-0.09379
-0.08853
-0.07977
-0.08152
-0.09292
-0.10431
-0.09116
-0.03594
0.06750
0.18496
0.28664
0.36641
0.38044
0.27437
0.04120
-0.24194
-0.48300
-0.65744
-0.80470
-0.93093
-1.00281
-1.00193
-0.92041
-0.77840
-0.60046
-0.41725
-0.27086
-0.17356
-0.11308
-0.07539
-0.05347
-0.04208
-0.02893
-0.02454
-0.01841
-0.00964
-0.00877
-0.00614
-0.00964
-0.00964
-0.00964
-0.00964
-0.00877
-0.00438
0.00000
0.00000
-0.00088
-0.00526
-0.00526
-0.00438
0.00175
0.01052
0.01490
0.01490
0.01403
0.00964
0.00964
0.01052
0.01490
0.01490
0.01490
0.01490
0.01490
0.01490
0.01490
0.01578
0.02104
0.02630
0.03594
0.03945
0.03419
0.02805
0.02016
0.02016
0.02191
0.03068
0.03594
0.03945
0.03419
0.02893
0.02542
0.02542
0.02542
0.03156
0.04032
0.04120
0.04471
0.04471
0.04383
0.04032
0.04032
0.04120
0.04646
0.05610
0.05961
0.05522
0.05435
0.04997
0.05084
0.05610
0.06048
0.06487
0.06487
0.06487
0.06487
0.06487
0.06487
0.06574
0.07100
0.07539
0.07539
0.07977
0.07977
0.07977
0.07977
0.07977
0.08065
0.08503
0.08590
0.09029
0.09029
0.08941
0.08503
0.08590
0.09029
0.09555
0.09993
0.09993
0.09993
0.09905
0.09467
0.08941
0.08503
0.08503
0.08503
0.08503
0.08503
0.08415
0.07889
0.06925
0.06399
0.05961
0.05961
0.05961
0.05347
0.04471
0.03857
0.02805
0.01403
0.00877
-0.00088
-0.00526
-0.00526
-0.01140
-0.02104
-0.03068
-0.03594
-0.04032
-0.04471
-0.04558
-0.04997
-0.05084
-0.05522
-0.06136
-0.07100
-0.07539
-0.07451
-0.07013
-0.06925
-0.06487
-0.06574
-0.07013
-0.07100
-0.07539
-0.07451
-0.06925
-0.06487
-0.06487
-0.06574
-0.07100
-0.07539
-0.07977
-0.07977
-0.07889
-0.06925
-0.06487
-0.06487
-0.06574
-0.07100
-0.07539
-0.07977
-0.07977
-0.07451
-0.06925
-0.06487
-0.06487
-0.06574
-0.07013
-0.07539
-0.07451
-0.06925
-0.05961
-0.05435
-0.04909
-0.04383
-0.03419
-0.02893
-0.01841
-0.00351
0.01140
0.02630
0.04032
0.04032
0.04032
0.03945
0.03506
0.03419
0.02805
0.01315
-0.00263
-0.02717
-0.05172
-0.07100
-0.08065
-0.09029
-0.09555
-0.09993
-0.09993
-0.10081
-0.10519
-0.11045
-0.11571
-0.12009
-0.11922
-0.10957
-0.10431
-0.10081
-0.10519
-0.11045
-0.11483
-0.11483
-0.11483
-0.10870
-0.09993
-0.09993
-0.09993
-0.09993
-0.09993
-0.09993
-0.09993
-0.09993
-0.09467
-0.09029
-0.09555
-0.10168
-0.11396
-0.09555
-0.03594
0.07013
0.19022
0.30330
0.39183
0.40586
0.28489
0.03945
-0.26122
-0.50929
-0.67584
-0.80996
-0.92655
-1.00018
-0.99930
-0.92479
-0.79594
-0.62500
-0.44267
-0.29103
-0.18496
-0.12184
-0.07802
-0.05347
-0.03945
-0.02893
-0.01928
-0.01403
-0.00526
-0.00526
-0.00526
-0.00526
-0.00526
-0.00526
-0.00438
0.00000
0.00526
0.01052
0.01490
0.00964
0.00964
0.00526
0.01052
0.01490
0.01578
0.02016
0.02542
0.02454
0.02016
0.02016
0.02016
0.02542
0.02980
0.02980
0.02980
0.02980
0.02454
0.02016
0.02016
0.02542
0.03068
0.03506
0.04032
0.03945
0.03506
0.02980
0.02980
0.03068
0.04032
0.04032
0.04471
0.04032
0.03945
0.03506
0.02980
0.03068
0.03506
0.04032
0.04558
0.04997
0.04997
0.04997
0.04471
0.04471
0.04558
0.05522
0.06048
0.06487
0.06487
0.06487
0.06487
0.06487
0.06487
0.06487
0.07013
0.07539
0.07539
0.07451
0.07013
0.07013
0.07539
0.07539
0.08065
0.08503
0.08503
0.08503
0.08503
0.08065
0.08503
0.08503
0.09029
0.09555
0.09993
0.09993
0.09993
0.09993
0.09993
0.09993
0.10519
0.10957
0.10957
0.10957
0.10957
0.10519
0.09993
0.09993
0.10519
0.10519
0.10519
0.09993
0.09467
0.08941
0.08503
0.08503
0.07977
0.07977
0.07451
0.06487
0.05961
0.04997
0.03945
0.02980
0.02454
0.01490
0.01490
0.00964
0.00000
-0.00526
-0.01578
-0.02980
-0.02980
-0.03506
-0.02980
-0.02980
-0.03506
-0.04032
-0.04997
-0.05522
-0.05522
-0.05522
-0.05522
-0.05522
-0.05522
-0.05522
-0.05522
-0.05522
-0.05522
-0.05522
-0.05522
-0.05522
-0.04471
-0.04032
-0.04032
-0.04471
-0.04471
-0.04471
-0.04032
-0.03506
-0.02980
-0.02980
-0.02980
-0.03506
-0.03506
-0.03506
-0.03506
-0.03506
-0.02980
-0.02980
-0.03506
-0.03506
-0.03506
-0.02980
-0.02454
-0.01490
-0.00526
0.00526
0.01490
0.02016
0.02980
0.04032
0.04997
0.05961
0.06487
0.06487
0.06487
0.06487
0.05961
0.04032
0.02016
0.00526
-0.00964
-0.02980
-0.04032
-0.05522
-0.06487
-0.07977
-0.07977
-0.08503
-0.07977
-0.07977
-0.07977
-0.07977
-0.07977
-0.07977
-0.08503
-0.08503
-0.07977
-0.07977
-0.07539
-0.07013
-0.07539
-0.07539
-0.07977
-0.07977
-0.07977
-0.07539
-0.07013
-0.06487
-0.06487
-0.07013
-0.07013
-0.07451
-0.07539
-0.07539
-0.07977
-0.07977
-0.07539
-0.02542
0.06837
0.18846
0.29365
0.38833
0.41462
0.31119
0.09379
-0.18058
-0.43566
-0.62676
-0.77753
-0.91778
-0.99843
-1.00018
-0.91690
-0.77314
-0.59345
-0.41375
-0.27262
-0.17181
-0.10607
-0.06574
-0.03594
-0.02016
-0.01052
-0.00526
-0.00526
0.00000
0.00526
0.00964
0.01490
0.01490
0.01490
0.01490
0.01490
0.01490
0.01490
0.01490
0.02016
0.02454
0.02980
0.02542
0.01490
0.01490
0.01490
0.02454
0.02980
0.03506
0.03506
0.03506
0.03506
0.02980
0.02980
0.03506
0.03945
0.04032
0.04032
0.04032
0.04032
0.03506
0.03506
0.03506
0.03506
0.03945
0.04471
0.04471
0.04032
0.04032
0.04032
0.04032
0.04032
0.04471
0.04471
0.04471
0.04471
0.04032
0.04032
0.04032
0.04471
0.05435
0.05961
0.05961
0.05961
0.05522
0.05522
0.05522
0.05961
0.06487
0.07013
0.07451
0.07539
0.07013
0.06487
0.06487
0.07013
0.07451
0.08415
0.08941
0.09029
0.09029
0.08503
0.08503
0.08503
0.08941
0.09467
0.09993
0.10957
0.10957
0.10519
0.09993
0.10431
0.10957
0.10957
0.11483
0.11483
0.11045
0.10957
0.10957
0.10519
0.10519
0.10957
0.10957
0.11483
0.11045
0.10957
0.10519
0.09993
0.09993
0.09993
0.09993
0.09993
0.09555
0.08590
0.08065
0.07100
0.06574
0.06048
0.05522
0.04997
0.04558
0.04032
0.02630
0.01578
0.01052
0.00526
0.00000
-0.00438
-0.00526
-0.01403
-0.02454
-0.02980
-0.03506
-0.03506
-0.03506
-0.03506
-0.03945
-0.04471
-0.04997
-0.05435
-0.05961
-0.06487
-0.06487
-0.06048
-0.05522
-0.05522
-0.05961
-0.06487
-0.06925
-0.07451
-0.07013
-0.06574
-0.05610
-0.05522
-0.05961
-0.06487
-0.06925
-0.07451
-0.07013
-0.06574
-0.06048
-0.05522
-0.05522
-0.05961
-0.06487
-0.06925
-0.07013
-0.06574
-0.06487
-0.06925
-0.07013
-0.07013
-0.07451
-0.07013
-0.06574
-0.06048
-0.05522
-0.04558
-0.04032
-0.03506
-0.03068
-0.02104
-0.01578
-0.00614
0.01315
0.02893
0.03945
0.04471
0.04032
0.04032
0.03506
0.03068
0.02104
0.01140
-0.00351
-0.02279
-0.04295
-0.06311
-0.07889
-0.09379
-0.09905
-0.09993
-0.09993
-0.10431
-0.10957
-0.10957
-0.11483
-0.11483
-0.11483
-0.11045
-0.10519
-0.10081
-0.10431
-0.10957
-0.11922
-0.12009
-0.11571
-0.10607
-0.10081
-0.09993
-0.09993
-0.10431
-0.10957
-0.10957
-0.10519
-0.10081
-0.09993
-0.09993
-0.09993
-0.10431
-0.11834
-0.12447
-0.09818
-0.01578
0.10519
0.23054
0.33310
0.40235
0.36992
0.19285
-0.08590
-0.37167
-0.57679
-0.73195
-0.86869
-0.97739
-1.02122
-0.98528
-0.88359
-0.73370
-0.55225
-0.38044
-0.24632
-0.15954
-0.10607
-0.07363
-0.05698
-0.04646
-0.03156
-0.02542
-0.02104
-0.01578
-0.01052
-0.00964
-0.00964
-0.00964
-0.00526
-0.00526
-0.00526
-0.00526
-0.00088
-0.00438
-0.00526
-0.00964
-0.00964
-0.00526
-0.00088
0.00438
0.00964
0.00964
0.00526
0.00088
0.00000
0.00877
0.01403
0.01490
0.01928
0.01578
0.01490
0.01490
0.01490
0.01490
0.01490
0.01928
0.02454
0.02104
0.01578
0.01490
0.01490
0.01490
0.01490
0.01928
0.02454
0.02542
0.02893
0.02980
0.02980
0.02980
0.03419
0.03945
0.04032
0.04032
0.04032
0.04032
0.04032
0.04032
0.04032
0.04383
0.04909
0.05435
0.05084
0.04997
0.04997
0.04997
0.04997
0.05435
0.05961
0.05961
0.06399
0.06487
0.06487
0.06487
0.06487
0.06925
0.07802
0.08415
0.08503
0.08503
0.08065
0.07977
0.07977
0.07977
0.08415
0.08503
0.08941
0.09029
0.08590
0.08503
0.08503
0.08503
0.08503
0.08941
0.09379
0.09905
0.09993
0.09555
0.09116
0.09029
0.09029
0.09379
0.09905
0.09993
0.09993
0.09555
0.08678
0.08503
0.08503
0.08065
0.07977
0.07626
0.06662
0.06048
0.05172
0.04208
0.03594
0.03506
0.02630
0.01666
0.01052
0.00175
-0.00438
-0.01315
-0.02367
-0.02893
-0.02980
-0.02980
-0.03419
-0.03945
-0.04821
-0.05435
-0.05522
-0.05522
-0.05522
-0.05522
-0.05522
-0.05522
-0.05522
-0.05873
-0.05961
-0.05961
-0.05610
-0.05522
-0.05084
-0.04997
-0.05435
-0.05522
-0.05522
-0.05522
-0.05522
-0.05084
-0.04558
-0.04120
-0.04383
-0.04909
-0.05435
-0.05522
-0.05084
-0.04997
-0.04997
-0.04558
-0.04909
-0.04997
-0.05435
-0.05522
-0.05522
-0.05084
-0.04208
-0.03156
-0.02191
-0.01578
-0.01140
-0.00614
0.00263
0.01315
0.03068
0.04734
0.06224
0.06487
0.06487
0.06136
0.05610
0.05522
0.05084
0.04208
0.02016
0.00263
-0.02016
-0.04120
-0.05698
-0.07188
-0.07889
-0.08415
-0.08941
-0.09379
-0.09905
-0.09993
-0.09993
-0.09993
-0.09993
-0.09642
-0.09116
-0.09029
-0.09379
-0.09905
-0.09993
-0.09993
-0.09993
-0.09642
-0.09116
-0.08590
-0.08503
-0.08503
-0.08853
-0.09029
-0.09029
-0.08590
-0.08065
-0.07977
-0.07977
-0.08415
-0.09642
-0.09993
-0.07276
0.00526
0.11922
0.23931
0.34713
0.41287
0.39359
0.23668
-0.03506
-0.32258
-0.55312
-0.72493
-0.86869
-0.98177
-1.03261
-0.99317
-0.88710
-0.73545
-0.55225
-0.37781
-0.24720
-0.15428
-0.09993
-0.06662
-0.04471
-0.03243
-0.02191
-0.00877
-0.00088
0.00351
0.00526
0.00526
0.00526
0.00526
0.00526
0.01227
0.01490
0.01490
0.01490
0.01490
0.01140
0.00614
0.00877
0.01403
0.01490
0.01841
0.02016
0.02016
0.02016
0.01578
0.01490
0.01841
0.02367
0.02542
0.02893
0.02980
0.02630
0.02542
0.02542
0.02542
0.02893
0.03419
0.03857
0.04032
0.04032
0.03594
0.03506
0.03506
0.03857
0.04032
0.04032
0.04032
0.04032
0.04032
0.03594
0.03857
0.04032
0.04383
0.05259
0.05522
0.05522
0.05084
0.04997
0.04997
0.04997
0.05347
0.06224
0.06487
0.06487
0.06487
0.06487
0.06487
0.06487
0.06487
0.06837
0.07363
0.07539
0.07539
0.07539
0.07100
0.07363
0.07889
0.08415
0.08503
0.08853
0.09029
0.08590
0.08503
0.08503
0.08853
0.09029
0.09379
0.09905
0.09993
0.09993
0.09993
0.09993
0.09993
0.10344
0.10870
0.10957
0.10957
0.10957
0.10607
0.10168
0.09993
0.09993
0.10344
0.10519
0.10519
0.10168
0.09642
0.08766
0.08503
0.08152
0.07977
0.07626
0.07100
0.06662
0.06136
0.05259
0.04295
0.04032
0.03243
0.02980
0.02630
0.01753
0.00789
-0.00263
-0.01578
-0.02367
-0.02893
-0.02980
-0.02980
-0.03331
-0.03857
-0.04383
-0.04821
-0.05347
-0.05522
-0.05172
-0.04997
-0.04646
-0.04821
-0.05347
-0.05522
-0.05522
-0.05873
-0.05610
-0.05522
-0.05172
-0.04997
-0.05347
-0.05873
-0.06399
-0.06487
-0.06487
-0.06136
-0.05610
-0.05522
-0.05522
-0.05522
-0.05873
-0.05961
-0.05961
-0.05610
-0.05522
-0.05172
-0.04646
-0.04821
-0.05347
-0.05172
-0.04646
-0.03419
-0.02279
-0.00964
0.00175
0.01227
0.01490
0.02542
0.03682
0.04734
0.05347
0.05873
0.05961
0.05961
0.05610
0.04471
0.03682
0.02104
0.00088
-0.01578
-0.03068
-0.04909
-0.06574
-0.07714
-0.08328
-0.08853
-0.08678
-0.08503
-0.08503
-0.08503
-0.08503
-0.08853
-0.09379
-0.09467
-0.09116
-0.08678
-0.08152
-0.08328
-0.08503
-0.08853
-0.09029
-0.09029
-0.08678
-0.08152
-0.07977
-0.07977
-0.07977
-0.07977
-0.07977
-0.07977
-0.07977
-0.07977
-0.07977
-0.08678
-0.09379
-0.08152
-0.02717
0.07013
0.18321
0.28840
0.36816
0.36992
0.23755
-0.00351
-0.27349
-0.50316
-0.67497
-0.82048
-0.93970
-1.00193
-0.98440
-0.89236
-0.74334
-0.56452
-0.39359
-0.25859
-0.16567
-0.10256
-0.06487
-0.03857
-0.02630
-0.02191
-0.01666
-0.01490
-0.01140
-0.00701
-0.00175
0.00351
0.00175
0.00000
0.00000
0.00000
0.00351
0.01140
0.01490
0.01490
0.01841
0.02016
0.01666
0.01490
0.01490
0.01490
0.01841
0.02016
0.02016
0.01666
0.01490
0.01140
0.00964
0.01315
0.01841
0.02367
0.02542
0.02542
0.02542
0.02191
0.01666
0.01841
0.02367
0.03156
0.03506
0.03506
0.03156
0.02630
0.02542
0.02805
0.02980
0.03331
0.03857
0.04032
0.04032
0.04032
0.04032
0.04032
0.04032
0.04295
0.04821
0.05347
0.05522
0.05172
0.04997
0.04997
0.04997
0.05347
0.05785
0.06311
0.06487
0.06136
0.05698
0.05522
0.05785
0.06311
0.06837
0.07626
0.07977
0.07714
0.07188
0.06662
0.06487
0.06837
0.07626
0.08328
0.08853
0.09029
0.09029
0.08678
0.08503
0.08503
0.08853
0.09292
0.09818
0.09993
0.09993
0.09993
0.09993
0.09993
0.10344
0.10519
0.10519
0.10519
0.10168
0.09642
0.08853
0.08503
0.08503
0.08503
0.08503
0.08503
0.08503
0.08152
0.07013
0.06224
0.05698
0.05172
0.04646
0.04208
0.03331
0.02367
0.01403
0.00088
-0.00789
-0.01315
-0.01490
-0.01841
-0.02630
-0.03331
-0.04120
-0.05084
-0.05522
-0.05785
-0.05961
-0.05961
-0.06311
-0.06837
-0.07276
-0.07802
-0.07977
-0.07977
-0.07977
-0.07714
-0.07539
-0.07802
-0.07977
-0.08590
-0.09292
-0.09467
-0.09204
-0.08678
-0.08152
-0.07977
-0.07977
-0.08328
-0.08503
-0.08503
-0.08152
-0.07977
-0.07977
-0.07977
-0.07977
-0.07977
-0.07977
-0.08328
-0.08152
-0.07977
-0.07714
-0.07539
-0.07188
-0.07276
-0.07802
-0.07977
-0.07977
-0.07977
-0.07714
-0.07188
-0.06399
-0.05698
-0.05522
-0.04909
-0.03594
-0.02717
-0.01578
-0.00438
0.00877
0.01841
0.02279
0.02542
0.02191
0.02016
0.02016
0.02016
0.01666
0.00614
-0.01227
-0.03506
-0.05961
-0.07626
-0.08853
-0.09818
-0.09993
-0.10256
-0.10782
-0.11308
-0.11834
-0.12272
-0.12184
-0.11746
-0.11483
-0.11483
-0.11483
-0.11834
-0.12272
-0.12535
-0.12184
-0.11396
-0.10957
-0.10694
-0.10519
-0.10782
-0.11308
-0.11483
-0.11483
-0.11220
-0.10694
-0.10519
-0.10168
-0.10256
-0.11045
-0.12097
-0.12798
-0.11220
-0.04734
0.05961
0.17970
0.29103
0.37255
0.38219
0.26297
0.02016
-0.27086
-0.51368
-0.68987
-0.83538
-0.95284
-1.01771
-1.01508
-0.94232
-0.80558
-0.62325
-0.43654
-0.28840
-0.18934
-0.12623
-0.08766
-0.06048
-0.04120
-0.02893
-0.01928
-0.01227
-0.00701
-0.00789
-0.00964
-0.00964
-0.00701
-0.00526
-0.00175
0.00263
0.00526
0.00526
0.00526
0.00175
0.00263
0.00789
0.01315
0.01490
0.01490
0.01490
0.01490
0.01490
0.01490
0.01490
0.01490
0.02104
0.02542
0.02542
0.02542
0.02191
0.02016
0.02016
0.02279
0.02542
0.02805
0.02980
0.02717
0.02542
0.02191
0.02016
0.02542
0.03243
0.03769
0.04032
0.03682
0.03243
0.02980
0.02980
0.03243
0.03769
0.04032
0.04032
0.04032
0.04032
0.04032
0.04032
0.04032
0.04032
0.04558
0.05259
0.05785
0.05961
0.05698
0.05522
0.05785
0.06311
0.06750
0.07276
0.07802
0.07714
0.07188
0.07013
0.07013
0.07539
0.08240
0.08766
0.09029
0.09029
0.08766
0.08503
0.08503
0.08503
0.09029
0.09730
0.09993
0.09993
0.09993
0.09993
0.09993
0.10256
0.10782
0.10957
0.10957
0.10957
0.10957
0.10957
0.10957
0.10957
0.10957
0.10957
0.11308
0.11483
0.11483
0.11220
0.10694
0.10256
0.09993
0.09993
0.09993
0.09730
0.09204
0.08766
0.07977
0.07013
0.05961
0.05259
0.04734
0.04208
0.03769
0.02980
0.02016
0.00964
0.00000
-0.00789
-0.01227
-0.01490
-0.01753
-0.02542
-0.03243
-0.04032
-0.04734
-0.04997
-0.04997
-0.04997
-0.04997
-0.05259
-0.05522
-0.06048
-0.06750
-0.06750
-0.06487
-0.06224
-0.05785
-0.05522
-0.05522
-0.05522
-0.05785
-0.06224
-0.06224
-0.05785
-0.05259
-0.04997
-0.04997
-0.05259
-0.05522
-0.05522
-0.05522
-0.05522
-0.05259
-0.04734
-0.04471
-0.04997
-0.05522
-0.05785
-0.05961
-0.05961
-0.05785
-0.04997
-0.04208
-0.03506
-0.02980
-0.02717
-0.02016
-0.00964
0.00000
0.00964
0.02279
0.03506
0.04208
0.04471
0.04208
0.04208
0.04734
0.05259
0.05259
0.04471
0.02717
0.00526
-0.01753
-0.04032
-0.05522
-0.06487
-0.07451
-0.08240
-0.09029
-0.09730
-0.09993
-0.10256
-0.10519
-0.10256
-0.09993
-0.09993
-0.10256
-0.10957
-0.11746
-0.11746
-0.11220
-0.10782
-0.10256
-0.09993
-0.09993
-0.10256
-0.10782
-0.10957
-0.11220
-0.11220
-0.10782
-0.10256
-0.09993
-0.09993
-0.09993
-0.10694
-0.12009
-0.12535
-0.11308
-0.05698
0.04734
0.16041
0.25596
0.33310
0.35765
0.26648
0.04909
-0.22879
-0.47949
-0.67321
-0.82925
-0.95723
-1.03437
-1.03349
-0.95284
-0.80733
-0.62500
-0.44706
-0.30330
-0.20424
-0.14376
-0.10344
-0.07539
-0.05785
-0.04558
-0.03506
-0.02980
-0.02980
-0.02980
-0.02980
-0.02980
-0.02980
-0.02805
-0.02279
-0.02016
-0.02016
-0.02191
-0.02717
-0.02805
-0.02542
-0.02016
-0.01227
-0.00964
-0.01227
-0.01490
-0.01490
-0.01490
-0.01227
-0.00789
-0.00526
-0.00526
-0.00526
-0.00526
-0.00526
-0.00526
-0.00526
-0.00263
0.00263
0.00701
0.01227
0.01315
0.00964
0.00964
0.00964
0.00964
0.01227
0.01490
0.01490
0.01490
0.01490
0.01315
0.00964
0.01227
0.01490
0.01490
0.01490
0.01490
0.01490
0.01490
0.01490
0.01753
0.02191
0.02980
0.03506
0.03243
0.02980
0.02805
0.02542
0.02717
0.03243
0.03682
0.04032
0.04208
0.04295
0.04032
0.04032
0.04032
0.04032
0.04471
0.05435
0.05961
0.05785
0.05522
0.05259
0.04997
0.05259
0.05961
0.06487
0.06487
0.06487
0.06487
0.06487
0.06487
0.06750
0.07013
0.07013
0.07013
0.07013
0.07013
0.07013
0.06750
0.06487
0.06750
0.07188
0.07539
0.07539
0.07539
0.07100
0.06487
0.06487
0.06487
0.06487
0.06311
0.05785
0.05084
0.04295
0.03594
0.02542
0.01753
0.01315
0.00964
0.00789
0.00088
-0.00964
-0.02104
-0.03243
-0.03682
-0.04208
-0.04734
-0.05172
-0.05522
-0.05698
-0.06399
-0.07188
-0.07714
-0.07977
-0.07977
-0.07802
-0.07539
-0.07539
-0.07714
-0.08240
-0.08503
-0.08503
-0.08328
-0.07977
-0.07977
-0.07977
-0.07977
-0.07977
-0.08240
-0.08503
-0.08503
-0.08328
-0.07977
-0.07802
-0.07714
-0.07977
-0.07977
-0.07977
-0.07977
-0.07977
-0.07977
-0.07802
-0.07714
-0.07977
-0.08240
-0.08503
-0.08503
-0.08328
-0.07802
-0.07539
-0.07539
-0.07714
-0.07977
-0.08240
-0.08503
-0.08328
-0.07802
-0.07100
-0.06136
-0.05259
-0.04821
-0.04295
-0.03594
-0.02367
-0.00877
0.00614
0.01928
0.02717
0.02980
0.02805
0.02279
0.02191
0.02717
0.02805
0.02104
0.00701
-0.01490
-0.03945
-0.06048
-0.07363
-0.08415
-0.09204
-0.09730
-0.09993
-0.09993
-0.10168
-0.10694
-0.10957
-0.10782
-0.10344
-0.09818
-0.09467
-0.09467
-0.09730
-0.10168
-0.10694
-0.10957
-0.10782
-0.10344
-0.09993
-0.09818
-0.09730
-0.09993
-0.09993
-0.09993
-0.09993
-0.09818
-0.09292
-0.08853
-0.08678
-0.09379
-0.10782
-0.12009
-0.10081
-0.03243
0.07539
0.18759
0.28577
0.35414
0.32696
0.17444
-0.05698
-0.30943
-0.52507
-0.68899
-0.82837
-0.94145
-0.99667
-0.97038
-0.86782
-0.71178
-0.52683
-0.35852
-0.23492
-0.15253
-0.10256
-0.07100
-0.04909
-0.03594
-0.02630
-0.01666
-0.00789
-0.00526
-0.00526
-0.00526
-0.00701
-0.00789
-0.00526
-0.00175
0.00701
0.00964
0.00964
0.00789
0.00526
0.00526
0.00701
0.01140
0.01490
0.01666
0.02191
0.02279
0.01841
0.01490
0.01490
0.01490
0.01666
0.02191
0.02542
0.02279
0.02016
0.01841
0.01841
0.02717
0.03331
0.04032
0.03857
0.03331
0.02980
0.02805
0.02367
0.02191
0.02717
0.02980
0.02980
0.03156
0.03506
0.03506
0.03506
0.03682
0.04032
0.04208
0.04646
0.04821
0.04295
0.04032
0.04032
0.04032
0.04383
0.05172
0.05873
0.06487
0.06487
0.06311
0.05873
0.05698
0.06136
0.06487
0.06662
0.07188
0.07539
0.07363
0.06837
0.06487
0.06662
0.07188
0.07802
0.08678
0.09029
0.09029
0.08853
0.08503
0.08503
0.08503
0.08678
0.09204
0.09467
0.09292
0.08853
0.08503
0.08503
0.08678
0.09292
0.10168
0.10694
0.10957
0.10870
0.10168
0.09467
0.09467
0.09642
0.10168
0.10519
0.10344
0.09818
0.09204
0.08503
0.08328
0.07977
0.07802
0.07363
0.06837
0.06136
0.05172
0.04208
0.03156
0.02367
0.01841
0.01315
0.00877
0.00175
-0.00964
-0.02279
-0.03156
-0.03506
-0.03506
-0.03506
-0.03506
-0.03682
-0.04295
-0.05172
-0.05522
-0.05522
-0.05522
-0.05522
-0.05522
-0.05522
-0.05522
-0.05785
-0.06662
-0.07013
-0.07013
-0.06837
-0.06311
-0.05961
-0.06136
-0.06487
-0.06487
-0.06487
-0.06487
-0.06311
-0.05873
-0.05522
-0.05522
-0.05522
-0.05785
-0.06662
-0.07013
-0.06837
-0.06487
-0.06311
-0.05961
-0.06136
-0.06662
-0.07013
-0.07013
-0.06837
-0.06487
-0.06311
-0.05961
-0.06136
-0.06487
-0.06487
-0.06311
-0.05873
-0.05172
-0.04032
-0.02893
-0.02016
-0.00877
-0.00526
-0.00175
0.00789
0.01928
0.03331
0.04032
0.04032
0.04032
0.04032
0.03682
0.02542
0.01052
-0.00438
-0.01928
-0.03594
-0.05259
-0.06574
-0.08328
-0.09116
-0.09467
-0.09467
-0.09379
-0.09029
-0.09116
-0.09642
-0.09993
-0.09993
-0.09993
-0.09993
-0.09818
-0.09467
-0.09467
-0.09642
-0.09993
-0.09993
-0.09993
-0.09993
-0.09818
-0.09379
-0.09029
-0.09029
-0.09029
-0.09116
-0.09467
-0.09379
-0.09029
-0.09116
-0.09642
-0.10168
-0.09993
-0.06311
0.02367
0.12886
0.23492
0.33573
0.38570
0.32872
0.12798
-0.15954
-0.43391
-0.63552
-0.78016
-0.90025
-0.98352
-1.01157
-0.96336
-0.84853
-0.68549
-0.50228
-0.33398
-0.21126
-0.12886
-0.07714
-0.04821
-0.02717
-0.01753
-0.00877
-0.00526
-0.00351
0.00088
0.00614
0.01140
0.01403
0.00964
0.01140
0.01490
0.01666
0.02279
0.03156
0.03506
0.03331
0.02893
0.02542
0.02542
0.02542
0.02630
0.03156
0.03594
0.03857
0.03506
0.03331
0.03156
0.03594
0.04032
0.04120
0.04646
0.04997
0.04909
0.04471
0.04471
0.04471
0.04646
0.05084
0.05610
0.05961
0.05961
0.05873
0.05347
0.04909
0.04646
0.05084
0.05610
0.05961
0.05961
0.05961
0.05961
0.05961
0.06136
0.06487
0.06662
0.07100
0.07539
0.07363
0.07013
0.06837
0.06662
0.07100
0.07626
0.08152
0.08503
0.08415
0.07977
0.07977
0.07977
0.08152
0.08503
0.08590
0.09029
0.09116
0.09467
0.09467
0.09467
0.09467
0.09642
0.10081
0.10607
0.10957
0.10870
0.10519
0.10344
0.10081
0.10607
0.10957
0.11220
0.12009
0.11922
0.11396
0.10957
0.10957
0.11133
0.11571
0.12097
0.12535
0.12535
0.12535
0.12360
0.12009
0.12009
0.12009
0.12097
0.12535
0.12360
0.11746
0.10957
0.10870
0.10431
0.09905
0.09379
0.08853
0.08415
0.07802
0.06750
0.05698
0.04383
0.03857
0.03419
0.02980
0.02893
0.02279
0.01140
-0.00088
-0.00701
-0.01490
-0.01578
-0.02016
-0.02104
-0.02630
-0.02980
-0.03068
-0.03594
-0.04032
-0.04032
-0.03857
-0.03506
-0.03594
-0.04032
-0.04120
-0.04646
-0.05084
-0.05435
-0.04909
-0.04383
-0.03857
-0.03594
-0.04120
-0.04471
-0.04558
-0.04909
-0.04383
-0.03857
-0.03506
-0.03506
-0.03594
-0.04120
-0.04558
-0.04909
-0.04383
-0.03945
-0.03419
-0.02980
-0.03068
-0.03594
-0.04032
-0.04032
-0.03769
-0.02805
-0.01666
-0.00438
0.00175
0.01140
0.01578
0.02191
0.03243
0.04909
0.06662
0.07626
0.07889
0.07539
0.07363
0.06925
0.06487
0.06224
0.04734
0.03156
0.01140
-0.00877
-0.02805
-0.04295
-0.05610
-0.05961
-0.05961
-0.05961
-0.05961
-0.06048
-0.06574
-0.07100
-0.07539
-0.07539
-0.07451
-0.06925
-0.06399
-0.05961
-0.06048
-0.06574
-0.07100
-0.07539
-0.07451
-0.06837
-0.05873
-0.05522
-0.05610
-0.05961
-0.05961
-0.05961
-0.05961
-0.05961
-0.05961
-0.06048
-0.06662
-0.07539
-0.06750
-0.01490
0.07889
0.18934
0.30330
0.39884
0.42865
0.33836
0.10870
-0.19197
-0.45758
-0.64604
-0.79681
-0.91953
-0.99404
-1.00369
-0.92392
-0.78629
-0.60922
-0.42777
-0.26999
-0.15866
-0.09292
-0.04997
-0.02279
-0.00877
-0.00351
0.00701
0.01578
0.02104
0.02542
0.03068
0.03506
0.03419
0.02980
0.03068
0.03506
0.03594
0.04032
0.04032
0.04032
0.04032
0.04032
0.04032
0.04032
0.04120
0.04558
0.04997
0.04997
0.04909
0.04471
0.04471
0.04471
0.04558
0.05084
0.05610
0.05961
0.05961
0.05435
0.04909
0.04471
0.04558
0.05084
0.05522
0.05610
0.05961
0.05435
0.04997
0.04997
0.04997
0.05084
0.05610
0.06048
0.06399
0.05961
0.05961
0.05522
0.05610
0.06048
0.06487
0.06574
0.07013
0.07013
0.07013
0.07013
0.07100
0.07539
0.07977
0.08065
0.08503
0.08503
0.08415
0.07977
0.08065
0.08503
0.08590
0.09029
0.09467
0.09467
0.09467
0.09029
0.09029
0.09029
0.09555
0.10081
0.10607
0.10957
0.10957
0.10957
0.10957
0.10957
0.11045
0.11571
0.12097
0.12535
0.12973
0.12447
0.12009
0.12009
0.12009
0.12097
0.12535
0.12973
0.12973
0.12447
0.12009
0.11922
0.11483
0.11571
0.12009
0.12009
0.12009
0.11922
0.10957
0.10870
0.09905
0.09467
0.09029
0.08941
0.08415
0.07802
0.06399
0.05347
0.04471
0.03945
0.03419
0.02980
0.02893
0.01928
0.01315
-0.00088
-0.01052
-0.01578
-0.02016
-0.02016
-0.02016
-0.02104
-0.02980
-0.03068
-0.04032
-0.04471
-0.04471
-0.04032
-0.04032
-0.04032
-0.04032
-0.04032
-0.04646
-0.05522
-0.05435
-0.04997
-0.04997
-0.04997
-0.04997
-0.04997
-0.04997
-0.04909
-0.04471
-0.03945
-0.03419
-0.02980
-0.03068
-0.03506
-0.04032
-0.04471
-0.04471
-0.03945
-0.02980
-0.02980
-0.02980
-0.03068
-0.03506
-0.04032
-0.04032
-0.03945
-0.03506
-0.03419
-0.02980
-0.02980
-0.02980
-0.02454
-0.01928
-0.01403
-0.00351
0.01578
0.02630
0.04032
0.04120
0.05084
0.05522
0.05961
0.06048
0.06574
0.07013
0.07451
0.06399
0.04821
0.02805
0.00351
-0.01666
-0.03068
-0.03594
-0.04558
-0.05610
-0.06662
-0.07977
-0.08065
-0.08503
-0.08503
-0.07977
-0.07977
-0.07977
-0.08065
-0.08503
-0.09029
-0.09029
-0.09029
-0.08941
-0.08503
-0.07977
-0.07977
-0.07977
-0.07977
-0.08065
-0.08503
-0.07977
-0.07977
-0.07539
-0.07539
-0.07977
-0.07977
-0.08065
-0.08590
-0.09467
-0.09379
-0.07626
-0.01315
0.09292
0.20161
0.30067
0.37518
0.37079
0.22440
-0.01315
-0.28051
-0.51105
-0.67409
-0.81785
-0.93970
-1.00369
-0.98440
-0.88535
-0.72406
-0.54436
-0.37167
-0.24457
-0.15603
-0.09730
-0.05785
-0.02893
-0.01403
-0.00438
0.00000
-0.00526
-0.00438
0.00000
0.00000
0.00000
0.00526
0.00526
0.00438
0.00000
0.00000
0.00526
0.01052
0.01490
0.01490
0.02016
0.02016
0.02016
0.02016
0.01490
0.01490
0.02016
0.02542
0.02980
0.02980
0.02980
0.02980
0.02542
0.02542
0.02542
0.03068
0.04032
0.04032
0.04471
0.04032
0.03945
0.03506
0.03506
0.04032
0.04032
0.04471
0.04471
0.04471
0.03945
0.03506
0.04032
0.04032
0.04558
0.04997
0.05522
0.05522
0.04997
0.04471
0.04471
0.04558
0.05522
0.06487
0.06487
0.06487
0.06487
0.05961
0.05522
0.05961
0.06048
0.06487
0.06487
0.07013
0.07539
0.07451
0.07013
0.07013
0.07013
0.07539
0.07977
0.08503
0.07977
0.07977
0.07977
0.07977
0.07977
0.08503
0.09029
0.09467
0.09467
0.09467
0.09029
0.09029
0.09555
0.09993
0.10957
0.10957
0.10957
0.10957
0.10519
0.10519
0.10519
0.10957
0.11045
0.11483
0.12009
0.11483
0.11483
0.10957
0.10957
0.10957
0.10957
0.10957
0.10957
0.10519
0.09467
0.08503
0.07977
0.07451
0.07013
0.06487
0.06487
0.05522
0.04471
0.03506
0.02016
0.01490
0.00964
0.00526
0.00000
-0.00526
-0.00964
-0.02016
-0.02980
-0.03506
-0.03506
-0.03506
-0.03506
-0.04032
-0.04471
-0.04997
-0.05522
-0.05961
-0.06487
-0.05961
-0.05961
-0.05522
-0.05522
-0.05961
-0.05961
-0.05961
-0.05961
-0.05961
-0.05522
-0.05522
-0.05522
-0.05522
-0.05522
-0.05522
-0.05961
-0.05522
-0.05522
-0.04997
-0.04471
-0.04471
-0.04997
-0.05522
-0.05522
-0.05522
-0.05522
-0.04997
-0.04471
-0.04471
-0.04997
-0.05522
-0.05522
-0.05961
-0.05522
-0.05522
-0.04997
-0.04471
-0.04471
-0.04471
-0.04997
-0.04471
-0.04032
-0.02980
-0.01490
-0.00526
0.00964
0.01490
0.02454
0.03506
0.04471
0.05522
0.05522
0.05522
0.05522
0.04558
0.03506
0.01578
-0.00438
-0.01928
-0.03506
-0.04471
-0.05435
-0.06487
-0.07977
-0.08941
-0.09467
-0.09029
-0.08503
-0.08503
-0.07977
-0.08503
-0.09029
-0.09467
-0.09467
-0.09467
-0.09029
-0.08503
-0.07977
-0.07977
-0.07977
-0.07977
-0.07977
-0.07977
-0.07977
-0.07977
-0.07539
-0.07539
-0.07539
-0.07539
-0.07977
-0.07977
-0.07977
-0.08941
-0.09467
-0.08503
-0.04646
0.04208
0.15077
0.26122
0.35677
0.38920
0.29891
0.07363
-0.21389
-0.46021
-0.62851
-0.77402
-0.89499
-0.98177
-0.98966
-0.91340
-0.78103
-0.60309
-0.42251
-0.27612
-0.17444
-0.10782
-0.06224
-0.03156
-0.01052
-0.00526
0.00000
0.00000
0.00000
0.00438
0.00964
0.01490
0.01490
0.01490
0.01490
0.01490
0.01490
0.01490
0.02016
0.02454
0.02980
0.02980
0.02980
0.02542
0.02016
0.02016
0.02454
0.02980
0.03506
0.03506
0.03506
0.03506
0.03506
0.03068
0.03506
0.03945
0.04032
0.04471
0.04471
0.04471
0.04032
0.04032
0.04032
0.04032
0.04032
0.04909
0.05435
0.05522
0.04997
0.04997
0.04997
0.05435
0.05961
0.06487
0.06487
0.06048
0.05961
0.05961
0.05961
0.05961
0.06487
0.06487
0.06925
0.07013
0.06574
0.06487
0.06487
0.06487
0.06925
0.07451
0.07977
0.07977
0.07977
0.07539
0.07539
0.07539
0.07977
0.08503
0.08941
0.09467
0.09467
0.09467
0.09029
0.09029
0.09029
0.09905
0.10431
0.10957
0.10957
0.10957
0.10957
0.10957
0.10519
0.10957
0.10957
0.11483
0.11483
0.11483
0.11045
0.10957
0.10957
0.10957
0.11483
0.11922
0.12009
0.11571
0.11045
0.10957
0.10519
0.10081
0.09993
0.10431
0.10519
0.10081
0.09116
0.08503
0.08065
0.07539
0.07013
0.06574
0.06487
0.06048
0.05084
0.04120
0.02630
0.01578
0.01052
0.00526
0.00088
-0.00438
-0.00964
-0.01928
-0.02893
-0.03419
-0.03945
-0.04032
-0.04032
-0.04032
-0.04471
-0.04909
-0.05435
-0.05522
-0.05522
-0.05522
-0.05084
-0.04997
-0.04997
-0.05435
-0.05522
-0.05522
-0.05522
-0.05522
-0.05084
-0.04558
-0.04032
-0.04032
-0.04471
-0.04909
-0.04997
-0.04997
-0.04997
-0.04558
-0.04032
-0.04032
-0.04471
-0.04909
-0.05435
-0.05522
-0.05522
-0.05522
-0.05522
-0.05522
-0.05522
-0.05522
-0.05522
-0.05522
-0.05522
-0.05522
-0.04646
-0.04032
-0.03594
-0.03068
-0.02980
-0.02542
-0.01140
-0.00088
0.00877
0.02279
0.03857
0.04471
0.04909
0.04997
0.04997
0.04997
0.05435
0.05084
0.04120
0.02717
0.00789
-0.01666
-0.03769
-0.05347
-0.06399
-0.06925
-0.07889
-0.07977
-0.08853
-0.09905
-0.09993
-0.09993
-0.09555
-0.09467
-0.09029
-0.09029
-0.09905
-0.09993
-0.10431
-0.10081
-0.09555
-0.09029
-0.08152
-0.07977
-0.08415
-0.08503
-0.08941
-0.09029
-0.09029
-0.08590
-0.08065
-0.07977
-0.07977
-0.07977
-0.07977
-0.09292
-0.09905
-0.09993
-0.06574
0.01753
0.12447
0.22616
0.32171
0.38657
0.36904
0.21915
-0.03682
-0.29804
-0.51017
-0.68110
-0.83363
-0.94495
-0.98966
-0.95635
-0.84765
-0.68899
-0.50316
-0.33398
-0.21213
-0.13499
-0.08678
-0.05435
-0.03331
-0.01753
-0.00614
0.00351
0.00526
0.00088
-0.00438
-0.00526
-0.00088
0.00877
0.01403
0.01490
0.01490
0.01052
0.00614
0.00964
0.01403
0.01490
0.01928
0.02454
0.02542
0.02542
0.02542
0.02104
0.02016
0.02454
0.02893
0.02980
0.02980
0.02980
0.02542
0.02542
0.02104
0.02454
0.02893
0.03419
0.03945
0.03594
0.03506
0.03506
0.03506
0.03506
0.03945
0.04032
0.04032
0.04032
0.04032
0.04032
0.04032
0.04032
0.04383
0.05347
0.05522
0.05084
0.04997
0.04558
0.04120
0.04383
0.04909
0.05435
0.05873
0.05961
0.06399
0.06487
0.06487
0.06487
0.06487
0.06487
0.06487
0.06487
0.06925
0.07451
0.07539
0.07539
0.07539
0.07889
0.08415
0.08503
0.08503
0.08503
0.08065
0.07626
0.07889
0.08415
0.09292
0.09467
0.09905
0.09993
0.09555
0.09467
0.09467
0.09905
0.10782
0.11396
0.11483
0.11483
0.11133
0.10957
0.10607
0.10870
0.10957
0.10957
0.10957
0.10957
0.10957
0.10957
0.10607
0.10519
0.10081
0.09993
0.09555
0.09116
0.08590
0.07714
0.06662
0.05698
0.05084
0.04558
0.04120
0.03594
0.02717
0.01666
0.00263
-0.00438
-0.00526
-0.00877
-0.00964
-0.01403
-0.02279
-0.02893
-0.04208
-0.05259
-0.05522
-0.05873
-0.06399
-0.06487
-0.06136
-0.05961
-0.06399
-0.06925
-0.07013
-0.07013
-0.06574
-0.06136
-0.05961
-0.06399
-0.06925
-0.07802
-0.07977
-0.07977
-0.07977
-0.07626
-0.07100
-0.06574
-0.06487
-0.06925
-0.07013
-0.07013
-0.06574
-0.06136
-0.05961
-0.06399
-0.06925
-0.07363
-0.07889
-0.07977
-0.07977
-0.07626
-0.07100
-0.07363
-0.07539
-0.07889
-0.07977
-0.07977
-0.07626
-0.06750
-0.06136
-0.05610
-0.04734
-0.04120
-0.03243
-0.02980
-0.02191
-0.00877
0.01052
0.02279
0.03243
0.03506
0.03156
0.02630
0.02104
0.01578
0.00351
-0.01140
-0.03068
-0.05084
-0.07013
-0.08678
-0.09730
-0.10782
-0.11396
-0.11483
-0.11483
-0.11483
-0.11922
-0.12009
-0.12360
-0.12535
-0.12097
-0.11220
-0.10957
-0.10957
-0.11396
-0.11922
-0.12009
-0.11659
-0.11483
-0.11133
-0.10607
-0.10081
-0.09993
-0.10344
-0.10870
-0.10607
-0.10519
-0.10081
-0.09993
-0.09993
-0.11133
-0.12272
-0.12886
-0.10344
-0.02717
0.08240
0.19723
0.30067
0.35151
0.28489
0.08678
-0.18846
-0.44092
-0.61711
-0.74948
-0.86694
-0.95898
-0.99141
-0.95021
-0.84152
-0.68198
-0.50140
-0.34274
-0.22265
-0.14288
-0.09116
-0.06136
-0.04734
-0.03769
-0.03156
-0.02279
-0.01666
-0.01140
-0.00614
-0.00526
-0.00877
-0.01403
-0.01140
-0.00614
-0.00526
-0.00088
0.00000
0.00000
0.00000
0.00000
0.00000
0.00000
0.00351
0.00877
0.00964
0.00964
0.00964
0.00964
0.00964
0.00964
0.01403
0.01490
0.01490
0.01490
0.01490
0.01490
0.01490
0.01490
0.01490
0.01841
0.02367
0.02893
0.02980
0.02630
0.02542
0.02542
0.02893
0.03331
0.03857
0.04032
0.03594
0.03506
0.03506
0.03506
0.03506
0.03857
0.04383
0.04821
0.04997
0.04997
0.04646
0.04120
0.04032
0.04383
0.04471
0.05259
0.05522
0.05522
0.05522
0.05522
0.05172
0.05347
0.05873
0.06399
0.06487
0.06487
0.06487
0.06136
0.05961
0.06399
0.06837
0.07363
0.07539
0.07539
0.07100
0.06662
0.06487
0.06487
0.06837
0.07714
0.07977
0.08328
0.08152
0.07977
0.07977
0.07977
0.07977
0.08328
0.08503
0.08503
0.08503
0.08503
0.08503
0.08152
0.07977
0.08328
0.08503
0.08853
0.09029
0.08678
0.08152
0.07626
0.07188
0.07013
0.07013
0.06662
0.06136
0.04909
0.04120
0.03331
0.02279
0.01666
0.01140
0.00263
-0.00351
-0.01227
-0.02191
-0.03156
-0.04208
-0.04821
-0.04997
-0.05347
-0.05522
-0.05522
-0.05873
-0.06662
-0.07714
-0.07977
-0.07977
-0.07626
-0.07188
-0.07013
-0.07013
-0.07363
-0.07802
-0.07977
-0.07977
-0.07626
-0.06837
-0.06487
-0.06487
-0.06837
-0.07013
-0.07363
-0.07188
-0.06662
-0.06487
-0.06136
-0.05961
-0.05961
-0.06311
-0.06487
-0.06837
-0.06662
-0.06136
-0.05698
-0.05522
-0.05522
-0.05522
-0.05873
-0.05698
-0.05172
-0.04295
-0.03331
-0.02016
-0.00789
-0.00526
-0.00175
0.00701
0.01666
0.03331
0.04295
0.04821
0.04646
0.04471
0.04120
0.03682
0.03156
0.02016
0.00526
-0.01315
-0.02980
-0.04471
-0.06048
-0.07539
-0.08328
-0.09204
-0.09204
-0.08678
-0.08503
-0.08853
-0.09292
-0.09818
-0.09993
-0.09993
-0.09642
-0.09467
-0.09467
-0.09204
-0.09292
-0.09467
-0.09818
-0.09993
-0.09642
-0.09204
-0.08678
-0.08503
-0.08503
-0.08503
-0.08853
-0.09029
-0.08678
-0.08152
-0.07977
-0.08678
-0.09642
-0.10344
-0.08853
-0.03068
0.07013
0.18496
0.29365
0.37605
0.37342
0.24194
-0.00263
-0.27349
-0.48212
-0.63640
-0.77314
-0.88535
-0.95284
-0.94758
-0.86694
-0.72581
-0.54962
-0.37430
-0.23755
-0.14990
-0.09292
-0.05259
-0.03331
-0.02367
-0.01666
-0.01140
-0.00701
-0.00175
0.00351
0.00789
0.00964
0.00964
0.00964
0.01315
0.01490
0.02104
0.02805
0.02980
0.02717
0.02542
0.02542
0.02805
0.02980
0.02980
0.03331
0.03857
0.03682
0.03506
0.03156
0.02980
0.02980
0.03331
0.03857
0.04032
0.04032
0.04032
0.04032
0.03682
0.03506
0.03506
0.03857
0.04032
0.04032
0.04032
0.04032
0.03682
0.03857
0.04032
0.04295
0.04821
0.04997
0.04997
0.04997
0.04646
0.04471
0.04821
0.05347
0.06136
0.06487
0.06487
0.06487
0.06487
0.06487
0.06487
0.06487
0.07100
0.07802
0.07977
0.07977
0.07977
0.07714
0.07539
0.07802
0.08328
0.08766
0.09292
0.09204
0.08678
0.08503
0.08503
0.09116
0.10081
0.10782
0.10957
0.10957
0.10694
0.10168
0.09993
0.10344
0.10519
0.10782
0.10957
0.10957
0.10957
0.10957
0.10694
0.10519
0.10782
0.10957
0.10957
0.10957
0.10957
0.10957
0.10957
0.10957
0.10957
0.10957
0.11308
0.11483
0.11220
0.10957
0.10431
0.09730
0.09204
0.08678
0.08503
0.08240
0.07363
0.06662
0.05610
0.04383
0.03682
0.03243
0.02717
0.01928
0.01490
0.00877
-0.00088
-0.01140
-0.02104
-0.02542
-0.02805
-0.02980
-0.02980
-0.02980
-0.03331
-0.04120
-0.04471
-0.04471
-0.04471
-0.04208
-0.04032
-0.04032
-0.04295
-0.04821
-0.05259
-0.05522
-0.05172
-0.04734
-0.04208
-0.04032
-0.04032
-0.04295
-0.04821
-0.04997
-0.04997
-0.04734
-0.04208
-0.03419
-0.02980
-0.03331
-0.03769
-0.04032
-0.04295
-0.04471
-0.04208
-0.04032
-0.04032
-0.04032
-0.04295
-0.04471
-0.03945
-0.03243
-0.02717
-0.01666
-0.00701
0.00088
0.00789
0.01315
0.02104
0.03331
0.04558
0.05259
0.05522
0.05522
0.05522
0.04909
0.04208
0.02893
0.01403
0.00175
-0.01666
-0.03331
-0.04821
-0.06048
-0.07363
-0.08328
-0.08766
-0.09029
-0.09029
-0.08678
-0.08503
-0.08766
-0.09292
-0.09467
-0.09204
-0.09029
-0.09029
-0.08678
-0.08503
-0.08503
-0.08766
-0.09029
-0.09292
-0.09467
-0.09204
-0.08678
-0.08240
-0.08240
-0.08503
-0.08503
-0.08503
-0.08240
-0.07977
-0.08590
-0.09555
-0.09467
-0.07013
-0.01052
0.08853
0.20074
0.30242
0.37868
0.36904
0.22616
-0.02279
-0.29103
-0.51017
-0.67760
-0.81434
-0.91690
-0.96862
-0.94671
-0.85116
-0.70477
-0.52858
-0.36027
-0.22966
-0.14201
-0.08853
-0.05610
-0.03682
-0.02454
-0.01753
-0.01227
-0.00701
0.00088
0.00789
0.00964
0.00964
0.00964
0.00964
0.01227
0.01490
0.01227
0.01227
0.01490
0.01490
0.01490
0.01490
0.01227
0.00964
0.01227
0.01490
0.02016
0.02542
0.02191
0.01753
0.01490
0.01490
0.01490
0.02016
0.02805
0.02980
0.02980
0.02980
0.02717
0.02542
0.02542
0.02805
0.02980
0.02980
0.02980
0.02980
0.02717
0.02542
0.02279
0.02279
0.03068
0.03769
0.03769
0.03506
0.03243
0.02980
0.03243
0.03769
0.04032
0.04295
0.04471
0.04471
0.04208
0.04032
0.04032
0.04295
0.04734
0.05259
0.05785
0.05961
0.05961
0.05698
0.05259
0.04997
0.05259
0.05785
0.06224
0.06487
0.06487
0.06487
0.06487
0.06487
0.06750
0.07276
0.07714
0.07977
0.07714
0.07539
0.07539
0.07539
0.07714
0.08240
0.08503
0.08766
0.08766
0.08503
0.08503
0.08240
0.08240
0.08503
0.08766
0.09029
0.09029
0.08766
0.08503
0.08240
0.07977
0.07977
0.08240
0.08503
0.08503
0.07977
0.07276
0.06750
0.05961
0.05259
0.04997
0.04734
0.04208
0.03769
0.02717
0.01753
0.00964
0.00000
-0.00789
-0.01227
-0.01753
-0.02454
-0.03243
-0.04032
-0.04997
-0.05785
-0.06224
-0.06224
-0.05961
-0.05961
-0.06224
-0.07013
-0.07714
-0.07977
-0.07977
-0.07977
-0.07977
-0.07977
-0.07977
-0.08240
-0.08766
-0.09029
-0.08766
-0.08240
-0.07977
-0.07714
-0.07539
-0.07539
-0.07714
-0.07977
-0.08240
-0.08503
-0.08240
-0.07977
-0.07977
-0.07977
-0.08240
-0.08503
-0.08503
-0.08240
-0.07276
-0.06048
-0.05259
-0.04734
-0.04295
-0.03769
-0.03243
-0.02279
-0.01052
0.00438
0.02016
0.02980
0.03506
0.03243
0.02805
0.02542
0.02542
0.02279
0.01753
0.00526
-0.01666
-0.03945
-0.05698
-0.07188
-0.08503
-0.09467
-0.09993
-0.09993
-0.09993
-0.10256
-0.10694
-0.11220
-0.11483
-0.11483
-0.11483
-0.11308
-0.10782
-0.10519
-0.10519
-0.10694
-0.10782
-0.10519
-0.10256
-0.09993
-0.09993
-0.09993
-0.09993
-0.09993
-0.09993
-0.09730
-0.09292
-0.09029
-0.08766
-0.08503
-0.08941
-0.10168
-0.11220
-0.10607
-0.05873
0.03945
0.15778
0.26560
0.35151
0.38131
0.30417
0.10694
-0.16392
-0.41725
-0.60309
-0.75035
-0.88009
-0.96249
-0.98089
-0.92041
-0.79243
-0.63552
-0.46809
-0.31469
-0.20161
-0.13061
-0.08415
-0.05610
-0.03857
-0.02542
-0.01578
-0.00789
-0.00526
-0.00526
-0.00526
-0.00526
-0.00526
-0.00526
-0.00088
0.00701
0.00964
0.00964
0.00964
0.01227
0.01490
0.01490
0.01490
0.01753
0.02016
0.02191
0.02279
0.02016
0.01753
0.01490
0.01753
0.02191
0.02717
0.03243
0.03243
0.02980
0.02805
0.02717
0.03243
0.03682
0.04032
0.04032
0.04032
0.03769
0.03243
0.02980
0.03243
0.03682
0.04032
0.04208
0.04295
0.04032
0.04032
0.04032
0.04208
0.04734
0.04997
0.05172
0.05522
0.05522
0.05522
0.05522
0.05522
0.05698
0.06224
0.06487
0.06487
0.06487
0.06487
0.06311
0.06224
0.06487
0.06750
0.07188
0.07714
0.07977
0.07977
0.07977
0.07802
0.07714
0.08240
0.08503
0.08678
0.09029
0.09029
0.09029
0.09029
0.09029
0.09204
0.09730
0.10168
0.10519
0.10519
0.10519
0.10519
0.10256
0.10168
0.10519
0.10694
0.10957
0.10957
0.10957
0.10957
0.10782
0.10256
0.10168
0.10694
0.10957
0.10957
0.10782
0.10081
0.09292
0.08766
0.08503
0.08503
0.08503
0.08328
0.07626
0.06574
0.05435
0.04295
0.03594
0.02805
0.02104
0.01315
0.00614
-0.00438
-0.01403
-0.02367
-0.03156
-0.03682
-0.04032
-0.04032
-0.04208
-0.04734
-0.05172
-0.05522
-0.05698
-0.05785
-0.05522
-0.05522
-0.05522
-0.05522
-0.05698
-0.06224
-0.06487
-0.06311
-0.05785
-0.05522
-0.05347
-0.04997
-0.04997
-0.05172
-0.05522
-0.05522
-0.05084
-0.04295
-0.03769
-0.03682
-0.04208
-0.04734
-0.04997
-0.04997
-0.04821
-0.04295
-0.04032
-0.03769
-0.03506
-0.03506
-0.03506
-0.03331
-0.02630
-0.01578
-0.00614
0.00526
0.01666
0.02542
0.03857
0.04909
0.05698
0.06224
0.06487
0.06487
0.06487
0.06136
0.04909
0.03243
0.01403
-0.00263
-0.02016
-0.03594
-0.04909
-0.05873
-0.06837
-0.07714
-0.08328
-0.09029
-0.09029
-0.09029
-0.08853
-0.08503
-0.08678
-0.09029
-0.09204
-0.09467
-0.09292
-0.08853
-0.08503
-0.08678
-0.09029
-0.09029
-0.09029
-0.09029
-0.08853
-0.08328
-0.07802
-0.07539
-0.07539
-0.07714
-0.07977
-0.07977
-0.07977
-0.08152
-0.08853
-0.09116
-0.06925
-0.00789
0.08941
0.19723
0.29716
0.36729
0.35589
0.21301
-0.03769
-0.31382
-0.53559
-0.69601
-0.83626
-0.94671
-0.99667
-0.97213
-0.87045
-0.71529
-0.53384
-0.36904
-0.24018
-0.15253
-0.09642
-0.06136
-0.03769
-0.02191
-0.01490
-0.01490
-0.01490
-0.01315
-0.00789
-0.00351
0.00175
0.00526
0.00351
0.00000
0.00000
0.00175
0.00701
0.01140
0.01666
0.02016
0.02016
0.02016
0.01841
0.01490
0.01490
0.01490
0.01666
0.02016
0.02016
0.01841
0.01490
0.01490
0.01490
0.01490
0.01666
0.02367
0.02980
0.02980
0.02805
0.02367
0.02016
0.02191
0.02630
0.02980
0.03156
0.03331
0.02980
0.02980
0.02980
0.02980
0.03156
0.03682
0.04032
0.04032
0.04120
0.04295
0.04032
0.04032
0.04032
0.04120
0.04646
0.05172
0.05522
0.05347
0.04821
0.04471
0.04646
0.05347
0.06136
0.06487
0.06487
0.06487
0.06487
0.06487
0.06487
0.06662
0.07013
0.07188
0.07539
0.07539
0.07539
0.07539
0.07626
0.07977
0.08152
0.08503
0.08503
0.08503
0.08503
0.08328
0.08152
0.08503
0.08853
0.09642
0.09993
0.09993
0.09818
0.09467
0.09467
0.09642
0.09993
0.10168
0.10519
0.10519
0.10168
0.09204
0.08503
0.08503
0.08678
0.09029
0.09029
0.08853
0.08328
0.07714
0.06837
0.06311
0.05698
0.04821
0.04383
0.03857
0.03156
0.02191
0.01052
-0.00175
-0.00789
-0.01666
-0.02016
-0.02191
-0.02630
-0.03331
-0.04295
-0.05172
-0.05522
-0.05522
-0.05610
-0.05961
-0.05961
-0.06311
-0.07188
-0.07539
-0.07626
-0.07977
-0.07889
-0.07539
-0.07539
-0.07626
-0.07977
-0.08152
-0.08678
-0.09029
-0.08853
-0.08328
-0.07977
-0.07889
-0.07539
-0.07626
-0.07977
-0.07977
-0.07889
-0.07539
-0.07363
-0.07013
-0.07013
-0.07100
-0.07539
-0.07539
-0.07363
-0.06750
-0.05873
-0.05522
-0.05347
-0.04821
-0.04208
-0.03331
-0.02454
-0.00614
0.00877
0.02279
0.02980
0.02893
0.02367
0.02016
0.01841
0.01490
0.01403
0.00614
-0.01227
-0.03506
-0.05522
-0.07451
-0.08941
-0.10168
-0.10519
-0.10519
-0.10519
-0.10607
-0.11133
-0.11659
-0.12097
-0.12535
-0.12360
-0.11834
-0.11396
-0.11133
-0.11659
-0.12009
-0.12009
-0.12009
-0.11834
-0.11396
-0.10870
-0.10519
-0.10607
-0.10957
-0.10957
-0.10870
-0.10344
-0.09993
-0.09993
-0.09993
-0.09993
-0.10256
-0.11396
-0.12360
-0.10607
-0.03769
0.07100
0.18846
0.29190
0.36378
0.36992
0.25246
0.01052
-0.26999
-0.50491
-0.67146
-0.81171
-0.92742
-1.00281
-1.01070
-0.93882
-0.80120
-0.62237
-0.44004
-0.29278
-0.19285
-0.12886
-0.08766
-0.06136
-0.04646
-0.03243
-0.02279
-0.01403
-0.00964
-0.00964
-0.00964
-0.00877
-0.00526
-0.00351
0.00088
0.00526
0.00614
0.00877
0.00351
0.00000
-0.00088
-0.00351
0.00088
0.00614
0.00964
0.00964
0.00877
0.00526
0.00614
0.00964
0.01140
0.01578
0.02016
0.02016
0.01841
0.01490
0.01490
0.01490
0.01490
0.01578
0.02104
0.02542
0.02367
0.02016
0.01841
0.01578
0.02104
0.02630
0.03156
0.03419
0.02980
0.02980
0.02980
0.03156
0.03506
0.03594
0.04032
0.04032
0.04032
0.04032
0.04032
0.04032
0.04032
0.04120
0.04646
0.05084
0.05522
0.05347
0.04997
0.04997
0.05084
0.05610
0.06136
0.06487
0.06574
0.06925
0.06399
0.05961
0.06136
0.06487
0.06750
0.07626
0.07977
0.07977
0.07889
0.07539
0.07539
0.07626
0.08065
0.08590
0.09029
0.09029
0.08853
0.08503
0.08503
0.08503
0.08590
0.09116
0.09642
0.10081
0.10431
0.09993
0.09905
0.09379
0.09029
0.09116
0.09467
0.09467
0.09379
0.08853
0.08415
0.07977
0.07889
0.07539
0.07363
0.06925
0.06399
0.05698
0.04383
0.03769
0.02893
0.02367
0.01928
0.01403
0.00789
-0.00088
-0.00701
-0.01666
-0.02630
-0.03156
-0.04032
-0.04032
-0.04120
-0.04558
-0.05084
-0.05522
-0.05610
-0.06136
-0.06487
-0.06399
-0.05961
-0.06136
-0.06574
-0.07100
-0.07363
-0.06925
-0.06399
-0.05873
-0.05522
-0.05522
-0.05522
-0.05522
-0.05522
-0.05522
-0.05522
-0.05522
-0.05522
-0.05522
-0.05522
-0.05610
-0.05961
-0.05961
-0.05961
-0.05873
-0.05522
-0.05522
-0.05522
-0.05610
-0.05961
-0.05961
-0.05873
-0.05347
-0.04295
-0.03419
-0.02893
-0.02367
-0.01841
-0.00877
-0.00351
0.00701
0.01753
0.03243
0.04646
0.05435
0.04997
0.04909
0.04383
0.03945
0.03243
0.01841
0.00614
-0.01315
-0.03419
-0.05785
-0.07188
-0.08065
-0.08590
-0.09029
-0.09029
-0.09116
-0.09555
-0.09993
-0.10081
-0.10519
-0.10431
-0.09905
-0.09379
-0.09116
-0.09467
-0.09467
-0.09467
-0.09467
-0.09467
-0.09379
-0.08941
-0.08503
-0.08503
-0.08590
-0.09029
-0.09029
-0.08941
-0.08415
-0.07977
-0.07977
-0.07977
-0.08328
-0.10168
-0.10782
-0.08415
-0.00701
0.10870
0.22703
0.33310
0.40586
0.39008
0.24194
-0.01052
-0.29541
-0.51543
-0.67760
-0.81873
-0.93093
-0.98703
-0.95635
-0.85993
-0.71792
-0.53822
-0.36378
-0.23142
-0.14639
-0.09379
-0.05698
-0.03857
-0.02893
-0.01841
-0.00964
-0.00351
0.00614
0.00964
0.00964
0.00526
0.00526
0.00614
0.01052
0.01490
0.01490
0.01490
0.01490
0.01490
0.01490
0.01490
0.01490
0.01578
0.02104
0.02542
0.02367
0.01490
0.01490
0.01578
0.02104
0.02542
0.03068
0.03506
0.03506
0.03419
0.02980
0.02980
0.03068
0.03594
0.04032
0.04032
0.04032
0.04032
0.03857
0.02980
0.03068
0.03594
0.04032
0.04032
0.04471
0.04471
0.04471
0.04032
0.04032
0.04032
0.04558
0.05084
0.05522
0.05435
0.04909
0.04471
0.04032
0.04032
0.04646
0.05522
0.06048
0.06487
0.06487
0.06487
0.06487
0.06487
0.06487
0.06574
0.07100
0.07539
0.07539
0.07539
0.07539
0.07539
0.07539
0.07539
0.08065
0.08590
0.09029
0.08941
0.08503
0.08503
0.08503
0.08590
0.09029
0.09555
0.09993
0.09993
0.09905
0.09467
0.09029
0.09029
0.09116
0.10081
0.10519
0.10431
0.09993
0.09905
0.09467
0.09467
0.09467
0.09467
0.09467
0.08941
0.08503
0.08415
0.07977
0.07451
0.06925
0.06487
0.06487
0.06399
0.05347
0.03945
0.03419
0.02367
0.01490
0.00964
0.00438
-0.00526
-0.00614
-0.01666
-0.03068
-0.03506
-0.04032
-0.04032
-0.04032
-0.04032
-0.04558
-0.05084
-0.05522
-0.06048
-0.06487
-0.06487
-0.05961
-0.05522
-0.05522
-0.05961
-0.06048
-0.06574
-0.07013
-0.06925
-0.06487
-0.05961
-0.05522
-0.05522
-0.06048
-0.07013
-0.07013
-0.06925
-0.05961
-0.05522
-0.05522
-0.05522
-0.06048
-0.06574
-0.06925
-0.06487
-0.05961
-0.05522
-0.05522
-0.05522
-0.05522
-0.05961
-0.05961
-0.06048
-0.06487
-0.06487
-0.05961
-0.05961
-0.05961
-0.05522
-0.05435
-0.04909
-0.03945
-0.02893
-0.01928
-0.00438
0.00088
0.01052
0.02104
0.03068
0.04032
0.04032
0.04032
0.04471
0.04471
0.03857
0.02367
0.00351
-0.01666
-0.03682
-0.05610
-0.06574
-0.07539
-0.08065
-0.09029
-0.09993
-0.09993
-0.10519
-0.10431
-0.09993
-0.09993
-0.09993
-0.10519
-0.10519
-0.10957
-0.10957
-0.10957
-0.10431
-0.09993
-0.09993
-0.09993
-0.09993
-0.09993
-0.10519
-0.10431
-0.09993
-0.09467
-0.09029
-0.09029
-0.09555
-0.09993
-0.09993
-0.10081
-0.11045
-0.11396
-0.09730
-0.04997
0.03594
0.14639
0.25509
0.34187
0.36992
0.27349
0.04471
-0.24720
-0.48387
-0.65218
-0.79594
-0.91866
-0.99580
-1.00632
-0.93356
-0.79681
-0.62676
-0.44793
-0.29979
-0.19723
-0.13324
-0.09379
-0.06399
-0.04471
-0.02980
-0.02980
-0.02980
-0.02980
-0.02454
-0.02016
-0.01490
-0.00964
-0.00526
-0.00526
-0.00964
-0.00964
-0.00964
-0.00438
0.00000
0.00526
0.00526
0.00438
0.00000
0.00000
0.00526
0.00526
0.01052
0.01490
0.01490
0.01490
0.00964
0.00964
0.00964
0.01052
0.01490
0.01490
0.01490
0.01490
0.01490
0.01490
0.01490
0.01490
0.01490
0.02016
0.02980
0.03506
0.03506
0.02454
0.01490
0.01490
0.01490
0.02016
0.02980
0.02980
0.02980
0.02980
0.02542
0.02542
0.02542
0.02980
0.03506
0.04032
0.04032
0.04032
0.03506
0.03506
0.04032
0.04032
0.04471
0.04997
0.05522
0.05522
0.05522
0.04997
0.04997
0.05522
0.06048
0.06487
0.06487
0.06487
0.06487
0.06487
0.06487
0.06487
0.07013
0.07539
0.07977
0.08503
0.08503
0.07977
0.07977
0.07977
0.08503
0.08503
0.09029
0.09029
0.09029
0.09029
0.09467
0.09029
0.09029
0.09029
0.09029
0.09467
0.09467
0.09467
0.09029
0.08503
0.08503
0.08503
0.08503
0.09029
0.08503
0.08503
0.07539
0.06487
0.05961
0.05522
0.04997
0.04471
0.04032
0.03506
0.02542
0.01490
0.00526
-0.00526
-0.00526
-0.00964
-0.02016
-0.02454
-0.02980
-0.04032
-0.04997
-0.04997
-0.05522
-0.04997
-0.04997
-0.05522
-0.05522
-0.05961
-0.06487
-0.07013
-0.07013
-0.06487
-0.06487
-0.06048
-0.05961
-0.06487
-0.06487
-0.06487
-0.06487
-0.06048
-0.05522
-0.05522
-0.04997
-0.05522
-0.05522
-0.05522
-0.05961
-0.05522
-0.05522
-0.05522
-0.05522
-0.05522
-0.05961
-0.06487
-0.07013
-0.07013
-0.06487
-0.06048
-0.05961
-0.05961
-0.06487
-0.06487
-0.06487
-0.06048
-0.05522
-0.04558
-0.03506
-0.02980
-0.02542
-0.01490
-0.00526
0.00438
0.01490
0.02980
0.03945
0.04471
0.04471
0.04032
0.04032
0.03506
0.02542
0.01490
0.00088
-0.01490
-0.03419
-0.05435
-0.06925
-0.07977
-0.09467
-0.09993
-0.09993
-0.09993
-0.09993
-0.09993
-0.10519
-0.10957
-0.10957
-0.10519
-0.09993
-0.09993
-0.09993
-0.09993
-0.09993
-0.09993
-0.09993
-0.09993
-0.09993
-0.09555
-0.09029
-0.09467
-0.09467
-0.09467
-0.09467
-0.09467
-0.09029
-0.08065
-0.07977
-0.08503
-0.09905
-0.10957
-0.10081
-0.03769
0.07013
0.18934
0.29979
0.38570
0.38044
0.23317
-0.00789
-0.27612
-0.50842
-0.67146
-0.81259
-0.93356
-1.00193
-0.99054
-0.90025
-0.74860
-0.57942
-0.40936
-0.27262
-0.17532
-0.11308
-0.08152
-0.05610
-0.04558
-0.03068
-0.02542
-0.01578
-0.00526
-0.00526
-0.00526
-0.00526
-0.00964
-0.00526
-0.00526
0.00000
0.00438
0.00964
0.00964
0.00964
0.00964
0.00964
0.00964
0.01490
0.01490
0.01928
0.02016
0.02016
0.01490
0.01490
0.01490
0.01490
0.01928
0.02454
0.02980
0.02980
0.02542
0.02542
0.02542
0.02542
0.02980
0.03506
0.03945
0.04032
0.03506
0.03068
0.02542
0.02980
0.03506
0.03945
0.04032
0.04032
0.04032
0.04032
0.04032
0.04032
0.04032
0.04471
0.04997
0.04997
0.04997
0.04558
0.04471
0.04471
0.04997
0.05435
0.05961
0.05961
0.05961
0.05961
0.05522
0.05961
0.06487
0.06487
0.06925
0.07451
0.07539
0.07539
0.07013
0.07013
0.07013
0.07889
0.08415
0.08503
0.08503
0.08503
0.08503
0.08503
0.08503
0.08503
0.08503
0.09379
0.09467
0.09467
0.09467
0.09467
0.09467
0.09467
0.09993
0.10431
0.10519
0.10519
0.10519
0.10519
0.10519
0.10519
0.10519
0.10957
0.10957
0.10957
0.10519
0.10081
0.09116
0.08590
0.08503
0.08503
0.08065
0.07539
0.06574
0.06048
0.05084
0.04120
0.03068
0.02542
0.01578
0.01490
0.00175
-0.00438
-0.01403
-0.02367
-0.02980
-0.02980
-0.02980
-0.03419
-0.03945
-0.04471
-0.05347
-0.05522
-0.05961
-0.05961
-0.05961
-0.05522
-0.05522
-0.05522
-0.05961
-0.05961
-0.06399
-0.06048
-0.05522
-0.05522
-0.05522
-0.05522
-0.05522
-0.05522
-0.05522
-0.05522
-0.05522
-0.05522
-0.05522
-0.05522
-0.05522
-0.05522
-0.05522
-0.05522
-0.05522
-0.05522
-0.05522
-0.05522
-0.05522
-0.05522
-0.05961
-0.05961
-0.05522
-0.05522
-0.05084
-0.04997
-0.05435
-0.05522
-0.05522
-0.04646
-0.03594
-0.03068
-0.02104
-0.00701
-0.00088
0.00877
0.01403
0.01928
0.03331
0.04383
0.05347
0.05961
0.05961
0.05610
0.05084
0.04120
0.03156
0.01666
-0.00263
-0.02630
-0.04295
-0.05347
-0.06837
-0.07889
-0.08853
-0.09029
-0.09029
-0.09029
-0.09029
-0.09029
-0.09467
-0.09905
-0.09993
-0.09993
-0.09993
-0.09993
-0.09993
-0.09993
-0.09993
-0.09993
-0.09993
-0.09555
-0.09467
-0.09116
-0.08590
-0.08065
-0.07977
-0.08415
-0.08941
-0.09029
-0.09029
-0.08590
-0.08941
-0.09818
-0.09993
-0.08766
-0.02542
0.07013
0.17795
0.27963
0.36729
0.38833
0.27963
0.05259
-0.23054
-0.46985
-0.64867
-0.80207
-0.92216
-0.99492
-0.98791
-0.90463
-0.75912
-0.58380
-0.40761
-0.26648
-0.16918
-0.10870
-0.06662
-0.04295
-0.03156
-0.02542
-0.02104
-0.01578
-0.00701
-0.00526
-0.00088
0.00438
0.00526
-0.00351
-0.00526
-0.00526
-0.00088
0.00438
0.00877
0.00964
0.00964
0.00964
0.00614
0.00526
0.00526
0.01315
0.01490
0.01928
0.02016
0.02016
0.01578
0.01490
0.01490
0.01490
0.01928
0.02016
0.02016
0.01578
0.01490
0.01052
0.00964
0.00964
0.01403
0.01928
0.02454
0.02104
0.02016
0.02016
0.02016
0.02016
0.02367
0.02893
0.02980
0.03419
0.03068
0.02630
0.02542
0.02542
0.02893
0.03419
0.03945
0.04032
0.04032
0.04032
0.04032
0.04383
0.04909
0.05435
0.05522
0.05522
0.05522
0.05522
0.05522
0.05522
0.05873
0.06399
0.06487
0.06925
0.07013
0.07013
0.07013
0.07013
0.07363
0.07539
0.07889
0.07977
0.08415
0.08941
0.09029
0.09029
0.09029
0.09379
0.09467
0.09905
0.10431
0.10081
0.09993
0.09642
0.09116
0.09379
0.09905
0.10782
0.10957
0.10957
0.10607
0.10081
0.09642
0.09905
0.09993
0.09993
0.09993
0.09642
0.08678
0.08503
0.07714
0.07100
0.06574
0.06487
0.06487
0.05698
0.04734
0.03682
0.02717
0.01666
0.01140
0.00175
-0.00438
-0.00877
-0.01753
-0.02805
-0.03769
-0.04383
-0.04909
-0.04997
-0.04997
-0.04997
-0.05435
-0.05522
-0.06311
-0.06925
-0.07802
-0.07977
-0.07626
-0.07539
-0.07539
-0.07539
-0.07889
-0.07977
-0.08415
-0.08503
-0.08503
-0.08152
-0.07977
-0.07977
-0.07977
-0.08415
-0.08853
-0.09029
-0.09029
-0.08590
-0.08152
-0.07977
-0.07977
-0.07977
-0.07977
-0.07977
-0.07977
-0.07977
-0.07626
-0.07100
-0.07013
-0.07363
-0.07889
-0.07977
-0.07977
-0.07977
-0.07977
-0.07977
-0.07977
-0.07977
-0.07977
-0.07977
-0.07276
-0.05873
-0.04734
-0.03331
-0.02630
-0.02104
-0.01227
-0.00614
0.00263
0.01227
0.02630
0.03419
0.03506
0.03506
0.02717
0.01753
0.00351
-0.01140
-0.02630
-0.04558
-0.05347
-0.06662
-0.07802
-0.09116
-0.09905
-0.10344
-0.10081
-0.09993
-0.09993
-0.09993
-0.10344
-0.10870
-0.11746
-0.12009
-0.11220
-0.10607
-0.10519
-0.10081
-0.09993
-0.10782
-0.11396
-0.11483
-0.11483
-0.10782
-0.10168
-0.09993
-0.09993
-0.09993
-0.09993
-0.09993
-0.09993
-0.09993
-0.09993
-0.10344
-0.11659
-0.10519
-0.05522
0.04208
0.15954
0.26823
0.35852
0.38394
0.28489
0.06048
-0.22353
-0.47072
-0.64867
-0.79331
-0.91164
-0.98089
-0.98791
-0.92216
-0.79681
-0.62676
-0.45056
-0.30154
-0.19460
-0.12184
-0.07889
-0.05172
-0.03419
-0.02630
-0.02104
-0.01666
-0.00789
-0.00526
0.00263
0.00877
0.00964
0.00964
0.00964
0.00614
0.00877
0.01403
0.01490
0.01490
0.01490
0.01490
0.01490
0.01490
0.01490
0.01490
0.01841
0.02016
0.02367
0.02542
0.02104
0.01666
0.01490
0.01841
0.02717
0.03331
0.03506
0.03156
0.02630
0.02542
0.02104
0.02016
0.02717
0.03331
0.03857
0.04032
0.04032
0.04032
0.03682
0.03506
0.03857
0.04032
0.04383
0.04471
0.04471
0.04120
0.04032
0.04032
0.04383
0.04821
0.05347
0.05522
0.05172
0.04997
0.04646
0.04821
0.05347
0.05873
0.06311
0.06837
0.07013
0.07013
0.06662
0.06487
0.06487
0.06837
0.07363
0.07889
0.08328
0.08503
0.08503
0.08152
0.07977
0.08328
0.08503
0.08853
0.09379
0.09467
0.09467
0.09116
0.09379
0.09818
0.10344
0.10519
0.10870
0.10957
0.10694
0.10519
0.10519
0.10870
0.10957
0.10957
0.10957
0.11308
0.11133
0.10957
0.10957
0.10694
0.10519
0.10870
0.10957
0.10957
0.10957
0.10344
0.09292
0.08678
0.08503
0.08503
0.08152
0.07626
0.06837
0.06136
0.04997
0.03769
0.02805
0.02191
0.01666
0.01140
0.00701
-0.00175
-0.01227
-0.02542
-0.03331
-0.03506
-0.03506
-0.03857
-0.04032
-0.04383
-0.05172
-0.05522
-0.05873
-0.05961
-0.05698
-0.05522
-0.05522
-0.05522
-0.05873
-0.06311
-0.06487
-0.06487
-0.06136
-0.05698
-0.05522
-0.05522
-0.05522
-0.05522
-0.05873
-0.05961
-0.05698
-0.05522
-0.05172
-0.04997
-0.05347
-0.05522
-0.05522
-0.05873
-0.05698
-0.05522
-0.05172
-0.04997
-0.05347
-0.05522
-0.05873
-0.05698
-0.05522
-0.05522
-0.04821
-0.03857
-0.03156
-0.02630
-0.02191
-0.01666
-0.00877
-0.00175
0.00964
0.02805
0.04120
0.05172
0.05522
0.05172
0.04997
0.05347
0.05522
0.04821
0.03857
0.02191
-0.00175
-0.02279
-0.04295
-0.05698
-0.06662
-0.07363
-0.07802
-0.08328
-0.08853
-0.09029
-0.09292
-0.09467
-0.09467
-0.09204
-0.08678
-0.08503
-0.08503
-0.08853
-0.09292
-0.09467
-0.09204
-0.08678
-0.08152
-0.07977
-0.07977
-0.08328
-0.08853
-0.09029
-0.08678
-0.08152
-0.07977
-0.07714
-0.07188
-0.07013
-0.07626
-0.08678
-0.09642
-0.08678
-0.03857
0.05522
0.17181
0.28226
0.37167
0.39709
0.30505
0.08853
-0.18671
-0.43391
-0.62062
-0.77227
-0.90113
-0.98615
-0.99404
-0.91515
-0.77052
-0.58906
-0.40586
-0.26034
-0.16129
-0.10168
-0.06574
-0.03945
-0.02016
-0.00877
0.00175
0.00789
0.00964
0.00964
0.00701
0.00789
0.01315
0.01490
0.01841
0.02016
0.01666
0.01490
0.01490
0.01490
0.01841
0.02279
0.02805
0.03331
0.03506
0.03156
0.02980
0.02717
0.02542
0.02805
0.03594
0.04032
0.04032
0.03682
0.03156
0.02717
0.02542
0.02805
0.03331
0.03769
0.04032
0.04032
0.03682
0.03506
0.03156
0.03331
0.03506
0.03769
0.04032
0.04032
0.04032
0.04032
0.03682
0.03769
0.04295
0.04821
0.05347
0.05522
0.05522
0.05172
0.04734
0.04471
0.04821
0.05347
0.05785
0.06311
0.06487
0.06487
0.06487
0.06487
0.06487
0.06837
0.07276
0.07539
0.07802
0.07714
0.07539
0.07188
0.07013
0.07276
0.08065
0.08503
0.08766
0.09029
0.08678
0.08503
0.08503
0.09116
0.09818
0.09993
0.10256
0.10519
0.10168
0.09993
0.09993
0.09993
0.10607
0.10957
0.10957
0.10957
0.10957
0.10694
0.10519
0.10782
0.10957
0.10957
0.10957
0.10957
0.10957
0.10694
0.09905
0.09204
0.09029
0.09029
0.09029
0.08678
0.08503
0.07889
0.06925
0.06224
0.05698
0.05172
0.04734
0.04208
0.03419
0.02454
0.01666
0.00877
-0.00088
-0.00526
-0.00526
-0.00789
-0.01315
-0.02104
-0.02805
-0.02980
-0.03331
-0.03506
-0.03506
-0.03506
-0.03769
-0.04295
-0.05084
-0.05522
-0.05785
-0.05698
-0.05522
-0.05522
-0.05522
-0.05522
-0.05785
-0.05961
-0.05961
-0.05961
-0.05698
-0.05522
-0.05522
-0.05522
-0.05522
-0.05522
-0.05522
-0.05522
-0.05522
-0.05522
-0.05259
-0.04997
-0.05259
-0.05522
-0.05522
-0.05522
-0.05522
-0.05522
-0.05259
-0.04997
-0.04997
-0.04997
-0.05259
-0.05522
-0.05522
-0.05522
-0.05259
-0.04997
-0.04997
-0.05259
-0.05522
-0.05522
-0.05259
-0.04471
-0.03419
-0.02191
-0.00964
-0.00263
0.00263
0.01052
0.02367
0.03594
0.04558
0.05259
0.05785
0.05961
0.05961
0.05172
0.03945
0.02367
0.00438
-0.01578
-0.03331
-0.04821
-0.05785
-0.06837
-0.07802
-0.08240
-0.08503
-0.08503
-0.08503
-0.08503
-0.08766
-0.09292
-0.09730
-0.09993
-0.09993
-0.09467
-0.08766
-0.08503
-0.08503
-0.08503
-0.08766
-0.09292
-0.09204
-0.09029
-0.08766
-0.08503
-0.08503
-0.08503
-0.08766
-0.09029
-0.08766
-0.08240
-0.07977
-0.08503
-0.09555
-0.09467
-0.06574
0.00614
0.11396
0.22616
0.32609
0.38307
0.33135
0.14727
-0.12184
-0.38219
-0.57504
-0.72406
-0.85379
-0.95284
-0.98966
-0.94758
-0.83275
-0.67234
-0.49439
-0.33573
-0.22002
-0.14113
-0.08853
-0.05698
-0.03682
-0.02980
-0.02717
-0.02279
-0.01753
-0.01227
-0.00701
-0.00526
-0.00526
-0.00263
0.00000
0.00000
0.00263
0.00789
0.01227
0.01490
0.01490
0.01490
0.01490
0.01490
0.01490
0.01490
0.01490
0.01753
0.02016
0.02016
0.02016
0.02016
0.02016
0.02279
0.02717
0.03243
0.03506
0.03506
0.03506
0.03506
0.03506
0.03506
0.03506
0.03506
0.03506
0.03506
0.03506
0.03506
0.03243
0.02980
0.02980
0.03506
0.04032
0.04295
0.04471
0.04208
0.04032
0.04032
0.04032
0.04032
0.04032
0.04295
0.04734
0.04997
0.04997
0.04997
0.04997
0.05259
0.05785
0.05961
0.05961
0.05785
0.05522
0.05259
0.04997
0.05259
0.05961
0.06487
0.06750
0.06750
0.06487
0.06487
0.06487
0.06750
0.07276
0.07714
0.07977
0.07977
0.07977
0.07977
0.07714
0.07539
0.07714
0.08240
0.08503
0.08503
0.08766
0.09029
0.09029
0.09029
0.09029
0.09204
0.09730
0.09993
0.09993
0.09993
0.09730
0.09467
0.09467
0.09467
0.09730
0.09993
0.09993
0.09730
0.09029
0.08240
0.07802
0.07276
0.06750
0.06487
0.06048
0.04997
0.04295
0.03243
0.02016
0.01227
0.00964
0.00526
-0.00263
-0.00964
-0.02016
-0.02717
-0.03243
-0.03769
-0.04032
-0.04032
-0.04032
-0.04208
-0.04997
-0.05522
-0.05698
-0.05961
-0.05961
-0.05785
-0.05522
-0.05522
-0.05522
-0.05961
-0.06750
-0.06750
-0.06224
-0.05785
-0.05522
-0.05522
-0.05522
-0.05522
-0.05522
-0.05522
-0.05522
-0.05522
-0.04997
-0.04471
-0.04471
-0.04734
-0.05259
-0.05522
-0.05522
-0.05259
-0.04997
-0.04997
-0.04997
-0.05259
-0.05698
-0.06224
-0.06311
-0.05785
-0.05522
-0.05522
-0.05259
-0.04997
-0.04997
-0.04997
-0.04558
-0.03506
-0.02805
-0.01841
-0.00789
0.00175
0.01227
0.02191
0.03419
0.04208
0.04734
0.05259
0.05522
0.05522
0.04821
0.03594
0.02367
0.00614
-0.01403
-0.02980
-0.03945
-0.04909
-0.06136
-0.07451
-0.08415
-0.09029
-0.09029
-0.09029
-0.08766
-0.08503
-0.08678
-0.09204
-0.09730
-0.09993
-0.09818
-0.09292
-0.08766
-0.08240
-0.07977
-0.07977
-0.08240
-0.08503
-0.08503
-0.08240
-0.07977
-0.07802
-0.07276
-0.07013
-0.07188
-0.07714
-0.07977
-0.07977
-0.08415
-0.09204
-0.08853
-0.05610
0.02016
0.12535
0.22791
0.32171
0.38307
0.35502
0.19197
-0.06925
-0.33748
-0.55225
-0.71880
-0.85642
-0.95460
-0.99492
-0.96073
-0.85554
-0.69864
-0.51806
-0.35589
-0.23229
-0.14990
-0.09555
-0.05698
-0.03331
-0.02104
-0.01315
-0.00964
-0.00789
-0.00526
-0.00263
0.00175
0.00701
0.00964
0.00964
0.00964
0.00964
0.00964
0.01227
0.01490
0.01666
0.02016
0.02016
0.02016
0.01753
0.01490
0.01666
0.02191
0.02717
0.03243
0.03506
0.03331
0.02980
0.02980
0.02980
0.02980
0.03243
0.03506
0.03506
0.03506
0.03331
0.02805
0.02542
0.02717
0.03419
0.04032
0.04032
0.03769
0.03506
0.03506
0.03506
0.03506
0.03682
0.04032
0.04208
0.04471
0.04471
0.04471
0.04734
0.05172
0.05698
0.06224
0.06487
0.06487
0.06487
0.06487
0.06487
0.06487
0.06487
0.06925
0.07539
0.07276
0.07013
0.07013
0.07013
0.07013
0.07188
0.07714
0.08240
0.08503
0.08503
0.08503
0.08503
0.08328
0.08152
0.08503
0.08678
0.09029
0.09204
0.09467
0.09292
0.09029
0.09029
0.09204
0.09905
0.10519
0.10694
0.10957
0.10782
0.10344
0.09993
0.09993
0.10168
0.10694
0.10957
0.10957
0.10782
0.10081
0.09467
0.09467
0.09467
0.09730
0.09993
0.09818
0.09292
0.08853
0.08152
0.07276
0.07013
0.07013
0.06837
0.06136
0.04909
0.03769
0.02980
0.01841
0.01140
0.00351
-0.00175
-0.00701
-0.01227
-0.01841
-0.02717
-0.03156
-0.03682
-0.04032
-0.03857
-0.03682
-0.04208
-0.04646
-0.04997
-0.05172
-0.05522
-0.05347
-0.04821
-0.04471
-0.04471
-0.04471
-0.04471
-0.04646
-0.04997
-0.04821
-0.04295
-0.03857
-0.03506
-0.03506
-0.03682
-0.04208
-0.04471
-0.04471
-0.04295
-0.03857
-0.03506
-0.03506
-0.03506
-0.03682
-0.04208
-0.04471
-0.04471
-0.04471
-0.04471
-0.04471
-0.04471
-0.04646
-0.04997
-0.04997
-0.04646
-0.03682
-0.02630
-0.01666
-0.00789
-0.00351
0.00175
0.00877
0.01841
0.03068
0.04734
0.06311
0.07188
0.07363
0.06837
0.06487
0.06311
0.05785
0.05172
0.03945
0.02279
0.00175
-0.02016
-0.03682
-0.05347
-0.06311
-0.07363
-0.07977
-0.07977
-0.07977
-0.08152
-0.08678
-0.09029
-0.09029
-0.08678
-0.07977
-0.07802
-0.07539
-0.07626
-0.07977
-0.07977
-0.07977
-0.07977
-0.07802
-0.07626
-0.07977
-0.07977
-0.07977
-0.07977
-0.07977
-0.07802
-0.07363
-0.07013
-0.07013
-0.07363
-0.08328
-0.09292
-0.09993
-0.08678
-0.02717
0.07802
0.19109
0.29453
0.36816
0.36904
0.24457
0.01052
-0.25509
-0.47686
-0.64078
-0.77928
-0.90113
-0.96950
-0.95723
-0.86606
-0.71704
-0.53384
-0.35852
-0.22791
-0.14113
-0.08678
-0.05347
-0.03682
-0.02542
-0.01140
-0.00175
0.00701
0.00964
0.00964
0.00964
0.01140
0.01490
0.01666
0.02016
0.02191
0.02367
0.02016
0.02016
0.02016
0.02279
0.03156
0.03682
0.04032
0.04032
0.03857
0.03506
0.03331
0.02980
0.03156
0.03506
0.03506
0.03506
0.03506
0.03506
0.03331
0.02980
0.03156
0.03506
0.03682
0.04032
0.04032
0.04032
0.04032
0.03857
0.03506
0.03506
0.03682
0.04032
0.04032
0.04032
0.04032
0.03857
0.03682
0.04032
0.04032
0.04120
0.04646
0.04997
0.04821
0.04471
0.04471
0.04471
0.04646
0.05259
0.05961
0.06136
0.06311
0.05873
0.05347
0.05172
0.05610
0.06136
0.06662
0.07188
0.07539
0.07363
0.06837
0.06487
0.06662
0.07188
0.07802
0.08678
0.09116
0.09467
0.09379
0.08853
0.08503
0.08678
0.09116
0.09642
0.09993
0.09818
0.09467
0.09467
0.09642
0.10168
0.10607
0.10957
0.10957
0.10957
0.10870
0.10519
0.10519
0.10519
0.10519
0.10519
0.10519
0.10519
0.10344
0.09905
0.09379
0.08853
0.08503
0.08503
0.08503
0.08240
0.07188
0.06399
0.05698
0.04734
0.03857
0.03331
0.02717
0.01841
0.01227
0.00263
-0.00789
-0.01666
-0.02104
-0.02542
-0.02630
-0.02980
-0.03156
-0.03769
-0.04734
-0.05610
-0.05961
-0.05873
-0.05522
-0.05522
-0.05610
-0.06136
-0.06662
-0.07100
-0.07539
-0.07363
-0.06837
-0.06487
-0.06487
-0.06662
-0.07013
-0.07100
-0.07539
-0.07363
-0.07013
-0.06837
-0.06487
-0.06487
-0.06662
-0.07013
-0.07013
-0.06837
-0.06399
-0.05873
-0.05522
-0.05522
-0.05610
-0.06136
-0.06487
-0.06399
-0.05873
-0.05084
-0.03857
-0.03331
-0.02717
-0.01753
-0.00877
-0.00263
0.00877
0.02454
0.04120
0.04646
0.04909
0.04383
0.04032
0.04032
0.03857
0.03243
0.02104
0.00526
-0.01490
-0.03594
-0.05785
-0.06837
-0.08152
-0.08590
-0.09029
-0.08853
-0.08503
-0.08590
-0.09116
-0.09642
-0.09993
-0.09905
-0.09467
-0.09467
-0.09467
-0.09467
-0.09642
-0.09993
-0.09993
-0.09905
-0.09379
-0.08766
-0.07977
-0.07977
-0.07977
-0.07977
-0.08152
-0.08503
-0.08415
-0.07977
-0.07977
-0.07977
-0.08328
-0.09730
-0.10519
-0.09555
-0.04208
0.06224
0.18145
0.29278
0.37693
0.37693
0.24807
0.00438
-0.27262
-0.49089
-0.64429
-0.77227
-0.88535
-0.95810
-0.95635
-0.88096
-0.74071
-0.56277
-0.38219
-0.24106
-0.14201
-0.08590
-0.05084
-0.03156
-0.01666
-0.00351
0.00175
0.01140
0.01490
0.01490
0.01490
0.01490
0.01490
0.01490
0.01578
0.02191
0.03068
0.03506
0.03419
0.02980
0.02980
0.02980
0.03068
0.03594
0.04032
0.04032
0.04032
0.03857
0.03419
0.03068
0.03506
0.03594
0.04032
0.04032
0.04032
0.04032
0.04032
0.03857
0.03594
0.04032
0.04032
0.04120
0.04383
0.04032
0.04032
0.04032
0.04032
0.04032
0.04032
0.04120
0.04558
0.04997
0.04909
0.04471
0.04471
0.04471
0.04558
0.05084
0.05610
0.06136
0.06399
0.05961
0.05961
0.05961
0.06136
0.06487
0.06574
0.07100
0.07539
0.07363
0.07013
0.07100
0.07626
0.08065
0.08503
0.08503
0.08503
0.08503
0.08503
0.08503
0.08503
0.08590
0.09116
0.09467
0.09467
0.09467
0.09467
0.09467
0.09467
0.09555
0.10081
0.10519
0.10607
0.10870
0.10519
0.10519
0.10607
0.10957
0.11133
0.11483
0.11396
0.10957
0.10957
0.10957
0.10957
0.10957
0.10957
0.10957
0.10957
0.10957
0.10782
0.09905
0.09292
0.08503
0.08415
0.07889
0.07451
0.06925
0.06311
0.05259
0.03945
0.03331
0.02454
0.01928
0.01315
0.00351
-0.00614
-0.01227
-0.02630
-0.03594
-0.04120
-0.04471
-0.04471
-0.04558
-0.05084
-0.05522
-0.05610
-0.06048
-0.06487
-0.06487
-0.06399
-0.05961
-0.05610
-0.05961
-0.06048
-0.06574
-0.07013
-0.06925
-0.06399
-0.05961
-0.05522
-0.05522
-0.05610
-0.06048
-0.06399
-0.05961
-0.05522
-0.05435
-0.04997
-0.05084
-0.05522
-0.05522
-0.05522
-0.05522
-0.05435
-0.04997
-0.04997
-0.05084
-0.05522
-0.05522
-0.05522
-0.05435
-0.04821
-0.03857
-0.02805
-0.01315
-0.00526
-0.00351
0.00614
0.01753
0.03156
0.04032
0.04558
0.04909
0.04471
0.04471
0.03857
0.02805
0.01315
0.00263
-0.01315
-0.03156
-0.04208
-0.05698
-0.07188
-0.08678
-0.09467
-0.09467
-0.09467
-0.09467
-0.09029
-0.09467
-0.09555
-0.09993
-0.09905
-0.09467
-0.09467
-0.08941
-0.08415
-0.08065
-0.08590
-0.09029
-0.09029
-0.09029
-0.08941
-0.08415
-0.07977
-0.07977
-0.07977
-0.08065
-0.08590
-0.09029
-0.08941
-0.08503
-0.08590
-0.09555
-0.09905
-0.08766
-0.02805
0.06837
0.17356
0.27700
0.36466
0.38920
0.28752
0.05961
-0.22002
-0.45144
-0.62413
-0.77577
-0.89587
-0.97038
-0.96599
-0.88359
-0.74422
-0.57241
-0.39271
-0.25333
-0.15691
-0.09467
-0.05172
-0.02893
-0.01928
-0.01403
-0.00964
-0.00438
0.00088
0.00526
0.00964
0.00964
0.00964
0.00964
0.01052
0.01490
0.01578
0.02016
0.02542
0.02980
0.02542
0.02454
0.02016
0.02542
0.02542
0.02542
0.02980
0.02980
0.02980
0.02542
0.02454
0.02016
0.02016
0.02542
0.03068
0.03594
0.04032
0.03945
0.03419
0.02980
0.02542
0.03068
0.03594
0.04032
0.04032
0.04032
0.04032
0.04032
0.04032
0.04032
0.04558
0.04997
0.04997
0.04909
0.04471
0.04471
0.04471
0.04558
0.05084
0.05522
0.06048
0.06487
0.06487
0.05961
0.05435
0.05084
0.05522
0.06048
0.06487
0.06574
0.07013
0.07013
0.07013
0.06925
0.06574
0.07013
0.07539
0.07977
0.07977
0.07977
0.07977
0.07977
0.07977
0.08065
0.08503
0.09029
0.09029
0.08941
0.08503
0.08503
0.08503
0.08503
0.08503
0.09029
0.09029
0.09467
0.09467
0.09467
0.09555
0.09993
0.10081
0.10519
0.10519
0.10431
0.09993
0.09467
0.09467
0.09029
0.09467
0.09467
0.09467
0.09467
0.08941
0.08503
0.07889
0.06925
0.06487
0.06487
0.06399
0.05435
0.04471
0.03419
0.01928
0.01403
0.00438
0.00000
-0.00526
-0.00526
-0.01578
-0.02542
-0.03068
-0.04032
-0.04471
-0.04471
-0.04471
-0.04558
-0.05522
-0.05522
-0.06574
-0.07013
-0.07451
-0.06925
-0.06487
-0.06574
-0.07013
-0.07013
-0.07013
-0.07013
-0.07013
-0.06487
-0.06487
-0.06487
-0.06487
-0.07013
-0.07539
-0.07977
-0.07977
-0.07977
-0.07451
-0.07013
-0.06487
-0.06048
-0.06574
-0.07539
-0.07539
-0.07451
-0.07013
-0.06487
-0.05961
-0.05522
-0.05522
-0.05435
-0.04997
-0.04383
-0.02893
-0.01403
0.00088
0.01578
0.03068
0.04032
0.04471
0.04471
0.04558
0.04997
0.05522
0.05435
0.04471
0.02893
0.00877
-0.01578
-0.03594
-0.05522
-0.06574
-0.07539
-0.08065
-0.09029
-0.09993
-0.09993
-0.10519
-0.10519
-0.09993
-0.09993
-0.09467
-0.09555
-0.09993
-0.09993
-0.10519
-0.10519
-0.09993
-0.09467
-0.09029
-0.09029
-0.09555
-0.09993
-0.09993
-0.10519
-0.09993
-0.09993
-0.08941
-0.08503
-0.08503
-0.08503
-0.08503
-0.09029
-0.09993
-0.10431
-0.08853
-0.03243
0.06837
0.18321
0.28226
0.37079
0.39271
0.29891
0.07714
-0.21126
-0.45933
-0.62413
-0.77314
-0.89674
-0.97038
-0.97301
-0.90200
-0.77665
-0.61098
-0.43215
-0.28752
-0.18846
-0.12447
-0.07977
-0.04997
-0.02980
-0.02016
-0.00964
-0.00964
-0.00964
-0.00964
-0.00964
-0.00526
-0.00526
0.00000
0.00000
-0.00526
-0.00526
-0.00526
-0.00526
-0.00526
0.00526
0.00964
0.01490
0.00964
0.00964
0.00964
0.00964
0.00964
0.01490
0.01490
0.02016
0.02016
0.02016
0.01490
0.01490
0.01490
0.01490
0.02016
0.02542
0.02980
0.02454
0.02016
0.01490
0.01490
0.02016
0.02016
0.02542
0.02980
0.02980
0.02980
0.02980
0.02980
0.02980
0.04032
0.04032
0.04471
0.04032
0.04032
0.04032
0.03506
0.04032
0.04032
0.04471
0.04997
0.05522
0.04997
0.04997
0.04997
0.04997
0.05522
0.05961
0.06487
0.06487
0.06487
0.06487
0.06487
0.06487
0.06487
0.06487
0.07013
0.07977
0.07977
0.07977
0.07539
0.07013
0.07451
0.07977
0.08503
0.08503
0.08503
0.09029
0.09029
0.09029
0.09029
0.09029
0.09467
0.09467
0.09993
0.09993
0.09993
0.09467
0.09467
0.09467
0.09993
0.09993
0.10519
0.10519
0.09993
0.09029
0.09029
0.08503
0.09029
0.09029
0.08503
0.08503
0.07539
0.06487
0.05522
0.04997
0.04471
0.04032
0.03506
0.02980
0.01578
0.00526
-0.00438
-0.00964
-0.01928
-0.02454
-0.02980
-0.02980
-0.03945
-0.04471
-0.05435
-0.05522
-0.05961
-0.05961
-0.05522
-0.05522
-0.05522
-0.05961
-0.06487
-0.06487
-0.07013
-0.06487
-0.06048
-0.05961
-0.05961
-0.05961
-0.06487
-0.07013
-0.06487
-0.06487
-0.06048
-0.05522
-0.05522
-0.05522
-0.05522
-0.05961
-0.06487
-0.06487
-0.06487
-0.06048
-0.05522
-0.05522
-0.05522
-0.06487
-0.06487
-0.06048
-0.05522
-0.04558
-0.03506
-0.03068
-0.02542
-0.02016
-0.01052
-0.00526
0.00964
0.01928
0.03857
0.04909
0.05435
0.04997
0.04558
0.04032
0.04032
0.03506
0.02542
0.01052
-0.01403
-0.03857
-0.05435
-0.06925
-0.07977
-0.08503
-0.08941
-0.09467
-0.09993
-0.10431
-0.10957
-0.10957
-0.10519
-0.10519
-0.09993
-0.09993
-0.09993
-0.09993
-0.10957
-0.10957
-0.10957
-0.10957
-0.10519
-0.09993
-0.09555
-0.09467
-0.09467
-0.09993
-0.09993
-0.09993
-0.09555
-0.09029
-0.08503
-0.08503
-0.08941
-0.10431
-0.11922
-0.10607
-0.05435
0.05172
0.16655
0.26736
0.36290
0.37430
0.25421
0.03243
-0.22528
-0.45758
-0.62763
-0.77402
-0.90551
-0.98440
-0.98089
-0.90113
-0.75649
-0.57416
-0.39884
-0.26034
-0.17181
-0.10957
-0.07714
-0.05698
-0.04120
-0.03068
-0.02104
-0.01052
-0.00964
-0.00526
-0.00526
-0.00964
-0.00964
-0.00526
-0.00526
0.00438
0.00964
0.00964
0.00526
0.00526
0.00526
0.00526
0.00964
0.01490
0.01490
0.01490
0.01490
0.01490
0.01052
0.00964
0.01490
0.01490
0.01928
0.02454
0.02016
0.02016
0.01578
0.01490
0.01490
0.01928
0.02454
0.02980
0.02980
0.02542
0.02016
0.02016
0.02454
0.02980
0.03419
0.03945
0.04032
0.04032
0.04032
0.04032
0.04032
0.04032
0.04032
0.04471
0.04909
0.04997
0.04558
0.04032
0.04471
0.04471
0.04909
0.05435
0.05961
0.05961
0.05522
0.05084
0.04997
0.05435
0.05961
0.06487
0.06925
0.07451
0.07013
0.06574
0.06487
0.06487
0.06487
0.07363
0.07977
0.08415
0.08065
0.07977
0.07539
0.07100
0.07451
0.07977
0.08415
0.08941
0.09029
0.08590
0.08065
0.07977
0.08415
0.08503
0.09379
0.09905
0.09993
0.09555
0.09029
0.08590
0.08503
0.08941
0.09467
0.09467
0.09467
0.09029
0.08590
0.08503
0.08065
0.07977
0.07977
0.07539
0.07100
0.06574
0.05610
0.04646
0.03594
0.02630
0.02104
0.01578
0.01052
0.00088
-0.00877
-0.02279
-0.02893
-0.03419
-0.03945
-0.04032
-0.04471
-0.04909
-0.05435
-0.05961
-0.06837
-0.07451
-0.07539
-0.07100
-0.07013
-0.07013
-0.07451
-0.07539
-0.07889
-0.07977
-0.07977
-0.07977
-0.07977
-0.07539
-0.07539
-0.07539
-0.07539
-0.07889
-0.07977
-0.07977
-0.07977
-0.07539
-0.07100
-0.07013
-0.07451
-0.07889
-0.07977
-0.07539
-0.06662
-0.06048
-0.05961
-0.05610
-0.05522
-0.05522
-0.05522
-0.05084
-0.03682
-0.02630
-0.01227
-0.00175
0.00877
0.01403
0.02367
0.03331
0.03945
0.04032
0.04032
0.04032
0.04032
0.02717
0.01227
-0.00263
-0.02191
-0.03769
-0.05259
-0.06311
-0.07802
-0.08853
-0.09818
-0.09993
-0.10431
-0.10081
-0.09993
-0.09993
-0.09993
-0.09993
-0.10431
-0.10519
-0.10081
-0.09993
-0.09993
-0.09555
-0.09467
-0.09467
-0.09905
-0.09993
-0.09993
-0.09993
-0.09993
-0.09204
-0.08590
-0.08065
-0.08415
-0.08941
-0.09029
-0.09029
-0.09379
-0.09905
-0.10431
-0.09642
-0.06224
0.01578
0.12097
0.22703
0.32346
0.37693
0.31031
0.12184
-0.15077
-0.40235
-0.58556
-0.73458
-0.85905
-0.95460
-0.98265
-0.93181
-0.80470
-0.64429
-0.46722
-0.31557
-0.20775
-0.13236
-0.08328
-0.04997
-0.03243
-0.02630
-0.02104
-0.01578
-0.01490
-0.01490
-0.00701
-0.00526
-0.00088
0.00000
0.00000
-0.00438
-0.00526
-0.00088
0.00789
0.01403
0.01490
0.01490
0.01052
0.00964
0.00964
0.00964
0.01403
0.01490
0.02279
0.02893
0.02980
0.02630
0.02104
0.02016
0.02367
0.02893
0.03419
0.03506
0.03506
0.03068
0.02980
0.02980
0.02980
0.03419
0.03945
0.04032
0.04032
0.04032
0.03594
0.03506
0.03857
0.04032
0.04032
0.04383
0.04471
0.04120
0.04032
0.04032
0.04383
0.04471
0.04909
0.05435
0.05522
0.05873
0.05610
0.05522
0.05522
0.05522
0.06311
0.06487
0.06925
0.07013
0.06574
0.06487
0.06136
0.06399
0.06487
0.06925
0.07363
0.07539
0.07539
0.07539
0.07539
0.07889
0.08415
0.08853
0.09379
0.09467
0.09116
0.09029
0.09029
0.09029
0.09029
0.09379
0.09905
0.10431
0.10519
0.10519
0.10081
0.09993
0.09642
0.09905
0.10431
0.10870
0.10957
0.10607
0.10081
0.09642
0.09467
0.09905
0.09993
0.09993
0.09642
0.08766
0.07714
0.07100
0.06574
0.06136
0.05610
0.05522
0.05084
0.04208
0.03594
0.02367
0.01227
0.00263
-0.00351
-0.00877
-0.01753
-0.02805
-0.03419
-0.04295
-0.05259
-0.05522
-0.05522
-0.05522
-0.05522
-0.05522
-0.05873
-0.06399
-0.06925
-0.07013
-0.07363
-0.07539
-0.07100
-0.07363
-0.07539
-0.07889
-0.07977
-0.07977
-0.07977
-0.07626
-0.07100
-0.07013
-0.07013
-0.07363
-0.07889
-0.07977
-0.07977
-0.07977
-0.07977
-0.07626
-0.07539
-0.07889
-0.07977
-0.08415
-0.08853
-0.08590
-0.08152
-0.07276
-0.06224
-0.05961
-0.05610
-0.05522
-0.04734
-0.03331
-0.01841
-0.00789
0.00964
0.02279
0.02893
0.02980
0.02980
0.02980
0.03331
0.03857
0.03594
0.02717
0.01403
-0.00877
-0.03769
-0.05961
-0.07626
-0.08415
-0.09204
-0.09905
-0.10344
-0.11220
-0.11834
-0.12009
-0.12009
-0.11659
-0.11133
-0.10607
-0.10519
-0.10519
-0.10870
-0.10957
-0.10957
-0.10957
-0.10607
-0.10168
-0.09993
-0.09993
-0.09993
-0.09993
-0.09993
-0.09993
-0.09642
-0.08766
-0.08503
-0.08503
-0.08853
-0.09379
-0.09905
-0.10694
-0.10957
-0.08853
-0.02542
0.07889
0.18671
0.28051
0.35589
0.36816
0.25596
0.02279
-0.24983
-0.47335
-0.64253
-0.78980
-0.91340
-0.98440
-0.98528
-0.90376
-0.76263
-0.58994
-0.41375
-0.27086
-0.17356
-0.11396
-0.07451
-0.04734
-0.02893
-0.01052
-0.00526
-0.00526
-0.00526
-0.00526
-0.00526
-0.00526
-0.00175
0.00351
0.00526
0.00526
0.00526
0.00526
0.00526
0.00877
0.01315
0.01490
0.01490
0.01490
0.01490
0.01490
0.01490
0.01490
0.01841
0.02367
0.02893
0.02980
0.02630
0.02542
0.02104
0.02016
0.02367
0.02893
0.03682
0.04032
0.04032
0.03682
0.03156
0.03331
0.03857
0.04032
0.04383
0.04471
0.04471
0.04471
0.04120
0.04032
0.04383
0.04821
0.05347
0.05522
0.05522
0.05172
0.04997
0.04646
0.04821
0.05347
0.05873
0.06311
0.06487
0.06487
0.06487
0.06136
0.06311
0.06487
0.06487
0.07188
0.07889
0.07977
0.07977
0.07626
0.07539
0.07802
0.08328
0.08853
0.09379
0.09467
0.09467
0.09116
0.09029
0.09029
0.09379
0.09818
0.10344
0.10519
0.10519
0.10519
0.10519
0.10519
0.10870
0.10957
0.10957
0.10957
0.10957
0.10957
0.10957
0.10957
0.10957
0.10957
0.11308
0.11483
0.11133
0.10957
0.10694
0.10168
0.09993
0.09993
0.09993
0.09993
0.09642
0.08853
0.07802
0.06837
0.06136
0.05698
0.05172
0.04646
0.04208
0.03331
0.02016
0.00789
-0.00175
-0.00526
-0.00526
-0.00526
-0.00877
-0.01666
-0.02630
-0.02980
-0.03682
-0.04032
-0.04032
-0.03682
-0.03506
-0.03506
-0.03857
-0.04295
-0.04471
-0.04471
-0.04208
-0.03682
-0.03156
-0.02980
-0.02980
-0.02980
-0.02980
-0.02980
-0.02980
-0.02980
-0.02630
-0.02542
-0.02542
-0.02542
-0.02805
-0.02980
-0.02980
-0.02980
-0.02980
-0.02980
-0.02980
-0.02980
-0.03331
-0.03506
-0.03506
-0.03156
-0.02980
-0.02367
-0.01315
-0.00964
-0.00701
-0.00526
0.00175
0.01140
0.02454
0.03682
0.04997
0.06136
0.06487
0.06487
0.06487
0.06487
0.06487
0.06487
0.05522
0.03682
0.01753
-0.00614
-0.02454
-0.03945
-0.05172
-0.05522
-0.06136
-0.06837
-0.07363
-0.07802
-0.07977
-0.07977
-0.07977
-0.07977
-0.07977
-0.07714
-0.07802
-0.07977
-0.07977
-0.08328
-0.08152
-0.07977
-0.07714
-0.07188
-0.07013
-0.07013
-0.07276
-0.07802
-0.07977
-0.07714
-0.07539
-0.07188
-0.06662
-0.06487
-0.06837
-0.07626
-0.08590
-0.08678
-0.05961
0.00877
0.11571
0.22879
0.32609
0.39797
0.40147
0.28314
0.05084
-0.21915
-0.44793
-0.63114
-0.78892
-0.91340
-0.97651
-0.96161
-0.87308
-0.72756
-0.54699
-0.37255
-0.23843
-0.14814
-0.09204
-0.05610
-0.03243
-0.01227
0.00088
0.00789
0.01315
0.01490
0.01490
0.01490
0.01490
0.01841
0.02279
0.02805
0.02980
0.02717
0.02191
0.02016
0.02016
0.02279
0.02805
0.03331
0.03769
0.04032
0.03682
0.03156
0.02980
0.03331
0.03506
0.03769
0.04032
0.04032
0.03682
0.03156
0.02980
0.03331
0.03769
0.04032
0.04295
0.04471
0.04208
0.04032
0.04032
0.04032
0.04032
0.04032
0.04558
0.04997
0.04997
0.04734
0.04471
0.04471
0.04821
0.05259
0.05785
0.05961
0.05961
0.05698
0.05522
0.05172
0.05259
0.05785
0.06311
0.06837
0.07013
0.06662
0.06487
0.06487
0.06487
0.06837
0.07626
0.08328
0.08503
0.08240
0.07714
0.07539
0.07539
0.07802
0.08328
0.08766
0.09292
0.09467
0.09467
0.09467
0.09204
0.09292
0.09818
0.10256
0.10782
0.10957
0.10957
0.10957
0.10957
0.10957
0.11308
0.11483
0.11834
0.12009
0.12009
0.11746
0.11220
0.10957
0.10957
0.11308
0.11746
0.11746
0.11220
0.10694
0.10519
0.10168
0.09993
0.09993
0.09730
0.09204
0.08678
0.07889
0.06925
0.05961
0.04909
0.04208
0.04032
0.04032
0.03682
0.02893
0.01928
0.00351
-0.00789
-0.00964
-0.00964
-0.01315
-0.01753
-0.02279
-0.02805
-0.03243
-0.03769
-0.04032
-0.04032
-0.04032
-0.04032
-0.04295
-0.05084
-0.05522
-0.05785
-0.05961
-0.05961
-0.05698
-0.05522
-0.05522
-0.05522
-0.05785
-0.06311
-0.06750
-0.07013
-0.06750
-0.06224
-0.05961
-0.05961
-0.06574
-0.07276
-0.07539
-0.07188
-0.06487
-0.05698
-0.05522
-0.05522
-0.05522
-0.05522
-0.05259
-0.04734
-0.03682
-0.02454
-0.01490
-0.00701
-0.00263
0.00526
0.01315
0.02016
0.03068
0.03769
0.04295
0.04471
0.04471
0.04208
0.03156
0.01666
0.00175
-0.01578
-0.03331
-0.04821
-0.06311
-0.07539
-0.08503
-0.09555
-0.10256
-0.10519
-0.10256
-0.09993
-0.09993
-0.10256
-0.11045
-0.11746
-0.12009
-0.11746
-0.10957
-0.10256
-0.09993
-0.09993
-0.09993
-0.10256
-0.10519
-0.10519
-0.10256
-0.09730
-0.09467
-0.09467
-0.09730
-0.09993
-0.09993
-0.09730
-0.09467
-0.09204
-0.09555
-0.10519
-0.10957
-0.09379
-0.03506
0.06574
0.18058
0.29278
0.37430
0.36290
0.21652
-0.03243
-0.29891
-0.51718
-0.67847
-0.81347
-0.92479
-0.98791
-0.97914
-0.89236
-0.74860
-0.57328
-0.40147
-0.26473
-0.16830
-0.10694
-0.06925
-0.04734
-0.03506
-0.02980
-0.02717
-0.02279
-0.01490
-0.00701
-0.00263
0.00000
0.00000
-0.00263
-0.00526
-0.00526
-0.00526
0.00000
0.00789
0.00964
0.00964
0.00701
0.00526
0.00526
0.00789
0.01227
0.01490
0.01490
0.01490
0.01227
0.00964
0.01227
0.01490
0.02016
0.02717
0.02980
0.02717
0.02279
0.01753
0.01490
0.01753
0.02279
0.02717
0.02980
0.02980
0.02980
0.02717
0.02542
0.02542
0.02717
0.03243
0.03769
0.04032
0.03769
0.03243
0.02980
0.03243
0.03769
0.04208
0.04734
0.04997
0.04997
0.04734
0.04295
0.04032
0.04208
0.04734
0.05259
0.05785
0.05961
0.05961
0.05961
0.05961
0.06224
0.06487
0.06750
0.07276
0.07539
0.07539
0.07276
0.07013
0.07013
0.07276
0.07714
0.08240
0.08503
0.08503
0.08503
0.08503
0.08240
0.07977
0.08240
0.08503
0.08503
0.08766
0.09029
0.09029
0.09029
0.09029
0.09029
0.09204
0.09467
0.09467
0.09292
0.09029
0.08766
0.08503
0.08503
0.08503
0.08503
0.08503
0.08503
0.08065
0.07276
0.06750
0.06224
0.05785
0.05259
0.04734
0.04295
0.03506
0.02279
0.01052
0.00263
-0.00263
-0.00701
-0.01227
-0.01928
-0.02717
-0.03682
-0.04997
-0.05522
-0.05698
-0.05961
-0.05961
-0.06224
-0.06487
-0.06750
-0.07451
-0.07977
-0.07977
-0.07539
-0.06750
-0.06311
-0.05961
-0.06224
-0.06750
-0.07013
-0.07013
-0.06750
-0.06311
-0.05961
-0.05785
-0.05698
-0.05961
-0.06224
-0.06487
-0.06487
-0.06311
-0.05785
-0.05522
-0.05522
-0.05698
-0.06224
-0.06750
-0.07013
-0.06750
-0.06487
-0.06311
-0.05961
-0.05961
-0.05785
-0.05522
-0.05084
-0.03857
-0.02542
-0.01315
-0.00088
0.00964
0.01753
0.02454
0.03419
0.04032
0.04032
0.04208
0.04471
0.04032
0.02805
0.01140
-0.00877
-0.02893
-0.04646
-0.06136
-0.07451
-0.08240
-0.09204
-0.10256
-0.10694
-0.10957
-0.10782
-0.10256
-0.09993
-0.09818
-0.09730
-0.09993
-0.10256
-0.10694
-0.10782
-0.10256
-0.09993
-0.09818
-0.09730
-0.09993
-0.10256
-0.10519
-0.10256
-0.09993
-0.09818
-0.09292
-0.09204
-0.09467
-0.09730
-0.09993
-0.09993
-0.10256
-0.10694
-0.10957
-0.09730
-0.04821
0.04471
0.15954
0.26999
0.36027
0.38745
0.29278
0.07100
-0.20950
-0.45495
-0.63815
-0.78980
-0.91427
-0.99229
-0.99580
-0.91953
-0.77840
-0.60396
-0.43040
-0.28664
-0.18846
-0.12184
-0.07539
-0.04471
-0.02805
-0.02279
-0.01753
-0.01490
-0.01315
-0.00789
-0.00526
-0.00263
0.00175
0.00526
0.00263
0.00000
0.00000
0.00175
0.00701
0.01227
0.01490
0.01490
0.01490
0.01490
0.01490
0.01490
0.01490
0.01666
0.02191
0.02542
0.02542
0.02279
0.02016
0.02016
0.02016
0.02191
0.02717
0.02980
0.02980
0.02805
0.02542
0.02279
0.02191
0.02717
0.03243
0.03506
0.03506
0.03331
0.02805
0.02542
0.02717
0.03243
0.03682
0.04032
0.04032
0.04032
0.03769
0.03506
0.03506
0.03682
0.04208
0.04734
0.04997
0.04997
0.04821
0.04471
0.04471
0.04471
0.04734
0.05435
0.06224
0.06487
0.06311
0.05785
0.05522
0.05522
0.05873
0.06487
0.06662
0.07188
0.07276
0.06837
0.06487
0.06487
0.06662
0.07188
0.07714
0.07977
0.07977
0.07977
0.07977
0.07977
0.08152
0.08503
0.08678
0.09204
0.09467
0.09292
0.08766
0.08503
0.08503
0.08678
0.09204
0.09467
0.09467
0.09467
0.09292
0.09029
0.08853
0.08503
0.08503
0.08503
0.08503
0.08328
0.07626
0.06837
0.06136
0.05347
0.04997
0.04821
0.04295
0.03857
0.02980
0.01666
0.00614
-0.00175
-0.00701
-0.01227
-0.01490
-0.01841
-0.02717
-0.03331
-0.04208
-0.04646
-0.04997
-0.04997
-0.05172
-0.05522
-0.05698
-0.06399
-0.07013
-0.07013
-0.07013
-0.06662
-0.05785
-0.05522
-0.05522
-0.05873
-0.06662
-0.07013
-0.06837
-0.06311
-0.05785
-0.05347
-0.04997
-0.05172
-0.05522
-0.05873
-0.06487
-0.06311
-0.05785
-0.05522
-0.05522
-0.05522
-0.05522
-0.05522
-0.05698
-0.05785
-0.05522
-0.05522
-0.05522
-0.05522
-0.05522
-0.05522
-0.05522
-0.05347
-0.04646
-0.03682
-0.02454
-0.01140
-0.00351
0.00351
0.01140
0.02016
0.03331
0.04208
0.04646
0.05172
0.05347
0.04646
0.03682
0.02454
0.00964
-0.00701
-0.02717
-0.04471
-0.05873
-0.07013
-0.08328
-0.09379
-0.09993
-0.09993
-0.09993
-0.09818
-0.09467
-0.09642
-0.10168
-0.10519
-0.10519
-0.10519
-0.10344
-0.09993
-0.09993
-0.09993
-0.09993
-0.09993
-0.09993
-0.09993
-0.09993
-0.09818
-0.09467
-0.09467
-0.09467
-0.09467
-0.09642
-0.09818
-0.09292
-0.09029
-0.09292
-0.10519
-0.11308
-0.09730
-0.03857
0.06399
0.18058
0.28927
0.37167
0.36115
0.21213
-0.04383
-0.31645
-0.52683
-0.67847
-0.80996
-0.92216
-0.98352
-0.96775
-0.87833
-0.73370
-0.55751
-0.38745
-0.25158
-0.15954
-0.10256
-0.06574
-0.04032
-0.02805
-0.02191
-0.01315
-0.00877
-0.00526
-0.00351
0.00000
0.00000
-0.00175
-0.00526
-0.00526
-0.00351
0.00351
0.01140
0.01490
0.01490
0.01490
0.01315
0.00877
0.00526
0.00789
0.01666
0.02191
0.02542
0.02367
0.01841
0.01490
0.01490
0.01841
0.02630
0.02980
0.03156
0.03331
0.02805
0.02367
0.02191
0.02542
0.02630
0.03156
0.03506
0.03506
0.03331
0.02893
0.02542
0.02630
0.03156
0.03506
0.03506
0.03506
0.03506
0.03506
0.03506
0.03506
0.03682
0.04032
0.04120
0.04471
0.04646
0.04821
0.04383
0.04032
0.04295
0.05172
0.05610
0.05961
0.05961
0.05873
0.05522
0.05522
0.05610
0.06136
0.06662
0.07188
0.07626
0.07889
0.07363
0.07013
0.06837
0.06662
0.07100
0.07626
0.08152
0.08328
0.07977
0.07977
0.08152
0.08503
0.08503
0.08678
0.09116
0.09467
0.09379
0.08853
0.08503
0.08678
0.09116
0.09642
0.10168
0.10519
0.10344
0.09818
0.09467
0.09467
0.09467
0.09642
0.09993
0.09905
0.09379
0.08853
0.08328
0.07889
0.07363
0.06837
0.06399
0.05698
0.04734
0.03857
0.03068
0.01753
0.00877
0.00351
0.00000
-0.00175
-0.00789
-0.01753
-0.02630
-0.03243
-0.04120
-0.04471
-0.04471
-0.04471
-0.04646
-0.05172
-0.05522
-0.05610
-0.05961
-0.05961
-0.05873
-0.05522
-0.05522
-0.05522
-0.05522
-0.05522
-0.05522
-0.05347
-0.04909
-0.04383
-0.04032
-0.04032
-0.04120
-0.04646
-0.05172
-0.05522
-0.05347
-0.04734
-0.03857
-0.03506
-0.03594
-0.04120
-0.04646
-0.05084
-0.05522
-0.05347
-0.04909
-0.04471
-0.04646
-0.05084
-0.05522
-0.05610
-0.05961
-0.05873
-0.05522
-0.05522
-0.05522
-0.05522
-0.05522
-0.05347
-0.04734
-0.03769
-0.02630
-0.01227
-0.00263
0.00701
0.01666
0.02279
0.03243
0.04032
0.04120
0.04646
0.05084
0.05347
0.04734
0.03419
0.01052
-0.00964
-0.02717
-0.03857
-0.05259
-0.06399
-0.07626
-0.08328
-0.09642
-0.09993
-0.09993
-0.09993
-0.09993
-0.09993
-0.09993
-0.09993
-0.09993
-0.09993
-0.09905
-0.09379
-0.09029
-0.09029
-0.09029
-0.09116
-0.09642
-0.09993
-0.09905
-0.09379
-0.08853
-0.08415
-0.08152
-0.08503
-0.08590
-0.09116
-0.09467
-0.09642
-0.10081
-0.10519
-0.09905
-0.06311
0.01928
0.12973
0.23755
0.33310
0.39359
0.35677
0.18058
-0.09379
-0.36816
-0.57591
-0.73720
-0.87308
-0.96599
-0.99930
-0.95723
-0.84064
-0.67584
-0.49702
-0.33310
-0.21652
-0.13675
-0.08240
-0.04997
-0.02717
-0.01403
-0.00964
-0.00877
-0.00526
-0.00351
0.00088
0.00526
0.00614
0.00964
0.00877
0.00526
0.00526
0.00614
0.01140
0.01578
0.02016
0.02016
0.02016
0.02016
0.01928
0.01578
0.02016
0.02104
0.02630
0.02980
0.02893
0.02367
0.02016
0.02016
0.02104
0.02717
0.03506
0.03506
0.03506
0.03419
0.02893
0.02542
0.02630
0.03068
0.03594
0.04032
0.03945
0.03506
0.03419
0.02980
0.02980
0.03068
0.03594
0.04032
0.04032
0.04032
0.04032
0.04032
0.04032
0.04032
0.04120
0.04558
0.04997
0.04997
0.04997
0.04997
0.04997
0.05084
0.05610
0.06136
0.06487
0.06487
0.06487
0.06487
0.06487
0.06487
0.06487
0.06662
0.07539
0.07539
0.07539
0.07539
0.07451
0.07100
0.07626
0.08065
0.08503
0.08503
0.08503
0.08415
0.07977
0.07977
0.08065
0.08590
0.09029
0.09029
0.09029
0.09029
0.09029
0.09029
0.09116
0.09467
0.09555
0.10081
0.10431
0.09993
0.09905
0.09467
0.09379
0.09029
0.09116
0.09379
0.08941
0.08415
0.07802
0.06925
0.06311
0.05522
0.05435
0.04997
0.04821
0.03945
0.03243
0.01841
0.00877
0.00438
-0.00088
-0.00526
-0.00526
-0.00701
-0.01666
-0.02542
-0.03068
-0.03594
-0.04032
-0.04032
-0.04032
-0.04032
-0.04120
-0.04646
-0.05522
-0.05610
-0.05961
-0.05522
-0.05522
-0.05522
-0.05522
-0.05522
-0.05522
-0.05610
-0.05961
-0.05522
-0.05522
-0.05435
-0.05084
-0.05522
-0.05522
-0.05522
-0.05522
-0.05435
-0.04909
-0.04383
-0.04032
-0.04032
-0.04558
-0.05084
-0.05522
-0.05522
-0.05522
-0.05522
-0.05522
-0.05522
-0.05610
-0.06048
-0.06487
-0.06399
-0.05961
-0.05522
-0.05435
-0.04909
-0.04471
-0.04471
-0.03857
-0.02893
-0.02279
-0.00877
0.00175
0.01666
0.02717
0.04032
0.04471
0.04471
0.04471
0.04471
0.04558
0.04909
0.04295
0.02717
0.00701
-0.01753
-0.03682
-0.05084
-0.05610
-0.06662
-0.07539
-0.08065
-0.08590
-0.09555
-0.09993
-0.09905
-0.09467
-0.09029
-0.09029
-0.09029
-0.09029
-0.09555
-0.09993
-0.09905
-0.09379
-0.08415
-0.08065
-0.08590
-0.09029
-0.09467
-0.09467
-0.09467
-0.09029
-0.08941
-0.08503
-0.08503
-0.08503
-0.08503
-0.08590
-0.09116
-0.10081
-0.10957
-0.10081
-0.05961
0.03331
0.14814
0.25684
0.35063
0.38745
0.30856
0.11483
-0.14113
-0.39797
-0.59432
-0.75824
-0.90551
-0.99317
-1.00632
-0.92392
-0.77928
-0.59432
-0.41901
-0.27963
-0.18846
-0.13061
-0.09116
-0.05785
-0.03857
-0.02367
-0.01403
-0.00964
-0.00964
-0.00964
-0.00964
-0.00526
-0.00351
0.00526
0.00964
0.00964
0.00438
0.00000
0.00088
0.00614
0.01490
0.01578
0.02016
0.01928
0.01490
0.01490
0.00964
0.01052
0.01490
0.01578
0.02016
0.02016
0.02016
0.02016
0.02016
0.02542
0.02542
0.03068
0.03419
0.02980
0.02980
0.02454
0.01928
0.01578
0.02016
0.02630
0.03506
0.03506
0.03945
0.03506
0.03419
0.03068
0.03506
0.03506
0.04032
0.04032
0.04032
0.03945
0.03506
0.03506
0.03506
0.03506
0.04032
0.04558
0.04997
0.04997
0.04471
0.04032
0.04032
0.04558
0.05084
0.06048
0.06487
0.06487
0.06487
0.05961
0.05522
0.05522
0.06048
0.06487
0.06574
0.07013
0.07013
0.06925
0.06487
0.06487
0.06574
0.07100
0.07977
0.07977
0.07977
0.07977
0.07539
0.07977
0.08065
0.08503
0.08503
0.08941
0.08503
0.08503
0.08503
0.08503
0.08503
0.09029
0.09555
0.09993
0.09993
0.09993
0.09467
0.08941
0.08503
0.08503
0.08503
0.08503
0.07977
0.06925
0.06399
0.04909
0.04032
0.03945
0.03506
0.03506
0.02980
0.01928
0.00877
-0.00526
-0.00526
-0.01052
-0.01490
-0.02016
-0.02542
-0.03068
-0.04032
-0.04997
-0.05522
-0.05522
-0.05522
-0.05522
-0.05522
-0.06048
-0.06487
-0.07013
-0.07539
-0.07977
-0.07977
-0.07977
-0.07539
-0.07539
-0.07977
-0.07977
-0.07977
-0.07977
-0.07977
-0.07977
-0.07977
-0.07977
-0.07977
-0.07977
-0.07977
-0.07977
-0.07977
-0.07451
-0.07013
-0.07013
-0.07013
-0.07539
-0.07977
-0.07977
-0.07977
-0.07977
-0.07977
-0.07977
-0.07977
-0.07977
-0.07977
-0.08503
-0.08503
-0.08503
-0.07977
-0.07977
-0.07977
-0.07539
-0.07539
-0.07451
-0.06925
-0.05961
-0.05435
-0.03506
-0.02980
-0.01928
-0.00438
0.00526
0.01490
0.02016
0.02016
0.02542
0.03506
0.03506
0.02980
0.01403
-0.00526
-0.02542
-0.04558
-0.06048
-0.07539
-0.08503
-0.09555
-0.09993
-0.11045
-0.11483
-0.12009
-0.11483
-0.10957
-0.10957
-0.11045
-0.11483
-0.11483
-0.12009
-0.12009
-0.11483
-0.11483
-0.11483
-0.11483
-0.11483
-0.12009
-0.12535
-0.12447
-0.12009
-0.11483
-0.10957
-0.10519
-0.09993
-0.09993
-0.09993
-0.10519
-0.10519
-0.11045
-0.12009
-0.12009
-0.09905
-0.02367
0.08678
0.20687
0.31119
0.38482
0.35239
0.17619
-0.10344
-0.38219
-0.58205
-0.72669
-0.86080
-0.97038
-1.01508
-0.98440
-0.87395
-0.71354
-0.52858
-0.36378
-0.23931
-0.15954
-0.10519
-0.07013
-0.04997
-0.02980
-0.02454
-0.02016
-0.02016
-0.01490
-0.00964
-0.00526
-0.00526
-0.00526
-0.00526
-0.00526
-0.00526
-0.00526
-0.00526
0.00000
0.00526
0.00526
0.00964
0.00964
0.00526
0.00526
0.00526
0.00964
0.01490
0.01490
0.01490
0.01490
0.01490
0.01490
0.01490
0.01490
0.02016
0.02454
0.02542
0.02016
0.02016
0.02016
0.02016
0.02016
0.02454
0.02542
0.02980
0.02980
0.02542
0.02542
0.02016
0.02016
0.02454
0.03506
0.04032
0.04032
0.04032
0.03506
0.02980
0.02980
0.02980
0.03945
0.04032
0.04471
0.04471
0.04032
0.04032
0.04032
0.04471
0.04997
0.05961
0.05961
0.05961
0.05522
0.05522
0.05522
0.05522
0.05961
0.06487
0.07013
0.07451
0.07013
0.07013
0.06487
0.06487
0.07013
0.07977
0.07977
0.07977
0.07539
0.07013
0.07013
0.07451
0.07977
0.08503
0.08503
0.08941
0.09029
0.09029
0.08503
0.08503
0.08503
0.08941
0.09467
0.09993
0.09993
0.09555
0.09467
0.09029
0.09029
0.09467
0.09467
0.09467
0.09029
0.08503
0.07977
0.07539
0.07013
0.06487
0.06487
0.06487
0.05522
0.04558
0.03506
0.02542
0.01578
0.00526
0.00000
-0.00438
-0.00526
-0.00964
-0.01928
-0.02980
-0.02980
-0.03506
-0.03506
-0.03506
-0.03506
-0.03945
-0.04471
-0.05435
-0.05522
-0.05961
-0.05522
-0.05522
-0.05522
-0.05522
-0.05522
-0.05522
-0.05522
-0.05522
-0.05522
-0.05522
-0.04997
-0.04558
-0.04471
-0.04471
-0.04471
-0.04997
-0.04997
-0.04997
-0.04558
-0.04032
-0.04032
-0.04471
-0.04997
-0.05435
-0.05522
-0.05522
-0.04997
-0.04558
-0.04032
-0.04471
-0.04997
-0.05435
-0.05522
-0.05522
-0.05522
-0.05522
-0.04997
-0.05435
-0.05522
-0.05522
-0.05961
-0.05522
-0.05522
-0.04120
-0.03068
-0.02104
-0.01578
-0.01052
-0.00526
0.00000
0.01403
0.03331
0.04471
0.05435
0.05961
0.05522
0.05522
0.04997
0.04558
0.04032
0.02191
0.00614
-0.01841
-0.03857
-0.05347
-0.06925
-0.07889
-0.08503
-0.08503
-0.08941
-0.09029
-0.09467
-0.09993
-0.09993
-0.09993
-0.09993
-0.09555
-0.09029
-0.09029
-0.09029
-0.09467
-0.09993
-0.09993
-0.09555
-0.09029
-0.08503
-0.08503
-0.08065
-0.08415
-0.08503
-0.08941
-0.09029
-0.08503
-0.08065
-0.07977
-0.07977
-0.08941
-0.10344
-0.10957
-0.07802
0.01140
0.13324
0.24983
0.35502
0.41024
0.34713
0.14551
-0.12447
-0.38131
-0.57679
-0.73983
-0.88184
-0.98089
-1.01245
-0.95197
-0.81873
-0.64253
-0.46283
-0.30505
-0.19986
-0.12710
-0.08415
-0.05785
-0.04120
-0.03068
-0.02104
-0.01140
-0.00526
-0.00526
-0.00088
-0.00438
-0.00526
-0.00526
-0.00088
0.00438
0.01403
0.01490
0.01490
0.01490
0.01490
0.01490
0.01490
0.01490
0.01490
0.01928
0.02016
0.02016
0.02016
0.02016
0.02016
