0.00023
0.00856
0.00587
-0.00630
-0.01739
-0.01963
-0.01257
-0.00005
0.01227
0.01844
0.01521
0.00426
-0.00915
-0.01837
-0.01743
-0.00502
0.01206
0.02238
0.01952
0.00701
-0.00672
-0.01561
-0.01705
-0.00979
0.00423
0.01745
0.02067
0.01129
-0.00432
-0.01717
-0.02213
-0.01813
-0.00621
0.00923
0.01970
0.01807
0.00530
-0.01015
-0.01921
-0.01746
-0.00625
0.00826
0.01803
0.01787
0.00823
-0.00568
-0.01626
-0.01667
-0.00520
0.01225
0.02579
0.02840
0.01930
0.00290
-0.01361
-0.02285
-0.02096
-0.01028
0.00184
0.00732
0.00215
-0.01111
-0.02476
-0.03082
-0.02520
-0.00897
0.01240
0.03044
0.03656
0.02712
0.00772
-0.00896
-0.01234
-0.00176
0.01505
0.02929
0.03463
0.02719
0.00820
-0.01356
-0.02669
-0.02604
-0.01580
-0.00484
-0.00077
-0.00679
-0.02089
-0.03705
-0.04764
-0.04628
-0.03141
-0.00884
0.01081
0.01970
0.01820
0.01324
0.01279
0.02178
0.04026
0.06311
0.08155
0.08719
0.07698
0.05553
0.03184
0.01241
-0.00301
-0.01890
-0.03897
-0.06526
-0.09978
-0.14151
-0.18167
-0.20862
-0.21847
-0.21260
-0.18238
-0.10881
0.01368
0.16513
0.32313
0.47971
0.61043
0.64371
0.50885
0.22701
-0.08271
-0.31020
-0.44186
-0.52417
-0.57346
-0.55771
-0.45198
-0.27550
-0.07417
0.10854
0.24158
0.31035
0.32245
0.30129
0.26701
0.22505
0.17216
0.10774
0.03793
-0.02721
-0.07817
-0.10905
-0.11917
-0.11323
-0.09985
-0.08791
-0.08196
-0.07986
-0.07451
-0.05887
-0.03113
0.00345
0.03515
0.05498
0.05890
0.04909
0.03310
0.02093
0.01979
0.02896
0.04045
0.04490
0.03691
0.01704
-0.00804
-0.02781
-0.03385
-0.02570
-0.01102
-0.00028
-0.00055
-0.01167
-0.02644
-0.03528
-0.03249
-0.01906
-0.00052
0.01659
0.02653
0.02559
0.01421
-0.00142
-0.01136
-0.00878
0.00393
0.01701
0.02211
0.01770
0.00676
-0.00678
-0.01767
-0.01983
-0.01077
0.00492
0.01786
0.01990
0.00931
-0.00780
-0.02157
-0.02531
-0.01867
-0.00548
0.00886
0.01804
0.01682
0.00558
-0.00829
-0.01573
-0.01268
-0.00165
0.01126
0.01978
0.01968
0.01040
-0.00421
-0.01672
-0.01957
-0.01036
0.00515
0.01682
0.01789
0.00871
-0.00574
-0.01910
-0.02478
-0.01833
-0.00173
0.01608
0.02511
0.02101
0.00659
-0.01091
-0.02269
-0.02189
-0.00813
0.01083
0.02346
0.02237
0.00922
-0.00742
-0.01872
-0.02022
-0.01187
0.00274
0.01632
0.02068
0.01287
-0.00242
-0.01664
-0.02237
-0.01613
-0.00039
0.01620
0.02365
0.01794
0.00354
-0.01120
-0.01957
-0.01821
-0.00729
0.00831
0.01994
0.02058
0.01005
-0.00536
-0.01740
-0.02017
-0.01249
0.00136
0.01355
0.01695
0.00945
-0.00476
-0.01805
-0.02376
-0.01896
-0.00495
0.01254
0.02496
0.02533
0.01350
-0.00269
-0.01210
-0.00838
0.00516
0.01878
0.02418
0.01896
0.00514
-0.01287
-0.02868
-0.03538
-0.02939
-0.01393
0.00193
0.00902
0.00451
-0.00686
-0.01686
-0.01803
-0.00661
0.01408
0.03290
0.03814
0.02741
0.00874
-0.00708
-0.01284
-0.00635
0.00893
0.02420
0.03026
0.02367
0.00757
-0.01176
-0.02758
-0.03451
-0.03078
-0.01951
-0.00768
-0.00356
-0.01212
-0.02974
-0.04465
-0.04556
-0.03039
-0.00618
0.01764
0.03433
0.04080
0.03830
0.03325
0.03422
0.04522
0.06204
0.07562
0.07821
0.06703
0.04437
0.01513
-0.01585
-0.04441
-0.06701
-0.08352
-0.10009
-0.12460
-0.15766
-0.19181
-0.21900
-0.22980
-0.20337
-0.11417
0.03899
0.22273
0.39996
0.55115
0.64456
0.61417
0.41747
0.11263
-0.17020
-0.34851
-0.44456
-0.51418
-0.55993
-0.53885
-0.42641
-0.24321
-0.03415
0.15414
0.28411
0.33956
0.33233
0.28974
0.23501
0.18047
0.13112
0.08630
0.04031
-0.01132
-0.06421
-0.10659
-0.12915
-0.13138
-0.11872
-0.09733
-0.07371
-0.05502
-0.04501
-0.04009
-0.03190
-0.01454
0.01098
0.03797
0.05839
0.06659
0.06139
0.04662
0.02985
0.01883
0.01709
0.02188
0.02610
0.02292
0.00956
-0.01092
-0.03072
-0.04139
-0.03906
-0.02651
-0.01081
0.00074
0.00338
-0.00338
-0.01491
-0.02300
-0.02063
-0.00707
0.01128
0.02525
0.02867
0.02122
0.00749
-0.00541
-0.01062
-0.00537
0.00638
0.01622
0.01779
0.01069
-0.00162
-0.01465
-0.02293
-0.02099
-0.00822
0.00825
0.01825
0.01652
0.00541
-0.00853
-0.01866
-0.02021
-0.01153
0.00420
0.01884
0.02322
0.01369
-0.00423
-0.01904
-0.02140
-0.01091
0.00470
0.01645
0.01962
0.01399
0.00230
-0.01013
-0.01678
-0.01373
-0.00264
0.01004
0.01689
0.01389
0.00284
-0.01019
-0.01883
-0.01907
-0.01015
0.00421
0.01622
0.01878
0.01105
-0.00175
-0.01302
-0.01751
-0.01196
0.00222
0.01714
0.02301
0.01598
0.00033
-0.01545
-0.02337
-0.01928
-0.00529
0.01081
0.02017
0.01789
0.00528
-0.01049
-0.01996
-0.01775
-0.00603
0.00837
0.01881
0.02057
0.01176
-0.00396
-0.01751
-0.02041
-0.01130
0.00389
0.01672
0.02090
0.01464
0.00113
-0.01286
-0.02013
-0.01689
-0.00538
0.00711
0.01301
0.00942
-0.00109
-0.01320
-0.02120
-0.02002
-0.00799
0.01002
0.02448
0.02823
0.02116
0.00819
-0.00440
-0.01050
-0.00628
0.00603
0.01765
0.01948
0.00905
-0.00874
-0.02579
-0.03494
-0.03224
-0.01909
-0.00252
0.00862
0.00932
0.00118
-0.00933
-0.01451
-0.00922
0.00562
0.02238
0.03178
0.02997
0.01981
0.00645
-0.00490
-0.00825
0.00010
0.01587
0.02797
0.02738
0.01329
-0.00841
-0.02914
-0.04096
-0.04010
-0.02971
-0.01757
-0.01041
-0.01096
-0.01851
-0.02905
-0.03512
-0.02938
-0.01084
0.01384
0.03553
0.04830
0.05084
0.04600
0.04036
0.04152
0.05222
0.06698
0.07570
0.07057
0.04966
0.01619
-0.02319
-0.06010
-0.08828
-0.10827
-0.12645
-0.14750
-0.17073
-0.19502
-0.21828
-0.22366
-0.17693
-0.05573
0.12147
0.31189
0.48545
0.61854
0.65918
0.54638
0.28726
-0.01815
-0.25982
-0.40902
-0.50501
-0.57233
-0.58553
-0.50988
-0.34701
-0.13547
0.07430
0.23947
0.33546
0.36077
0.33234
0.27370
0.20566
0.14264
0.09081
0.04799
0.00789
-0.03349
-0.07456
-0.10936
-0.13082
-0.13462
-0.12169
-0.09759
-0.06970
-0.04504
-0.02859
-0.02052
-0.01497
-0.00423
0.01455
0.03738
0.05740
0.06871
0.06735
0.05291
0.03099
0.01181
0.00345
0.00617
0.01331
0.01668
0.01113
-0.00369
-0.02293
-0.03797
-0.04124
-0.03170
-0.01565
-0.00182
0.00386
0.00044
-0.00810
-0.01522
-0.01591
-0.00900
0.00406
0.01960
0.03052
0.02957
0.01669
0.00027
-0.01074
-0.01315
-0.00778
0.00322
0.01473
0.01853
0.00965
-0.00759
-0.02204
-0.02472
-0.01509
0.00045
0.01389
0.01941
0.01475
0.00213
-0.01212
-0.02038
-0.01808
-0.00635
0.00852
0.01832
0.01771
0.00742
-0.00653
-0.01654
-0.01703
-0.00708
0.00822
0.01995
0.02123
0.01178
-0.00284
-0.01520
-0.01935
-0.01321
-0.00022
0.01223
0.01717
0.01177
-0.00146
-0.01519
-0.02088
-0.01499
-0.00184
0.01083
0.01759
0.01629
0.00720
-0.00589
-0.01598
-0.01720
-0.00880
0.00505
0.01736
0.02112
0.01360
-0.00078
-0.01341
-0.01775
-0.01249
-0.00060
0.01168
0.01677
0.01051
-0.00363
-0.01695
-0.02204
-0.01680
-0.00390
0.01093
0.02072
0.02009
0.00890
-0.00644
-0.01626
-0.01439
-0.00274
0.01086
0.01912
0.01894
0.01062
-0.00324
-0.01701
-0.02312
-0.01719
-0.00263
0.01110
0.01567
0.00923
-0.00418
-0.01782
-0.02446
-0.01918
-0.00364
0.01341
0.02270
0.02143
0.01289
0.00198
-0.00626
-0.00656
0.00283
0.01620
0.02382
0.02028
0.00758
-0.00896
-0.02439
-0.03358
-0.03141
-0.01773
-0.00087
0.00799
0.00472
-0.00519
-0.01358
-0.01550
-0.00901
0.00535
0.02225
0.03240
0.02920
0.01451
-0.00279
-0.01288
-0.01028
0.00357
0.02095
0.03194
0.02997
0.01529
-0.00542
-0.02305
-0.03077
-0.02694
-0.01545
-0.00415
-0.00102
-0.00910
-0.02414
-0.03763
-0.04246
-0.03647
-0.02207
-0.00383
0.01322
0.02418
0.02656
0.02380
0.02444
0.03502
0.05401
0.07364
0.08553
0.08399
0.06748
0.04035
0.01129
-0.01277
-0.03135
-0.04887
-0.07056
-0.09999
-0.13645
-0.17353
-0.20426
-0.22607
-0.23253
-0.20167
-0.10953
0.03886
0.20836
0.37026
0.51638
0.62117
0.61937
0.46155
0.18613
-0.09991
-0.31720
-0.46281
-0.56087
-0.60299
-0.55951
-0.42614
-0.23466
-0.02923
0.15044
0.27332
0.32607
0.32077
0.28475
0.24017
0.19465
0.14697
0.09510
0.03901
-0.01859
-0.07086
-0.10847
-0.12519
-0.12219
-0.10687
-0.08818
-0.07287
-0.06349
-0.05771
-0.04965
-0.03356
-0.00806
0.02209
0.04781
0.06081
0.05879
0.04671
0.03275
0.02315
0.02044
0.02380
0.02893
0.02915
0.01993
0.00288
-0.01542
-0.02803
-0.03084
-0.02411
-0.01279
-0.00411
-0.00301
-0.00942
-0.01928
-0.02650
-0.02510
-0.01343
0.00330
0.01683
0.02242
0.02012
0.01200
0.00166
-0.00484
-0.00239
0.00762
0.01753
0.02015
0.01375
0.00121
-0.01260
-0.02178
-0.02139
-0.01139
0.00258
0.01322
0.01570
0.00877
-0.00488
-0.01821
-0.02278
-0.01460
0.00222
0.01779
0.02310
0.01591
0.00152
-0.01190
-0.01834
-0.01546
-0.00426
0.01023
0.01976
0.01810
0.00655
-0.00724
-0.01545
-0.01455
-0.00550
0.00702
0.01604
0.01573
0.00573
-0.00826
-0.01860
-0.02053
-0.01354
-0.00039
0.01316
0.01968
0.01481
0.00181
-0.01061
-0.01539
-0.01138
-0.00184
0.00863
0.01583
0.01664
0.00985
-0.00246
-0.01393
-0.01678
-0.00860
0.00432
0.01258
0.01152
0.00276
-0.00885
-0.01742
-0.01777
-0.00873
0.00519
0.01669
0.02019
0.01414
0.00135
-0.01191
-0.01844
-0.01416
-0.00106
0.01348
0.02094
0.01683
0.00370
-0.01065
-0.01845
-0.01633
-0.00595
0.00749
0.01686
0.01630
0.00543
-0.00982
-0.02128
-0.02328
-0.01483
0.00009
0.01388
0.01922
0.01357
0.00076
-0.01120
-0.01462
-0.00667
0.00863
0.02315
0.02967
0.02508
0.01101
-0.00669
-0.02015
-0.02369
-0.01725
-0.00625
0.00197
0.00262
-0.00405
-0.01389
-0.02183
-0.02338
-0.01556
0.00075
0.01901
0.03001
0.02822
0.01520
-0.00204
-0.01473
-0.01595
-0.00441
0.01390
0.02911
0.03371
0.02620
0.01061
-0.00548
-0.01406
-0.01170
-0.00312
0.00201
-0.00282
-0.01634
-0.03216
-0.04375
-0.04662
-0.03886
-0.02277
-0.00538
0.00528
0.00612
0.00121
-0.00165
0.00342
0.01771
0.03858
0.06064
0.07682
0.08122
0.07302
0.05713
0.04043
0.02761
0.01924
0.01115
-0.00425
-0.03340
-0.07656
-0.12642
-0.17042
-0.19683
-0.20351
-0.19981
-0.19224
-0.16761
-0.10084
0.01726
0.17105
0.34121
0.51224
0.64247
0.65195
0.48316
0.17874
-0.13476
-0.35496
-0.47438
-0.53731
-0.56068
-0.52323
-0.41162
-0.24572
-0.06225
0.10575
0.23383
0.30859
0.33251
0.31998
0.28400
0.22924
0.15824
0.07988
0.00838
-0.04506
-0.07797
-0.09483
-0.10154
-0.10261
-0.10200
-0.10242
-0.10183
-0.09325
-0.07153
-0.03950
-0.00590
0.02118
0.03723
0.04141
0.03737
0.03253
0.03302
0.03906
0.04608
0.04890
0.04396
0.03025
0.01060
-0.00874
-0.02143
-0.02429
-0.01819
-0.00781
-0.00050
-0.00239
-0.01335
-0.02630
-0.03255
-0.02810
-0.01538
-0.00008
0.01218
0.01723
0.01334
0.00307
-0.00700
-0.00997
-0.00310
0.01043
0.02303
0.02705
0.01973
0.00479
-0.01036
-0.01868
-0.01651
-0.00547
0.00755
0.01415
0.01049
-0.00010
-0.01095
-0.01733
-0.01713
-0.00938
0.00396
0.01596
0.01857
0.00955
-0.00554
-0.01756
-0.01941
-0.01010
0.00456
0.01620
0.01953
0.01402
0.00229
-0.01043
-0.01718
-0.01355
-0.00178
0.01103
0.01825
0.01644
0.00559
-0.00972
-0.02073
-0.02011
-0.00836
0.00687
0.01703
0.01748
0.00846
-0.00537
-0.01658
-0.01890
-0.01097
0.00297
0.01553
0.01992
0.01359
0.00001
-0.01306
-0.01836
-0.01341
-0.00122
0.01197
0.01949
0.01683
0.00464
-0.01030
-0.01919
-0.01772
-0.00810
0.00421
0.01375
0.01608
0.00931
-0.00334
-0.01429
-0.01677
-0.00940
0.00363
0.01560
0.02031
0.01490
0.00195
-0.01149
-0.01807
-0.01442
-0.00275
0.01033
0.01715
0.01348
0.00150
-0.01189
-0.02001
-0.01974
-0.01159
0.00113
0.01254
0.01628
0.00976
-0.00313
-0.01415
-0.01582
-0.00596
0.01097
0.02610
0.03115
0.02351
0.00774
-0.00775
-0.01605
-0.01495
-0.00716
0.00141
0.00464
-0.00038
-0.01179
-0.02405
-0.03040
-0.02615
-0.01192
0.00587
0.01921
0.02340
0.01865
0.00850
-0.00186
-0.00727
-0.00486
0.00431
0.01573
0.02370
0.02424
0.01721
0.00642
-0.00232
-0.00441
0.00038
0.00684
0.00753
-0.00135
-0.01722
-0.03379
-0.04484
-0.04594
-0.03613
-0.02006
-0.00630
-0.00128
-0.00506
-0.01203
-0.01474
-0.00746
0.01109
0.03684
0.06179
0.07742
0.07904
0.06871
0.05401
0.04270
0.03762
0.03579
0.03070
0.01533
-0.01430
-0.05590
-0.10140
-0.14159
-0.16999
-0.18444
-0.18891
-0.19121
-0.19064
-0.16733
-0.09385
0.03872
0.21284
0.39933
0.56287
0.65076
0.60328
0.40264
0.10824
-0.17665
-0.38027
-0.49793
-0.55651
-0.56322
-0.50201
-0.36870
-0.19042
-0.00869
0.14513
0.25598
0.31900
0.33591
0.31384
0.26263
0.19296
0.11699
0.04732
-0.00712
-0.04385
-0.06579
-0.07877
-0.08923
-0.10091
-0.11210
-0.11671
-0.10884
-0.08676
-0.05408
-0.01860
0.01053
0.02685
0.02997
0.02572
0.02263
0.02688
0.03865
0.05208
0.05885
0.05356
0.03722
0.01603
-0.00303
-0.01498
-0.01735
-0.01112
-0.00225
0.00071
-0.00693
-0.02182
-0.03514
-0.03882
-0.03013
-0.01258
0.00621
0.01809
0.01832
0.00834
-0.00484
-0.01284
-0.01101
-0.00047
0.01326
0.02344
0.02498
0.01677
0.00254
-0.01048
-0.01532
-0.00978
0.00199
0.01241
0.01545
0.00927
-0.00371
-0.01734
-0.02392
-0.01886
-0.00476
0.01009
0.01750
0.01429
0.00324
-0.00924
-0.01685
-0.01607
-0.00694
0.00693
0.01866
0.02106
0.01195
-0.00337
-0.01571
-0.01816
-0.00976
0.00477
0.01751
0.02122
0.01357
-0.00115
-0.01487
-0.02064
-0.01580
-0.00296
0.01078
0.01738
0.01312
0.00077
-0.01291
-0.02089
-0.01872
-0.00702
0.00815
0.01882
0.01989
0.01121
-0.00272
-0.01429
-0.01642
-0.00739
0.00755
0.01962
0.02201
0.01329
-0.00228
-0.01682
-0.02292
-0.01807
-0.00592
0.00681
0.01432
0.01335
0.00384
-0.00974
-0.01909
-0.01754
-0.00553
0.00993
0.02080
0.02228
0.01364
-0.00138
-0.01467
-0.01800
-0.00942
0.00507
0.01696
0.02052
0.01386
-0.00112
-0.01768
-0.02645
-0.02214
-0.00789
0.00744
0.01544
0.01254
0.00117
-0.01188
-0.01914
-0.01634
-0.00405
0.01264
0.02598
0.02909
0.02026
0.00471
-0.00857
-0.01270
-0.00663
0.00514
0.01520
0.01645
0.00587
-0.01268
-0.02997
-0.03717
-0.03116
-0.01536
0.00287
0.01545
0.01690
0.00773
-0.00496
-0.01198
-0.00841
0.00370
0.01790
0.02728
0.02718
0.01727
0.00267
-0.00798
-0.00788
0.00307
0.01792
0.02707
0.02416
0.00902
-0.01285
-0.03301
-0.04362
-0.04143
-0.02957
-0.01553
-0.00692
-0.00792
-0.01710
-0.02749
-0.03044
-0.02137
-0.00252
0.01972
0.03895
0.05066
0.05301
0.04829
0.04306
0.04402
0.05246
0.06305
0.06760
0.05951
0.03628
0.00061
-0.03991
-0.07626
-0.10338
-0.12245
-0.13783
-0.15362
-0.17418
-0.20150
-0.22285
-0.20452
-0.11441
0.04366
0.23071
0.40963
0.55927
0.64322
0.59960
0.39970
0.10545
-0.16869
-0.35431
-0.46501
-0.53709
-0.56869
-0.52992
-0.40835
-0.22567
-0.02179
0.16209
0.29255
0.35317
0.35003
0.30430
0.23846
0.16886
0.10581
0.05438
0.01381
-0.02103
-0.05497
-0.08803
-0.11491
-0.12917
-0.12787
-0.11236
-0.08666
-0.05674
-0.03008
-0.01306
-0.00655
-0.00439
0.00231
0.01796
0.03892
0.05721
0.06637
0.06347
0.04870
0.02693
0.00802
0.00060
0.00454
0.01144
0.01253
0.00462
-0.01000
-0.02630
-0.03832
-0.04094
-0.03238
-0.01601
0.00047
0.00901
0.00644
-0.00318
-0.01170
-0.01297
-0.00577
0.00706
0.02019
0.02704
0.02297
0.00945
-0.00587
-0.01441
-0.01234
-0.00206
0.01022
0.01806
0.01755
0.00862
-0.00533
-0.01854
-0.02463
-0.01944
-0.00444
0.01222
0.02012
0.01423
-0.00113
-0.01589
-0.02172
-0.01639
-0.00306
0.01219
0.02216
0.02110
0.00885
-0.00755
-0.01832
-0.01803
-0.00814
0.00598
0.01793
0.02163
0.01403
-0.00129
-0.01516
-0.01928
-0.01210
0.00098
0.01192
0.01479
0.00811
-0.00488
-0.01751
-0.02212
-0.01467
0.00120
0.01575
0.02089
0.01570
0.00460
-0.00708
-0.01445
-0.01339
-0.00337
0.01037
0.01968
0.01893
0.00778
-0.00910
-0.02338
-0.02654
-0.01577
0.00280
0.01805
0.02201
0.01414
-0.00016
-0.01331
-0.01872
-0.01353
-0.00034
0.01387
0.02123
0.01715
0.00319
-0.01300
-0.02190
-0.01859
-0.00601
0.00792
0.01621
0.01598
0.00843
-0.00238
-0.01102
-0.01293
-0.00629
0.00640
0.01774
0.01905
0.00780
-0.00921
-0.02217
-0.02622
-0.02131
-0.00878
0.00738
0.01874
0.01805
0.00689
-0.00543
-0.01039
-0.00590
0.00483
0.01695
0.02565
0.02657
0.01733
0.00029
-0.01661
-0.02454
-0.02083
-0.01094
-0.00282
-0.00062
-0.00422
-0.01184
-0.02013
-0.02344
-0.01683
-0.00090
0.01733
0.02911
0.02935
0.01873
0.00293
-0.00956
-0.01124
-0.00037
0.01712
0.03092
0.03303
0.02233
0.00423
-0.01325
-0.02302
-0.02144
-0.01095
-0.00028
0.00109
-0.00962
-0.02672
-0.04114
-0.04593
-0.03899
-0.02353
-0.00595
0.00786
0.01459
0.01386
0.00930
0.00857
0.01851
0.03888
0.06188
0.07779
0.08083
0.07071
0.05139
0.02922
0.01074
-0.00090
-0.00898
-0.02152
-0.04556
-0.08246
-0.12656
-0.16665
-0.19208
-0.20107
-0.19887
-0.18271
-0.13479
-0.03900
0.09940
0.25930
0.42027
0.55578
0.61434
0.53766
0.31861
0.02978
-0.22714
-0.40004
-0.50146
-0.55398
-0.54847
-0.46427
-0.30870
-0.12032
0.05671
0.19175
0.27190
0.30156
0.29683
0.27301
0.23602
0.18538
0.12198
0.05186
-0.01461
-0.06623
-0.09611
-0.10510
-0.10048
-0.09189
-0.08703
-0.08800
-0.08987
-0.08396
-0.06461
-0.03363
0.00105
0.03037
0.04827
0.05283
0.04614
0.03442
0.02622
0.02717
0.03532
0.04268
0.04153
0.02929
0.00921
-0.01145
-0.02490
-0.02729
-0.02056
-0.01014
-0.00198
-0.00103
-0.00908
-0.02192
-0.03085
-0.02931
-0.01763
-0.00140
0.01271
0.01957
0.01705
0.00740
-0.00336
-0.00869
-0.00513
0.00607
0.01939
0.02730
0.02427
0.01044
-0.00777
-0.02113
-0.02296
-0.01304
0.00241
0.01439
0.01605
0.00630
-0.00925
-0.02126
-0.02234
-0.01187
0.00382
0.01608
0.01942
0.01354
0.00152
-0.01186
-0.01997
-0.01669
-0.00221
0.01467
0.02313
0.01883
0.00527
-0.01038
-0.02052
-0.01934
-0.00646
0.01099
0.02231
0.02080
0.00802
-0.00814
-0.01902
-0.01994
-0.01165
0.00133
0.01287
0.01717
0.01160
-0.00104
-0.01379
-0.01961
-0.01493
-0.00162
0.01291
0.01985
0.01571
0.00441
-0.00752
-0.01512
-0.01481
-0.00515
0.00957
0.01987
0.01860
0.00715
-0.00711
-0.01724
-0.01943
-0.01258
0.00085
0.01375
0.01761
0.00943
-0.00533
-0.01725
-0.02005
-0.01327
-0.00043
0.01307
0.02142
0.02059
0.01078
-0.00303
-0.01325
-0.01380
-0.00416
0.00934
0.01732
0.01422
0.00199
-0.01265
-0.02330
-0.02574
-0.01813
-0.00286
0.01227
0.01818
0.01193
-0.00087
-0.01138
-0.01401
-0.00788
0.00498
0.01987
0.02957
0.02790
0.01500
-0.00181
-0.01332
-0.01460
-0.00722
0.00264
0.00758
0.00279
-0.01044
-0.02488
-0.03256
-0.03013
-0.01910
-0.00314
0.01263
0.02193
0.02097
0.01222
0.00248
-0.00266
-0.00132
0.00581
0.01569
0.02272
0.02192
0.01336
0.00238
-0.00472
-0.00464
0.00145
0.00872
0.01116
0.00507
-0.00897
-0.02630
-0.04003
-0.04413
-0.03716
-0.02372
-0.01136
-0.00554
-0.00706
-0.01273
-0.01688
-0.01336
0.00123
0.02448
0.04889
0.06649
0.07283
0.06823
0.05729
0.04692
0.04235
0.04317
0.04283
0.03267
0.00765
-0.03032
-0.07403
-0.11547
-0.14841
-0.16875
-0.17725
-0.18248
-0.19243
-0.19609
-0.16127
-0.06318
0.08875
0.26377
0.43899
0.59052
0.66060
0.57657
0.32932
0.01054
-0.25769
-0.42211
-0.50869
-0.55179
-0.54664
-0.47199
-0.32983
-0.14964
0.03201
0.18516
0.28974
0.33851
0.33777
0.30059
0.23938
0.16522
0.09047
0.02708
-0.01856
-0.04770
-0.06630
-0.08077
-0.09518
-0.10961
-0.11958
-0.11845
-0.10190
-0.07143
-0.03455
-0.00214
0.01698
0.02163
0.01889
0.01809
0.02425
0.03677
0.05132
0.06123
0.05992
0.04539
0.02252
0.00022
-0.01351
-0.01526
-0.00798
0.00079
0.00386
-0.00188
-0.01519
-0.03053
-0.03914
-0.03454
-0.01858
-0.00015
0.01190
0.01337
0.00521
-0.00683
-0.01454
-0.01242
-0.00106
0.01436
0.02697
0.03056
0.02254
0.00656
-0.00900
-0.01639
-0.01287
-0.00151
0.01056
0.01570
0.01031
-0.00255
-0.01549
-0.02189
-0.01904
-0.00840
0.00503
0.01435
0.01462
0.00608
-0.00639
-0.01611
-0.01730
-0.00795
0.00793
0.02149
0.02451
0.01507
-0.00122
-0.01538
-0.02058
-0.01498
-0.00168
0.01248
0.01961
0.01552
0.00273
-0.01145
-0.01958
-0.01741
-0.00567
0.00945
0.01907
0.01729
0.00533
-0.00987
-0.02017
-0.02030
-0.01030
0.00461
0.01716
0.02172
0.01599
0.00205
-0.01292
-0.01995
-0.01496
-0.00190
0.01132
0.01831
0.01614
0.00540
-0.00921
-0.01990
-0.01969
-0.00726
0.01090
0.02351
0.02213
0.00769
-0.01052
-0.02242
-0.02318
-0.01370
0.00135
0.01480
0.01950
0.01283
-0.00111
-0.01412
-0.01866
-0.01171
0.00339
0.01838
0.02495
0.01982
0.00615
-0.00883
-0.01771
-0.01661
-0.00721
0.00446
0.01170
0.01036
0.00032
-0.01395
-0.02452
-0.02429
-0.01230
0.00529
0.01933
0.02321
0.01615
0.00308
-0.00814
-0.01088
-0.00328
0.01048
0.02229
0.02522
0.01790
0.00413
-0.01083
-0.02213
-0.02525
-0.01848
-0.00625
0.00296
0.00331
-0.00467
-0.01558
-0.02233
-0.01950
-0.00695
0.00969
0.02318
0.02878
0.02472
0.01203
-0.00405
-0.01475
-0.01292
0.00142
0.02020
0.03215
0.03039
0.01690
-0.00040
-0.01398
-0.01930
-0.01454
-0.00313
0.00473
-0.00043
-0.01720
-0.03494
-0.04498
-0.04558
-0.03707
-0.02015
-0.00046
0.01194
0.01188
0.00486
0.00140
0.00830
0.02600
0.05030
0.07344
0.08634
0.08369
0.06777
0.04651
0.02738
0.01311
0.00187
-0.01030
-0.02842
-0.05787
-0.10052
-0.14915
-0.18894
-0.20943
-0.21396
-0.20958
-0.18663
-0.11990
0.00233
0.16120
0.32859
0.48875
0.61633
0.64810
0.52036
0.24811
-0.06460
-0.31435
-0.47593
-0.57432
-0.61213
-0.56330
-0.42456
-0.23493
-0.04289
0.12089
0.23926
0.30306
0.31783
0.30178
0.26948
0.22351
0.16312
0.09373
0.02545
-0.03288
-0.07545
-0.09943
-0.10641
-0.10314
-0.09813
-0.09632
-0.09647
-0.09285
-0.07944
-0.05383
-0.01950
0.01499
0.04054
0.05267
0.05280
0.04551
0.03642
0.03124
0.03298
0.03870
0.04128
0.03537
0.02039
-0.00061
-0.02142
-0.03334
-0.03061
-0.01659
-0.00174
0.00484
0.00019
-0.01306
-0.02773
-0.03415
-0.02679
-0.00933
0.00912
0.02119
0.02311
0.01411
-0.00140
-0.01390
-0.01562
-0.00645
0.00821
0.02209
0.02901
0.02410
0.00876
-0.00758
-0.01473
-0.01071
-0.00187
0.00449
0.00525
0.00066
-0.00767
-0.01652
-0.02108
-0.01742
-0.00579
0.00888
0.01951
0.02067
0.01145
-0.00332
-0.01488
-0.01615
-0.00677
0.00734
0.01848
0.02070
0.01197
-0.00349
-0.01655
-0.01986
-0.01321
-0.00131
0.01068
0.01783
0.01560
0.00382
-0.01104
-0.02018
-0.01867
-0.00724
0.00845
0.01923
0.01766
0.00476
-0.01038
-0.01868
-0.01695
-0.00678
0.00787
0.02058
0.02418
0.01530
-0.00230
-0.01912
-0.02493
-0.01540
0.00359
0.01936
0.02245
0.01323
-0.00159
-0.01540
-0.02317
-0.02064
-0.00753
0.00952
0.02078
0.02067
0.01023
-0.00506
-0.01760
-0.02027
-0.01117
0.00396
0.01585
0.01849
0.01163
-0.00091
-0.01305
-0.01801
-0.01187
0.00266
0.01698
0.02245
0.01626
0.00205
-0.01317
-0.02200
-0.01945
-0.00667
0.00822
0.01597
0.01350
0.00424
-0.00722
-0.01728
-0.02143
-0.01560
-0.00133
0.01344
0.02051
0.01712
0.00613
-0.00634
-0.01276
-0.00773
0.00700
0.02219
0.02780
0.02032
0.00390
-0.01362
-0.02475
-0.02504
-0.01515
-0.00130
0.00762
0.00553
-0.00611
-0.01889
-0.02405
-0.01888
-0.00662
0.00808
0.02106
0.02766
0.02396
0.01062
-0.00574
-0.01584
-0.01294
0.00299
0.02361
0.03618
0.03281
0.01678
-0.00158
-0.01384
-0.01703
-0.01203
-0.00317
0.00190
-0.00364
-0.01969
-0.03848
-0.05021
-0.04933
-0.03639
-0.01643
0.00306
0.01431
0.01362
0.00555
0.00100
0.00869
0.02868
0.05414
0.07661
0.08866
0.08526
0.06739
0.04312
0.02207
0.00837
-0.00082
-0.01169
-0.03039
-0.06120
-0.10412
-0.15171
-0.19025
-0.20969
-0.21290
-0.20644
-0.18008
-0.10891
0.01551
0.17072
0.33163
0.49058
0.62222
0.65103
0.50551
0.21292
-0.10224
-0.33267
-0.46899
-0.55178
-0.58619
-0.54183
-0.41229
-0.23328
-0.04831
0.11406
0.23396
0.29924
0.31550
0.30129
0.26979
0.22303
0.16171
0.09205
0.02317
-0.03609
-0.07818
-0.09945
-0.10343
-0.09922
-0.09544
-0.09490
-0.09431
-0.08841
-0.07429
-0.05203
-0.02316
0.00888
0.03681
0.05190
0.05091
0.03992
0.02980
0.02813
0.03495
0.04440
0.04887
0.04271
0.02473
-0.00029
-0.02269
-0.03322
-0.02959
-0.01758
-0.00589
-0.00079
-0.00478
-0.01633
-0.02898
-0.03366
-0.02519
-0.00680
0.01242
0.02401
0.02417
0.01420
-0.00052
-0.01193
-0.01310
-0.00291
0.01258
0.02414
0.02508
0.01473
-0.00158
-0.01572
-0.02114
-0.01563
-0.00204
0.01260
0.01985
0.01466
-0.00079
-0.01777
-0.02626
-0.02137
-0.00644
0.00983
0.01952
0.01905
0.00912
-0.00559
-0.01721
-0.01855
-0.00822
0.00781
0.01989
0.02087
0.01049
-0.00494
-0.01718
-0.02057
-0.01361
0.00096
0.01626
0.02359
0.01811
0.00296
-0.01305
-0.02161
-0.01914
-0.00741
0.00740
0.01730
0.01681
0.00631
-0.00839
-0.01925
-0.01994
-0.00917
0.00795
0.02203
0.02481
0.01439
-0.00355
-0.01915
-0.02393
-0.01529
0.00167
0.01688
0.02188
0.01521
0.00172
-0.01191
-0.01994
-0.01825
-0.00652
0.00934
0.01977
0.01847
0.00679
-0.00832
-0.01922
-0.02099
-0.01259
0.00280
0.01779
0.02354
0.01562
-0.00161
-0.01722
-0.02146
-0.01225
0.00420
0.01823
0.02288
0.01689
0.00374
-0.01084
-0.02060
-0.02049
-0.00975
0.00591
0.01666
0.01530
0.00287
-0.01245
-0.02181
-0.02094
-0.01065
0.00461
0.01777
0.02187
0.01483
0.00156
-0.00952
-0.01193
-0.00383
0.01138
0.02559
0.02953
0.01930
-0.00011
-0.01864
-0.02851
-0.02769
-0.01858
-0.00603
0.00382
0.00579
-0.00126
-0.01303
-0.02146
-0.01933
-0.00547
0.01380
0.02869
0.03190
0.02239
0.00554
-0.00986
-0.01623
-0.01021
0.00621
0.02537
0.03643
0.03241
0.01573
-0.00427
-0.01880
-0.02359
-0.01873
-0.00914
-0.00357
-0.00867
-0.02271
-0.03751
-0.04556
-0.04349
-0.03089
-0.01096
0.00842
0.01887
0.01849
0.01322
0.01166
0.01955
0.03718
0.05966
0.07932
0.08865
0.08265
0.06147
0.03265
0.00753
-0.00814
-0.01883
-0.03296
-0.05546
-0.08809
-0.13004
-0.17372
-0.20678
-0.22331
-0.22381
-0.19882
-0.12666
-0.00030
0.15642
0.31463
0.46573
0.59442
0.64028
0.53220
0.27573
-0.02861
-0.27656
-0.44339
-0.55528
-0.61219
-0.58160
-0.45434
-0.26645
-0.06626
0.11160
0.24184
0.30842
0.31750
0.29442
0.26043
0.21967
0.16845
0.10746
0.04271
-0.01874
-0.07001
-0.10471
-0.11929
-0.11565
-0.10118
-0.08596
-0.07735
-0.07498
-0.07109
-0.05761
-0.03294
-0.00220
0.02691
0.04717
0.05410
0.04852
0.03682
0.02719
0.02498
0.03055
0.03926
0.04347
0.03688
0.01880
-0.00504
-0.02593
-0.03660
-0.03407
-0.02112
-0.00619
0.00088
-0.00388
-0.01550
-0.02527
-0.02742
-0.02024
-0.00523
0.01202
0.02314
0.02294
0.01309
-0.00044
-0.01105
-0.01281
-0.00315
0.01338
0.02659
0.02786
0.01608
-0.00231
-0.01759
-0.02232
-0.01540
-0.00178
0.01104
0.01632
0.01056
-0.00391
-0.01883
-0.02496
-0.01857
-0.00350
0.01193
0.01986
0.01706
0.00621
-0.00676
-0.01614
-0.01723
-0.00737
0.00976
0.02329
0.02370
0.01178
-0.00380
-0.01585
-0.02102
-0.01653
-0.00219
0.01409
0.02024
0.01199
-0.00307
-0.01449
-0.01745
-0.01217
-0.00100
0.01144
0.01893
0.01704
0.00555
-0.01081
-0.02282
-0.02190
-0.00810
0.00901
0.01936
0.01971
0.01168
-0.00174
-0.01498
-0.01984
-0.01169
0.00486
0.01868
0.02088
0.01107
-0.00377
-0.01541
-0.01943
-0.01524
-0.00425
0.00953
0.01876
0.01689
0.00461
-0.00996
-0.01822
-0.01675
-0.00691
0.00713
0.01828
0.01888
0.00745
-0.00842
-0.01859
-0.01811
-0.00808
0.00694
0.01981
0.02302
0.01394
-0.00231
-0.01632
-0.02072
-0.01379
0.00048
0.01454
0.02085
0.01590
0.00220
-0.01327
-0.02300
-0.02252
-0.01236
0.00217
0.01334
0.01520
0.00733
-0.00481
-0.01367
-0.01420
-0.00584
0.00820
0.02183
0.02792
0.02230
0.00744
-0.00817
-0.01579
-0.01236
-0.00153
0.00977
0.01483
0.00932
-0.00613
-0.02450
-0.03583
-0.03382
-0.01954
0.00011
0.01631
0.02172
0.01424
-0.00019
-0.01041
-0.00890
0.00190
0.01389
0.02195
0.02511
0.02177
0.01078
-0.00237
-0.00756
-0.00107
0.01044
0.01823
0.01827
0.00933
-0.00838
-0.02953
-0.04411
-0.04557
-0.03607
-0.02267
-0.01173
-0.00753
-0.01153
-0.01993
-0.02437
-0.01766
0.00081
0.02514
0.04732
0.06143
0.06517
0.06001
0.05109
0.04557
0.04791
0.05533
0.05871
0.04888
0.02241
-0.01711
-0.06167
-0.10303
-0.13557
-0.15657
-0.16680
-0.17392
-0.18926
-0.20990
-0.20506
-0.13624
0.00328
0.18231
0.36746
0.53946
0.65952
0.65292
0.47111
0.16606
-0.13641
-0.34618
-0.46612
-0.53886
-0.57311
-0.54219
-0.43121
-0.25925
-0.06290
0.12181
0.26388
0.34292
0.35836
0.32694
0.26830
0.19614
0.12122
0.05481
0.00519
-0.02718
-0.04923
-0.06972
-0.09264
-0.11429
-0.12668
-0.12402
-0.10627
-0.07790
-0.04559
-0.01708
0.00100
0.00732
0.00795
0.01204
0.02420
0.04163
0.05774
0.06656
0.06390
0.04877
0.02594
0.00486
-0.00659
-0.00739
-0.00229
0.00239
0.00159
-0.00687
-0.02074
-0.03383
-0.03952
-0.03435
-0.01954
-0.00106
0.01210
0.01321
0.00343
-0.00868
-0.01416
-0.00970
0.00243
0.01703
0.02752
0.02802
0.01742
0.00121
-0.01168
-0.01456
-0.00696
0.00521
0.01366
0.01340
0.00520
-0.00676
-0.01799
-0.02390
-0.01990
-0.00560
0.01153
0.02054
0.01634
0.00316
-0.01037
-0.01714
-0.01412
-0.00295
0.01051
0.01914
0.01843
0.00881
-0.00491
-0.01602
-0.01906
-0.01210
0.00196
0.01563
0.02029
0.01251
-0.00267
-0.01563
-0.01942
-0.01321
-0.00082
0.01194
0.01939
0.01770
0.00663
-0.00942
-0.02186
-0.02237
-0.00970
0.00803
0.01951
0.01884
0.00815
-0.00586
-0.01614
-0.01749
-0.00871
0.00587
0.01796
0.02048
0.01203
-0.00245
-0.01492
-0.01899
-0.01333
-0.00151
0.01063
0.01726
0.01443
0.00270
-0.01167
-0.02025
-0.01798
-0.00581
0.01036
0.02202
0.02212
0.00997
-0.00743
-0.02026
-0.02205
-0.01230
0.00377
0.01709
0.01955
0.00999
-0.00479
-0.01583
-0.01799
-0.01096
0.00217
0.01567
0.02259
0.01887
0.00674
-0.00696
-0.01562
-0.01621
-0.00941
0.00127
0.01047
0.01292
0.00640
-0.00644
-0.01901
-0.02402
-0.01765
-0.00231
0.01385
0.02162
0.01708
0.00436
-0.00776
-0.01180
-0.00537
0.00814
0.02115
0.02601
0.01966
0.00529
-0.01009
-0.01972
-0.02022
-0.01262
-0.00160
0.00645
0.00580
-0.00516
-0.02070
-0.02984
-0.02510
-0.00942
0.00749
0.01835
0.02154
0.01785
0.00890
-0.00099
-0.00557
-0.00134
0.00984
0.02264
0.03099
0.02985
0.01813
0.00097
-0.01279
-0.01688
-0.01180
-0.00389
-0.00094
-0.00739
-0.02171
-0.03776
-0.04874
-0.05010
-0.04055
-0.02262
-0.00253
0.01241
0.01806
0.01610
0.01297
0.01602
0.02913
0.05017
0.07195
0.08580
0.08537
0.06960
0.04408
0.01862
0.00065
-0.01002
-0.01996
-0.03661
-0.06435
-0.10265
-0.14446
-0.17823
-0.19642
-0.20139
-0.19618
-0.16957
-0.10105
0.01525
0.16308
0.32419
0.48453
0.60563
0.61538
0.46501
0.19408
-0.09004
-0.30358
-0.43814
-0.52212
-0.56051
-0.53034
-0.41933
-0.24833
-0.05895
0.10860
0.22829
0.29264
0.31102
0.29978
0.26990
0.22355
0.16164
0.09110
0.02281
-0.03475
-0.07706
-0.10124
-0.10703
-0.10036
-0.09180
-0.08865
-0.08935
-0.08642
-0.07385
-0.05104
-0.02160
0.00900
0.03443
0.04877
0.04962
0.04055
0.02987
0.02583
0.03129
0.04146
0.04690
0.04052
0.02271
0.00034
-0.01844
-0.02808
-0.02663
-0.01627
-0.00369
0.00265
-0.00190
-0.01480
-0.02827
-0.03424
-0.02852
-0.01296
0.00541
0.01826
0.02057
0.01290
0.00068
-0.00849
-0.00871
0.00074
0.01457
0.02472
0.02560
0.01693
0.00264
-0.01156
-0.01962
-0.01742
-0.00632
0.00656
0.01336
0.01058
-0.00022
-0.01387
-0.02284
-0.02051
-0.00668
0.01070
0.02134
0.02008
0.00905
-0.00538
-0.01621
-0.01833
-0.01076
0.00250
0.01445
0.01874
0.01300
0.00039
-0.01189
-0.01680
-0.01156
0.00084
0.01328
0.01875
0.01430
0.00218
-0.01169
-0.01998
-0.01739
-0.00479
0.01015
0.01841
0.01607
0.00554
-0.00775
-0.01808
-0.02061
-0.01324
0.00113
0.01501
0.02051
0.01438
0.00026
-0.01352
-0.01888
-0.01256
0.00218
0.01726
0.02421
0.01912
0.00480
-0.01110
-0.02056
-0.01947
-0.00922
0.00457
0.01483
0.01594
0.00651
-0.00869
-0.02051
-0.02134
-0.01073
0.00491
0.01734
0.02100
0.01461
0.00146
-0.01145
-0.01672
-0.01106
0.00223
0.01515
0.02008
0.01458
0.00200
-0.01148
-0.01974
-0.01835
-0.00705
0.00803
0.01738
0.01544
0.00434
-0.00903
-0.01794
-0.01820
-0.00960
0.00330
0.01336
0.01537
0.00861
-0.00371
-0.01549
-0.01960
-0.01228
0.00349
0.01975
0.02858
0.02591
0.01344
-0.00175
-0.01117
-0.01076
-0.00315
0.00550
0.00961
0.00582
-0.00628
-0.02255
-0.03469
-0.03527
-0.02315
-0.00384
0.01415
0.02315
0.01968
0.00757
-0.00357
-0.00601
0.00013
0.00929
0.01690
0.02094
0.01966
0.01210
0.00171
-0.00411
-0.00065
0.00894
0.01665
0.01669
0.00793
-0.00816
-0.02778
-0.04386
-0.04898
-0.04123
-0.02599
-0.01181
-0.00502
-0.00700
-0.01410
-0.01942
-0.01616
-0.00136
0.02204
0.04629
0.06289
0.06763
0.06278
0.05460
0.04865
0.04725
0.04951
0.05094
0.04353
0.01998
-0.01938
-0.06524
-0.10657
-0.13795
-0.15881
-0.17019
-0.17708
-0.18819
-0.20145
-0.19041
-0.11982
0.01901
0.19877
0.38455
0.55063
0.65610
0.63299
0.44129
0.13484
-0.16495
-0.37224
-0.48852
-0.54970
-0.56128
-0.50594
-0.38476
-0.22209
-0.04443
0.12430
0.25690
0.33208
0.34844
0.32027
0.26332
0.19039
0.11501
0.05002
0.00181
-0.03104
-0.05391
-0.07264
-0.09128
-0.10972
-0.12285
-0.12360
-0.10832
-0.07965
-0.04513
-0.01379
0.00716
0.01539
0.01517
0.01513
0.02242
0.03756
0.05432
0.06420
0.06174
0.04687
0.02452
0.00262
-0.01104
-0.01277
-0.00536
0.00351
0.00590
-0.00155
-0.01585
-0.02986
-0.03666
-0.03304
-0.02059
-0.00471
0.00776
0.01171
0.00640
-0.00385
-0.01190
-0.01191
-0.00292
0.01075
0.02253
0.02695
0.02144
0.00752
-0.00819
-0.01645
-0.01222
0.00060
0.01251
0.01637
0.01120
0.00004
-0.01262
-0.02111
-0.01973
-0.00742
0.00886
0.01836
0.01534
0.00290
-0.01148
-0.02115
-0.02160
-0.01137
0.00530
0.01930
0.02297
0.01552
0.00230
-0.00967
-0.01517
-0.01209
-0.00204
0.00984
0.01687
0.01459
0.00409
-0.00838
-0.01581
-0.01463
-0.00574
0.00663
0.01608
0.01646
0.00631
-0.00877
-0.01995
-0.02146
-0.01314
0.00075
0.01330
0.01776
0.01210
0.00057
-0.00990
-0.01404
-0.00957
0.00234
0.01596
0.02279
0.01749
0.00281
-0.01233
-0.01974
-0.01695
-0.00677
0.00559
0.01433
0.01472
0.00569
-0.00823
-0.01871
-0.01903
-0.00892
0.00555
0.01660
0.01905
0.01179
-0.00185
-0.01453
-0.01877
-0.01249
0.00003
0.01243
0.01958
0.01778
0.00640
-0.00913
-0.01899
-0.01670
-0.00439
0.00992
0.01857
0.01778
0.00803
-0.00611
-0.01750
-0.02009
-0.01252
0.00086
0.01247
0.01575
0.00884
-0.00484
-0.01851
-0.02471
-0.01888
-0.00288
0.01503
0.02532
0.02348
0.01220
-0.00118
-0.00895
-0.00695
0.00325
0.01520
0.02152
0.01815
0.00572
-0.01152
-0.02698
-0.03354
-0.02760
-0.01273
0.00225
0.00946
0.00631
-0.00416
-0.01492
-0.01793
-0.00909
0.00844
0.02596
0.03428
0.02867
0.01196
-0.00616
-0.01528
-0.01126
0.00250
0.01904
0.03083
0.03108
0.01740
-0.00437
-0.02272
-0.02940
-0.02513
-0.01659
-0.01009
-0.00912
-0.01535
-0.02785
-0.04037
-0.04338
-0.03205
-0.01121
0.00934
0.02301
0.02892
0.02948
0.02873
0.03150
0.04117
0.05711
0.07392
0.08304
0.07739
0.05658
0.02724
-0.00266
-0.02847
-0.04880
-0.06518
-0.08336
-0.11020
-0.14613
-0.18392
-0.21568
-0.23384
-0.22240
-0.15880
-0.03584
0.12488
0.29268
0.45119
0.58238
0.63557
0.54902
0.31999
0.03038
-0.22008
-0.39396
-0.51259
-0.59031
-0.60286
-0.52047
-0.34861
-0.12960
0.08179
0.24028
0.32370
0.33845
0.31023
0.26455
0.21472
0.16463
0.11478
0.06366
0.00933
-0.04577
-0.09303
-0.12291
-0.13132
-0.12146
-0.10139
-0.08027
-0.06461
-0.05570
-0.04963
-0.04001
-0.02216
0.00353
0.03130
0.05328
0.06332
0.05942
0.04485
0.02807
0.01884
0.02112
0.02975
0.03535
0.03170
0.01800
-0.00308
-0.02585
-0.04189
-0.04428
-0.03313
-0.01606
-0.00290
0.00045
-0.00523
-0.01408
-0.01932
-0.01699
-0.00696
0.00758
0.02093
0.02679
0.02183
0.00848
-0.00563
-0.01205
-0.00700
0.00579
0.01783
0.02201
0.01631
0.00298
-0.01290
-0.02385
-0.02319
-0.01089
0.00512
0.01512
0.01447
0.00476
-0.00848
-0.01821
-0.01909
-0.01065
0.00271
0.01476
0.02019
0.01634
0.00491
-0.00806
-0.01546
-0.01343
-0.00326
0.00951
0.01737
0.01470
0.00207
-0.01280
-0.02033
-0.01612
-0.00320
0.01150
0.02121
0.02099
0.00943
-0.00854
-0.02272
-0.02463
-0.01367
0.00360
0.01815
0.02246
0.01404
-0.00215
-0.01624
-0.02034
-0.01328
0.00012
0.01253
0.01781
0.01374
0.00288
-0.00909
-0.01581
-0.01309
-0.00174
0.01208
0.02046
0.01862
0.00711
-0.00873
-0.02092
-0.02304
-0.01452
-0.00070
0.01162
0.01765
0.01493
0.00370
-0.01089
-0.01969
-0.01604
-0.00208
0.01261
0.01895
0.01473
0.00392
-0.00776
-0.01526
-0.01432
-0.00374
0.01136
0.02131
0.01965
0.00819
-0.00582
-0.01574
-0.01800
-0.01188
-0.00000
0.01109
0.01363
0.00438
-0.01169
-0.02433
-0.02548
-0.01453
0.00267
0.01819
0.02555
0.02186
0.00938
-0.00486
-0.01259
-0.00921
0.00325
0.01752
0.02556
0.02298
0.01072
-0.00591
-0.01981
-0.02559
-0.02242
-0.01390
-0.00508
-0.00011
-0.00137
-0.00839
-0.01668
-0.01944
-0.01233
0.00309
0.02030
0.03148
0.03109
0.01888
0.00106
-0.01248
-0.01439
-0.00427
0.01204
0.02625
0.03108
0.02335
0.00640
-0.01089
-0.01964
-0.01718
-0.00855
-0.00209
-0.00340
-0.01293
-0.02737
-0.04146
-0.04883
-0.04435
-0.02800
-0.00600
0.01278
0.02201
0.02082
0.01470
0.01356
0.02491
0.04637
0.06682
0.07649
0.07381
0.06223
0.04495
0.02527
0.00822
-0.00307
-0.01180
-0.02576
-0.05160
-0.09068
-0.13719
-0.17870
-0.20357
-0.21065
-0.20524
-0.18130
-0.11811
-0.00413
0.14574
0.30793
0.46862
0.60076
0.63772
0.51392
0.24558
-0.05987
-0.29565
-0.43792
-0.52224
-0.56617
-0.54723
-0.44610
-0.27969
-0.08852
0.08840
0.22290
0.30026
0.32333
0.30909
0.27503
0.22906
0.17198
0.10548
0.03594
-0.02719
-0.07479
-0.10145
-0.10842
-0.10344
-0.09597
-0.09184
-0.09147
-0.09067
-0.08255
-0.06176
-0.02957
0.00590
0.03516
0.05220
0.05540
0.04744
0.03568
0.02929
0.03276
0.04193
0.04744
0.04184
0.02413
-0.00004
-0.02141
-0.03195
-0.02950
-0.01842
-0.00613
0.00084
-0.00119
-0.01176
-0.02513
-0.03229
-0.02735
-0.01268
0.00348
0.01436
0.01801
0.01472
0.00577
-0.00407
-0.00738
-0.00060
0.01209
0.02286
0.02591
0.01897
0.00345
-0.01430
-0.02499
-0.02308
-0.01106
0.00376
0.01453
0.01677
0.00928
-0.00406
-0.01526
-0.01748
-0.00975
0.00309
0.01343
0.01482
0.00598
-0.00766
-0.01762
-0.01830
-0.00949
0.00464
0.01750
0.02253
0.01703
0.00412
-0.00967
-0.01810
-0.01699
-0.00589
0.00996
0.02114
0.02036
0.00769
-0.01010
-0.02385
-0.02603
-0.01453
0.00486
0.02092
0.02446
0.01458
-0.00185
-0.01554
-0.01977
-0.01297
0.00084
0.01370
0.01776
0.01035
-0.00377
-0.01591
-0.01973
-0.01425
-0.00200
0.01285
0.02400
0.02471
0.01305
-0.00494
-0.01877
-0.02074
-0.01074
0.00430
0.01510
0.01571
0.00630
-0.00775
-0.01886
-0.02092
-0.01268
0.00136
0.01385
0.01869
0.01373
0.00145
-0.01153
-0.01732
-0.01173
0.00235
0.01696
0.02435
0.02090
0.00810
-0.00798
-0.01915
-0.01994
-0.01116
0.00113
0.01001
0.01111
0.00391
-0.00842
-0.01995
-0.02418
-0.01710
-0.00056
0.01708
0.02577
0.02121
0.00771
-0.00583
-0.01164
-0.00672
0.00560
0.01742
0.02213
0.01865
0.00923
-0.00398
-0.01721
-0.02372
-0.01941
-0.00836
0.00078
0.00243
-0.00362
-0.01420
-0.02384
-0.02593
-0.01671
0.00137
0.02077
0.03310
0.03298
0.02060
0.00239
-0.01162
-0.01324
-0.00127
0.01738
0.03183
0.03377
0.02215
0.00321
-0.01363
-0.02143
-0.01927
-0.01169
-0.00532
-0.00566
-0.01469
-0.02936
-0.04261
-0.04721
-0.03934
-0.02065
0.00130
0.01612
0.01804
0.01119
0.00600
0.01045
0.02541
0.04652
0.06732
0.08084
0.08148
0.06828
0.04656
0.02512
0.00989
-0.00018
-0.01115
-0.02905
-0.05731
-0.09638
-0.14168
-0.18199
-0.20591
-0.21183
-0.20470
-0.17921
-0.11583
-0.00266
0.14752
0.31224
0.47585
0.60797
0.64032
0.50940
0.23619
-0.06889
-0.30105
-0.44077
-0.52490
-0.56850
-0.54655
-0.44008
-0.26855
-0.07507
0.09996
0.22835
0.29709
0.31301
0.29721
0.26725
0.22670
0.17243
0.10597
0.03552
-0.02854
-0.07688
-0.10377
-0.11015
-0.10394
-0.09523
-0.09023
-0.08870
-0.08602
-0.07666
-0.05665
-0.02569
0.01014
0.03943
0.05276
0.04990
0.03885
0.02885
0.02555
0.03004
0.03883
0.04490
0.04160
0.02719
0.00588
-0.01493
-0.02843
-0.03101
-0.02341
-0.01075
-0.00079
-0.00002
-0.00934
-0.02280
-0.03113
-0.02795
-0.01391
0.00441
0.01898
0.02413
0.01831
0.00491
-0.00842
-0.01326
-0.00608
0.00841
0.02060
0.02340
0.01641
0.00363
-0.00993
-0.01896
-0.01852
-0.00758
0.00815
0.01882
0.01734
0.00460
-0.01142
-0.02166
-0.02150
-0.01185
0.00249
0.01447
0.01761
0.01029
-0.00257
-0.01315
-0.01599
-0.01002
0.00198
0.01454
0.02119
0.01745
0.00408
-0.01215
-0.02190
-0.01939
-0.00623
0.01006
0.02082
0.02059
0.00966
-0.00603
-0.01805
-0.02003
-0.01085
0.00455
0.01721
0.01925
0.00926
-0.00687
-0.02022
-0.02394
-0.01598
0.00016
0.01652
0.02428
0.01904
0.00421
-0.01109
-0.01828
-0.01439
-0.00239
0.01138
0.01994
0.01839
0.00678
-0.00891
-0.01993
-0.02024
-0.00997
0.00498
0.01626
0.01758
0.00823
-0.00654
-0.01870
-0.02171
-0.01364
0.00163
0.01611
0.02224
0.01722
0.00386
-0.01109
-0.01945
-0.01575
-0.00158
0.01450
0.02311
0.02044
0.00880
-0.00641
-0.01884
-0.02235
-0.01425
0.00111
0.01387
0.01564
0.00574
-0.00897
-0.01962
-0.02086
-0.01286
0.00021
0.01292
0.02012
0.01788
0.00613
-0.00849
-0.01559
-0.00946
0.00581
0.02072
0.02790
0.02481
0.01256
-0.00448
-0.01883
-0.02361
-0.01780
-0.00704
0.00106
0.00201
-0.00448
-0.01551
-0.02554
-0.02768
-0.01780
0.00113
0.01999
0.02991
0.02764
0.01595
0.00137
-0.00801
-0.00621
0.00590
0.02074
0.03009
0.03004
0.02045
0.00414
-0.01203
-0.01989
-0.01705
-0.00920
-0.00440
-0.00703
-0.01703
-0.03107
-0.04289
-0.04557
-0.03632
-0.01913
-0.00181
0.00930
0.01236
0.00970
0.00635
0.00864
0.02143
0.04394
0.06785
0.08205
0.08109
0.06818
0.05019
0.03221
0.01717
0.00618
-0.00391
-0.02057
-0.05018
-0.09278
-0.14125
-0.18346
-0.20818
-0.21410
-0.20862
-0.19003
-0.13745
-0.03196
0.11737
0.28388
0.44980
0.59428
0.65933
0.57158
0.32328
0.00619
-0.26340
-0.43997
-0.54795
-0.60642
-0.59344
-0.48563
-0.30132
-0.09170
0.09418
0.22813
0.30239
0.32503
0.31301
0.28126
0.23583
0.17719
0.10814
0.03673
-0.02661
-0.07338
-0.09952
-0.10669
-0.10187
-0.09439
-0.09063
-0.09059
-0.08919
-0.08067
-0.06157
-0.03212
0.00233
0.03194
0.04824
0.05014
0.04323
0.03456
0.02988
0.03261
0.04115
0.04770
0.04367
0.02735
0.00488
-0.01540
-0.02767
-0.02905
-0.02005
-0.00648
0.00187
-0.00184
-0.01548
-0.03001
-0.03677
-0.03187
-0.01630
0.00442
0.02140
0.02706
0.02016
0.00594
-0.00735
-0.01225
-0.00568
0.00859
0.02168
0.02579
0.01906
0.00537
-0.00884
-0.01732
-0.01644
-0.00739
0.00382
0.01029
0.00884
0.00088
-0.00962
-0.01781
-0.01888
-0.01062
0.00372
0.01652
0.02060
0.01346
-0.00143
-0.01598
-0.02163
-0.01472
0.00106
0.01705
0.02446
0.01925
0.00475
-0.01046
-0.01848
-0.01623
-0.00541
0.00880
0.01884
0.01798
0.00546
-0.01165
-0.02288
-0.02162
-0.00907
0.00738
0.01890
0.01985
0.01032
-0.00432
-0.01654
-0.02044
-0.01410
-0.00033
0.01414
0.02148
0.01743
0.00469
-0.00879
-0.01563
-0.01329
-0.00394
0.00747
0.01499
0.01429
0.00525
-0.00775
-0.01779
-0.01847
-0.00830
0.00681
0.01736
0.01783
0.00917
-0.00438
-0.01727
-0.02265
-0.01579
0.00049
0.01644
0.02276
0.01654
0.00171
-0.01356
-0.02047
-0.01462
0.00065
0.01664
0.02518
0.02217
0.00852
-0.00951
-0.02239
-0.02317
-0.01232
0.00301
0.01372
0.01362
0.00278
-0.01200
-0.02155
-0.02066
-0.01071
0.00304
0.01519
0.02141
0.01891
0.00865
-0.00340
-0.00918
-0.00436
0.00838
0.02127
0.02624
0.01933
0.00288
-0.01579
-0.02865
-0.03100
-0.02304
-0.00930
0.00268
0.00573
-0.00198
-0.01468
-0.02292
-0.02022
-0.00627
0.01403
0.03216
0.03863
0.02894
0.00847
-0.01002
-0.01534
-0.00503
0.01421
0.03146
0.03774
0.02981
0.01036
-0.01362
-0.03264
-0.03842
-0.02987
-0.01538
-0.00663
-0.00923
-0.02023
-0.03274
-0.04039
-0.03861
-0.02615
-0.00688
0.01216
0.02541
0.03110
0.03072
0.02866
0.03130
0.04318
0.06227
0.08008
0.08678
0.07699
0.05229
0.01981
-0.01180
-0.03652
-0.05333
-0.06697
-0.08605
-0.11642
-0.15479
-0.19201
-0.22170
-0.23749
-0.22069
-0.14574
-0.00897
0.15955
0.32608
0.47971
0.60507
0.64353
0.52676
0.26357
-0.04054
-0.27526
-0.41669
-0.50696
-0.56841
-0.57346
-0.49055
-0.32641
-0.11966
0.08317
0.24033
0.32548
0.34021
0.31069
0.26520
0.21685
0.16681
0.11461
0.06030
0.00313
-0.05427
-0.10219
-0.12957
-0.13361
-0.12109
-0.10122
-0.08065
-0.06429
-0.05493
-0.04933
-0.03872
-0.01724
0.01162
0.03876
0.05709
0.06361
0.05766
0.04217
0.02542
0.01689
0.01948
0.02754
0.03227
0.02755
0.01240
-0.00866
-0.02728
-0.03613
-0.03336
-0.02255
-0.00956
-0.00070
-0.00077
-0.00960
-0.02085
-0.02642
-0.02178
-0.00751
0.01116
0.02582
0.02927
0.02040
0.00477
-0.00882
-0.01270
-0.00474
0.00957
0.02070
0.02178
0.01214
-0.00366
-0.01825
-0.02416
-0.01757
-0.00154
0.01484
0.02199
0.01604
0.00072
-0.01566
-0.02488
-0.02263
-0.01047
0.00516
0.01649
0.01830
0.01023
-0.00307
-0.01410
-0.01650
-0.00850
0.00613
0.01974
0.02459
0.01741
0.00162
-0.01464
-0.02328
-0.02034
-0.00754
0.00860
0.01971
0.01971
0.00854
-0.00751
-0.01953
-0.02098
-0.01080
0.00587
0.01948
0.02134
0.01010
-0.00695
-0.01977
-0.02225
-0.01387
0.00156
0.01654
0.02216
0.01457
-0.00052
-0.01250
-0.01511
-0.00913
0.00198
0.01410
0.02118
0.01766
0.00400
-0.01246
-0.02280
-0.02201
-0.01118
0.00351
0.01423
0.01570
0.00741
-0.00637
-0.01814
-0.02053
-0.01106
0.00574
0.02096
0.02642
0.01901
0.00269
-0.01313
-0.01914
-0.01228
0.00222
0.01517
0.01957
0.01363
-0.00000
-0.01527
-0.02437
-0.02199
-0.00933
0.00657
0.01741
0.01774
0.00714
-0.00899
-0.02161
-0.02369
-0.01454
0.00101
0.01620
0.02456
0.02195
0.00988
-0.00366
-0.00943
-0.00401
0.00848
0.02027
0.02456
0.01808
0.00231
-0.01666
-0.03059
-0.03320
-0.02388
-0.00897
0.00165
0.00183
-0.00634
-0.01579
-0.02045
-0.01688
-0.00361
0.01682
0.03585
0.04288
0.03352
0.01368
-0.00458
-0.01135
-0.00420
0.01198
0.02804
0.03420
0.02473
0.00214
-0.02324
-0.03980
-0.04217
-0.03333
-0.02090
-0.01192
-0.01023
-0.01643
-0.02787
-0.03788
-0.03772
-0.02280
0.00236
0.02708
0.04257
0.04646
0.04176
0.03502
0.03458
0.04537
0.06336
0.07752
0.07833
0.06341
0.03614
0.00230
-0.03140
-0.05909
-0.07942
-0.09724
-0.11892
-0.14597
-0.17589
-0.20717
-0.23375
-0.23176
-0.16685
-0.02853
0.15169
0.33078
0.48937
0.61174
0.64473
0.52429
0.25990
-0.04327
-0.27451
-0.40996
-0.49432
-0.55497
-0.56742
-0.49613
-0.33888
-0.12952
0.08159
0.24594
0.33418
0.34806
0.31356
0.25948
0.20244
0.14833
0.09924
0.05488
0.01127
-0.03562
-0.08288
-0.11981
-0.13636
-0.13127
-0.11113
-0.08456
-0.05960
-0.04300
-0.03666
-0.03438
-0.02574
-0.00513
0.02343
0.05026
0.06692
0.06926
0.05742
0.03692
0.01818
0.01009
0.01297
0.01984
0.02336
0.01932
0.00637
-0.01287
-0.03091
-0.03962
-0.03619
-0.02386
-0.00860
0.00283
0.00419
-0.00586
-0.02000
-0.02633
-0.01851
-0.00083
0.01702
0.02800
0.02948
0.02103
0.00563
-0.00849
-0.01262
-0.00521
0.00734
0.01686
0.01811
0.00979
-0.00491
-0.01874
-0.02405
-0.01762
-0.00279
0.01225
0.01914
0.01450
0.00160
-0.01269
-0.02166
-0.02065
-0.00904
0.00779
0.02029
0.02106
0.01008
-0.00548
-0.01622
-0.01647
-0.00737
0.00519
0.01537
0.01946
0.01496
0.00199
-0.01327
-0.02078
-0.01535
-0.00142
0.01169
0.01716
0.01315
0.00181
-0.01172
-0.02054
-0.01887
-0.00607
0.01126
0.02241
0.02038
0.00705
-0.00948
-0.02088
-0.02185
-0.01169
0.00445
0.01769
0.02143
0.01497
0.00188
-0.01189
-0.01877
-0.01358
0.00105
0.01575
0.02181
0.01630
0.00187
-0.01458
-0.02402
-0.02089
-0.00816
0.00565
0.01416
0.01552
0.00925
-0.00372
-0.01724
-0.02153
-0.01185
0.00629
0.02185
0.02650
0.01860
0.00258
-0.01335
-0.02085
-0.01600
-0.00173
0.01383
0.02168
0.01695
0.00209
-0.01440
-0.02373
-0.02195
-0.01086
0.00383
0.01472
0.01586
0.00630
-0.00854
-0.01977
-0.02053
-0.01026
0.00563
0.01967
0.02599
0.02194
0.00930
-0.00487
-0.01120
-0.00500
0.00914
0.02071
0.02187
0.01205
-0.00447
-0.02218
-0.03482
-0.03623
-0.02522
-0.00857
0.00381
0.00654
0.00081
-0.00834
-0.01437
-0.01123
0.00278
0.02210
0.03669
0.03880
0.02767
0.00938
-0.00632
-0.01100
-0.00292
0.01152
0.02284
0.02472
0.01556
-0.00246
-0.02314
-0.03769
-0.04042
-0.03286
-0.02128
-0.01207
-0.00996
-0.01672
-0.02825
-0.03513
-0.02962
-0.01200
0.01097
0.03163
0.04442
0.04686
0.04188
0.03759
0.04110
0.05241
0.06575
0.07464
0.07334
0.05695
0.02521
-0.01434
-0.05067
-0.07746
-0.09645
-0.11402
-0.13545
-0.16213
-0.19311
-0.22435
-0.23966
-0.20683
-0.09975
0.07066
0.26204
0.43979
0.58657
0.66427
0.60594
0.38527
0.07633
-0.19878
-0.38011
-0.49382
-0.57235
-0.59697
-0.53309
-0.38438
-0.18879
0.01458
0.19294
0.31398
0.35871
0.33798
0.28302
0.22052
0.16171
0.10889
0.06244
0.02079
-0.01991
-0.06170
-0.10054
-0.12775
-0.13612
-0.12512
-0.10082
-0.07188
-0.04626
-0.02956
-0.02281
-0.02077
-0.01460
0.00159
0.02610
0.05109
0.06746
0.06938
0.05692
0.03666
0.01855
0.00966
0.01002
0.01435
0.01646
0.01169
-0.00183
-0.02071
-0.03638
-0.04132
-0.03475
-0.02112
-0.00587
0.00520
0.00661
-0.00199
-0.01330
-0.01805
-0.01231
0.00139
0.01722
0.02809
0.02765
0.01474
-0.00351
-0.01560
-0.01457
-0.00305
0.01030
0.01809
0.01761
0.00976
-0.00235
-0.01408
-0.02031
-0.01728
-0.00519
0.00981
0.01790
0.01284
-0.00214
-0.01684
-0.02251
-0.01704
-0.00381
0.01136
0.02152
0.02074
0.00860
-0.00784
-0.01847
-0.01734
-0.00595
0.00907
0.02013
0.02183
0.01289
-0.00284
-0.01729
-0.02252
-0.01593
-0.00203
0.01113
0.01697
0.01310
0.00155
-0.01175
-0.01898
-0.01497
-0.00144
0.01368
0.02159
0.01806
0.00514
-0.01066
-0.02188
-0.02305
-0.01282
0.00467
0.02030
0.02491
0.01614
0.00016
-0.01367
-0.01868
-0.01260
0.00181
0.01603
0.01983
0.01022
-0.00558
-0.01747
-0.02065
-0.01553
-0.00425
0.00903
0.01752
0.01594
0.00524
-0.00807
-0.01649
-0.01548
-0.00526
0.00923
0.02065
0.02294
0.01438
-0.00113
-0.01534
-0.02023
-0.01356
-0.00023
0.01198
0.01727
0.01304
0.00031
-0.01507
-0.02410
-0.02114
-0.00878
0.00479
0.01258
0.01228
0.00495
-0.00622
-0.01522
-0.01475
-0.00203
0.01725
0.03232
0.03504
0.02460
0.00687
-0.00950
-0.01751
-0.01540
-0.00705
0.00100
0.00341
-0.00181
-0.01309
-0.02555
-0.03243
-0.02880
-0.01543
0.00141
0.01444
0.01961
0.01678
0.00867
0.00035
-0.00201
0.00535
0.01991
0.03348
0.03826
0.03211
0.01800
0.00073
-0.01409
-0.02100
-0.01833
-0.01049
-0.00505
-0.00759
-0.01904
-0.03482
-0.04610
-0.04514
-0.03179
-0.01384
-0.00027
0.00480
0.00250
-0.00274
-0.00406
0.00553
0.02773
0.05549
0.07700
0.08423
0.07756
0.06322
0.04772
0.03497
0.02616
0.01904
0.00694
-0.01732
-0.05452
-0.09834
-0.14108
-0.17577
-0.19555
-0.19921
-0.19481
-0.18547
-0.15319
-0.07246
0.05972
0.22378
0.40164
0.57028
0.66814
0.61194
0.38018
0.06005
-0.22026
-0.39793
-0.49444
-0.54584
-0.55036
-0.48732
-0.35667
-0.18432
-0.00399
0.15326
0.26285
0.31577
0.32309
0.30298
0.26374
0.20442
0.12913
0.05280
-0.00868
-0.04945
-0.07314
-0.08596
-0.09333
-0.10003
-0.10812
-0.11407
-0.11091
-0.09440
-0.06568
-0.02967
0.00608
0.03254
0.04404
0.04297
0.03743
0.03424
0.03590
0.04191
0.04895
0.05070
0.04167
0.02228
-0.00081
-0.01876
-0.02539
-0.02076
-0.01146
-0.00548
-0.00617
-0.01204
-0.02049
-0.02841
-0.03053
-0.02199
-0.00407
0.01466
0.02440
0.02092
0.00747
-0.00796
-0.01691
-0.01416
-0.00057
0.01643
0.02691
0.02516
0.01293
-0.00333
-0.01641
-0.02012
-0.01173
0.00438
0.01766
0.01916
0.00862
-0.00676
-0.01882
-0.02242
-0.01589
-0.00182
0.01227
0.01759
0.01111
-0.00186
-0.01268
-0.01570
-0.01009
0.00148
0.01368
0.01991
0.01592
0.00333
-0.01108
-0.01978
-0.01850
-0.00752
0.00822
0.02050
0.02212
0.01215
-0.00343
-0.01627
-0.02043
-0.01410
-0.00012
0.01414
0.02011
0.01391
-0.00071
-0.01546
-0.02270
-0.01857
-0.00470
0.01143
0.02010
0.01637
0.00390
-0.00892
-0.01544
-0.01292
-0.00202
0.01236
0.02161
0.01941
0.00750
-0.00652
-0.01618
-0.01891
-0.01423
-0.00350
0.00845
0.01454
0.01059
-0.00077
-0.01230
-0.01772
-0.01450
-0.00326
0.01183
0.02275
0.02209
0.00994
-0.00579
-0.01611
-0.01660
-0.00763
0.00645
0.01785
0.01910
0.00906
-0.00590
-0.01751
-0.02101
-0.01574
-0.00381
0.00954
0.01665
0.01211
-0.00213
-0.01720
-0.02367
-0.01788
-0.00314
0.01365
0.02538
0.02667
0.01639
0.00029
-0.01102
-0.01004
0.00138
0.01464
0.02194
0.02006
0.00866
-0.01032
-0.02986
-0.03897
-0.03160
-0.01383
0.00154
0.00676
0.00262
-0.00640
-0.01502
-0.01649
-0.00616
0.01272
0.02984
0.03602
0.02955
0.01585
0.00288
-0.00335
-0.00084
0.00874
0.02062
0.02746
0.02245
0.00474
-0.01856
-0.03694
-0.04361
-0.03885
-0.02812
-0.01799
-0.01318
-0.01518
-0.02208
-0.02906
-0.02981
-0.01950
0.00143
0.02591
0.04421
0.05092
0.04796
0.04172
0.03883
0.04386
0.05674
0.07054
0.07466
0.06270
0.03641
0.00165
-0.03618
-0.07188
-0.10022
-0.11996
-0.13599
-0.15493
-0.18066
-0.21176
-0.23364
-0.21368
-0.12169
0.03689
0.22228
0.39916
0.55061
0.64247
0.60933
0.41624
0.12304
-0.15149
-0.33417
-0.44025
-0.51303
-0.55500
-0.53328
-0.42810
-0.25521
-0.05263
0.13677
0.27555
0.34318
0.34425
0.30179
0.24055
0.17655
0.11813
0.06908
0.02838
-0.00906
-0.04734
-0.08471
-0.11451
-0.12983
-0.12736
-0.10894
-0.08146
-0.05434
-0.03492
-0.02495
-0.02048
-0.01477
-0.00229
0.01799
0.04166
0.06088
0.06839
0.06154
0.04393
0.02388
0.00994
0.00617
0.01012
0.01526
0.01529
0.00698
-0.00884
-0.02678
-0.03870
-0.03887
-0.02830
-0.01329
-0.00071
0.00474
0.00137
-0.00818
-0.01678
-0.01699
-0.00688
0.00882
0.02274
0.02888
0.02415
0.00990
-0.00634
-0.01435
-0.00955
0.00295
0.01389
0.01770
0.01385
0.00410
-0.00842
-0.01842
-0.02038
-0.01266
0.00047
0.01120
0.01309
0.00510
-0.00772
-0.01764
-0.01888
-0.01036
0.00419
0.01756
0.02220
0.01521
0.00132
-0.01068
-0.01493
-0.01107
-0.00154
0.01009
0.01796
0.01597
0.00377
-0.01114
-0.01934
-0.01677
-0.00594
0.00751
0.01734
0.01829
0.00885
-0.00656
-0.01927
-0.02171
-0.01229
0.00343
0.01599
0.01833
0.01035
-0.00238
-0.01334
-0.01770
-0.01258
0.00081
0.01533
0.02200
0.01722
0.00483
-0.00823
-0.01628
-0.01621
-0.00780
0.00554
0.01668
0.01795
0.00708
-0.00947
-0.02097
-0.02129
-0.01219
0.00086
0.01268
0.01848
0.01447
0.00189
-0.01170
-0.01755
-0.01210
0.00135
0.01545
0.02269
0.01921
0.00697
-0.00761
-0.01745
-0.01802
-0.00908
0.00460
0.01486
0.01512
0.00519
-0.00888
-0.01965
-0.02248
-0.01614
-0.00275
0.01164
0.01881
0.01425
0.00140
-0.01104
-0.01554
-0.00968
0.00396
0.01914
0.02824
0.02620
0.01392
-0.00221
-0.01422
-0.01662
-0.00905
0.00292
0.01028
0.00691
-0.00539
-0.01923
-0.02851
-0.03092
-0.02501
-0.01023
0.00831
0.02005
0.01870
0.00915
0.00127
-0.00037
0.00269
0.00863
0.01652
0.02334
0.02458
0.01843
0.00757
-0.00237
-0.00610
-0.00245
0.00409
0.00684
0.00198
-0.01004
-0.02564
-0.03878
-0.04321
-0.03713
-0.02488
-0.01285
-0.00571
-0.00579
-0.01185
-0.01702
-0.01253
0.00425
0.02762
0.04965
0.06505
0.07094
0.06697
0.05722
0.04851
0.04469
0.04374
0.04029
0.02892
0.00579
-0.02961
-0.07248
-0.11431
-0.14756
-0.16870
-0.17930
-0.18651
-0.19647
-0.19905
-0.16359
-0.06343
0.09487
0.27761
0.45404
0.59780
0.65858
0.57171
0.32728
0.01057
-0.26102
-0.43528
-0.53403
-0.58025
-0.55992
-0.45934
-0.30066
-0.12324
0.04610
0.19064
0.29233
0.33942
0.33667
0.29808
0.23566
0.15980
0.08350
0.01939
-0.02593
-0.05319
-0.06850
-0.08028
-0.09431
-0.10941
-0.11853
-0.11480
-0.09639
-0.06678
-0.03260
-0.00187
0.01826
0.02518
0.02301
0.01989
0.02248
0.03236
0.04599
0.05662
0.05771
0.04664
0.02628
0.00361
-0.01310
-0.01793
-0.01142
-0.00131
0.00276
-0.00350
-0.01667
-0.02955
-0.03583
-0.03232
-0.01950
-0.00186
0.01294
0.01778
0.01092
-0.00198
-0.01144
-0.01111
-0.00194
0.00994
0.01848
0.02060
0.01568
0.00515
-0.00637
-0.01197
-0.00753
0.00385
0.01403
0.01623
0.00921
-0.00339
-0.01594
-0.02308
-0.02126
-0.01051
0.00398
0.01405
0.01437
0.00618
-0.00520
-0.01401
-0.01511
-0.00591
0.00988
0.02305
0.02569
0.01611
-0.00160
-0.01928
-0.02737
-0.02102
-0.00462
0.01190
0.02065
0.01862
0.00710
-0.00805
-0.01793
-0.01694
-0.00720
0.00470
0.01355
0.01649
0.01161
-0.00025
-0.01282
-0.01740
-0.01037
0.00336
0.01476
0.01718
0.00899
-0.00642
-0.02117
-0.02592
-0.01634
0.00250
0.01962
0.02628
0.02082
0.00765
-0.00609
-0.01379
-0.01249
-0.00438
0.00517
0.01090
0.00959
0.00083
-0.01199
-0.02199
-0.02254
-0.01212
0.00449
0.01919
0.02471
0.01837
0.00384
-0.01075
-0.01778
-0.01395
-0.00131
0.01356
0.02219
0.01932
0.00660
-0.00882
-0.01910
-0.01955
-0.01051
0.00235
0.01106
0.01054
0.00153
-0.01088
-0.02020
-0.02123
-0.01231
0.00316
0.01787
0.02437
0.01968
0.00739
-0.00464
-0.00921
-0.00352
0.00960
0.02256
0.02665
0.01799
0.00035
-0.01831
-0.03080
-0.03248
-0.02259
-0.00680
0.00434
0.00370
-0.00635
-0.01716
-0.02141
-0.01604
-0.00131
0.01870
0.03514
0.03839
0.02614
0.00659
-0.00796
-0.01055
-0.00232
0.01150
0.02479
0.03092
0.02477
0.00711
-0.01435
-0.02996
-0.03447
-0.02881
-0.01772
-0.00779
-0.00610
-0.01595
-0.03204
-0.04283
-0.04006
-0.02489
-0.00460
0.01406
0.02719
0.03300
0.03256
0.03120
0.03574
0.04866
0.06553
0.07846
0.08079
0.06921
0.04468
0.01286
-0.01812
-0.04228
-0.05897
-0.07307
-0.09251
-0.12201
-0.15775
-0.19085
-0.21542
-0.22526
-0.20226
-0.12239
0.01738
0.18945
0.36141
0.51441
0.61893
0.61454
0.45496
0.17738
-0.10762
-0.31136
-0.43102
-0.50889
-0.55649
-0.54340
-0.44437
-0.27178
-0.06672
0.12309
0.25907
0.32397
0.32670
0.29219
0.24403
0.19488
0.14758
0.09979
0.04836
-0.00667
-0.05984
-0.10223
-0.12623
-0.12959
-0.11649
-0.09537
-0.07517
-0.06139
-0.05387
-0.04752
-0.03571
-0.01461
0.01382
0.04224
0.06198
0.06764
0.05927
0.04194
0.02413
0.01433
0.01574
0.02348
0.02843
0.02429
0.01061
-0.00863
-0.02697
-0.03751
-0.03632
-0.02534
-0.01118
-0.00108
0.00055
-0.00618
-0.01629
-0.02197
-0.01757
-0.00397
0.01225
0.02389
0.02664
0.01922
0.00438
-0.00959
-0.01305
-0.00401
0.00958
0.01803
0.01778
0.01018
-0.00224
-0.01529
-0.02225
-0.01784
-0.00361
0.01199
0.01942
0.01463
0.00104
-0.01350
-0.02122
-0.01807
-0.00594
0.00807
0.01624
0.01537
0.00735
-0.00387
-0.01383
-0.01737
-0.01094
0.00325
0.01709
0.02212
0.01541
0.00109
-0.01252
-0.01797
-0.01305
-0.00122
0.01122
0.01771
0.01387
0.00097
-0.01322
-0.01982
-0.01580
-0.00496
0.00664
0.01416
0.01471
0.00776
-0.00375
-0.01390
-0.01667
-0.00962
0.00408
0.01694
0.02132
0.01407
-0.00112
-0.01567
-0.02140
-0.01563
-0.00201
0.01220
0.01986
0.01695
0.00496
-0.00937
-0.01789
-0.01617
-0.00573
0.00734
0.01577
0.01481
0.00487
-0.00883
-0.01906
-0.01995
-0.01006
0.00605
0.01978
0.02383
0.01668
0.00258
-0.01130
-0.01791
-0.01349
-0.00047
0.01318
0.01889
0.01291
-0.00187
-0.01778
-0.02659
-0.02390
-0.01145
0.00399
0.01459
0.01583
0.00861
-0.00203
-0.00973
-0.00969
-0.00069
0.01383
0.02672
0.03067
0.02243
0.00535
-0.01211
-0.02133
-0.01906
-0.00899
0.00124
0.00483
-0.00070
-0.01267
-0.02479
-0.03038
-0.02559
-0.01137
0.00638
0.01979
0.02384
0.01894
0.00930
0.00018
-0.00354
0.00113
0.01296
0.02571
0.03156
0.02660
0.01325
-0.00213
-0.01298
-0.01511
-0.00901
-0.00096
0.00056
-0.00825
-0.02371
-0.03835
-0.04551
-0.04179
-0.02859
-0.01216
0.00012
0.00453
0.00214
-0.00294
-0.00504
0.00186
0.02055
0.04693
0.07076
0.08242
0.07973
0.06786
0.05325
0.03942
0.02788
0.01871
0.00787
-0.01243
-0.04702
-0.09240
-0.13872
-0.17528
-0.19553
-0.20138
-0.20085
-0.19349
-0.15939
-0.07459
0.06067
0.22216
0.38888
0.54490
0.64545
0.61533
0.41723
0.11145
-0.18451
-0.39488
-0.52079
-0.58506
-0.58200
-0.49628
-0.34201
-0.15920
0.01613
0.16221
0.26393
0.31406
0.31991
0.29675
0.25402
0.19403
0.12174
0.04876
-0.01264
-0.05570
-0.07980
-0.08876
-0.08952
-0.08978
-0.09392
-0.10003
-0.10100
-0.08963
-0.06412
-0.02987
0.00347
0.02711
0.03711
0.03568
0.02976
0.02717
0.03202
0.04235
0.05187
0.05410
0.04548
0.02664
0.00275
-0.01749
-0.02622
-0.02191
-0.01040
-0.00079
-0.00001
-0.00935
-0.02395
-0.03553
-0.03746
-0.02822
-0.01103
0.00828
0.02254
0.02545
0.01596
0.00078
-0.00974
-0.00924
0.00113
0.01491
0.02432
0.02384
0.01313
-0.00278
-0.01637
-0.02139
-0.01549
-0.00190
0.01126
0.01569
0.00881
-0.00465
-0.01650
-0.02010
-0.01337
0.00039
0.01397
0.02023
0.01617
0.00406
-0.01022
-0.01983
-0.01959
-0.00885
0.00703
0.01908
0.02051
0.01093
-0.00387
-0.01538
-0.01689
-0.00765
0.00633
0.01637
0.01690
0.00797
-0.00557
-0.01662
-0.01934
-0.01255
0.00011
0.01268
0.01937
0.01646
0.00448
-0.01047
-0.01954
-0.01698
-0.00451
0.00983
0.01739
0.01437
0.00329
-0.00952
-0.01779
-0.01789
-0.00966
0.00387
0.01717
0.02394
0.01991
0.00627
-0.00933
-0.01707
-0.01281
-0.00153
0.00776
0.00948
0.00349
-0.00723
-0.01779
-0.02202
-0.01587
-0.00110
0.01542
0.02600
0.02565
0.01415
-0.00287
-0.01595
-0.01797
-0.00910
0.00409
0.01412
0.01663
0.01068
-0.00196
-0.01607
-0.02371
-0.01917
-0.00485
0.00981
0.01618
0.01240
0.00202
-0.00962
-0.01664
-0.01403
-0.00201
0.01212
0.01934
0.01643
0.00703
-0.00304
-0.00940
-0.00934
-0.00221
0.00898
0.01812
0.01967
0.01191
-0.00265
-0.01814
-0.02715
-0.02460
-0.01202
0.00266
0.01037
0.00666
-0.00607
-0.02008
-0.02627
-0.01907
0.00021
0.02296
0.03712
0.03485
0.01867
-0.00032
-0.01118
-0.00980
0.00140
0.01647
0.02789
0.02889
0.01734
-0.00202
-0.01993
-0.02842
-0.02562
-0.01635
-0.00846
-0.00795
-0.01599
-0.02887
-0.04012
-0.04348
-0.03557
-0.01750
0.00528
0.02502
0.03521
0.03438
0.02780
0.02502
0.03345
0.05238
0.07272
0.08339
0.07859
0.05968
0.03217
0.00243
-0.02389
-0.04390
-0.05965
-0.07774
-0.10467
-0.14033
-0.17670
-0.20497
-0.22103
-0.21736
-0.17419
-0.07278
0.08024
0.25477
0.42255
0.56028
0.62507
0.56024
0.35268
0.07101
-0.18152
-0.35202
-0.45888
-0.53312
-0.56547
-0.52153
-0.38967
-0.19774
0.00707
0.18061
0.29221
0.33272
0.31794
0.27636
0.22900
0.18144
0.13162
0.07862
0.02375
-0.03065
-0.07980
-0.11576
-0.13142
-0.12613
-0.10705
-0.08477
-0.06727
-0.05667
-0.04980
-0.04120
-0.02652
-0.00477
0.02132
0.04602
0.06205
0.06393
0.05243
0.03557
0.02316
0.01979
0.02310
0.02713
0.02619
0.01717
0.00083
-0.01844
-0.03410
-0.03984
-0.03304
-0.01816
-0.00468
0.00033
-0.00309
-0.01080
-0.01834
-0.02051
-0.01233
0.00521
0.02269
0.02944
0.02265
0.00817
-0.00565
-0.01288
-0.01107
-0.00113
0.01235
0.02180
0.02048
0.00793
-0.00866
-0.01989
-0.02082
-0.01245
0.00064
0.01232
0.01658
0.01067
-0.00229
-0.01467
-0.01922
-0.01382
-0.00247
0.00827
0.01359
0.01192
0.00412
-0.00651
-0.01406
-0.01268
-0.00141
0.01375
0.02314
0.02009
0.00596
-0.01092
-0.02150
-0.02150
-0.01180
0.00336
0.01711
0.02184
0.01414
-0.00162
-0.01600
-0.02111
-0.01488
-0.00108
0.01279
0.01904
0.01401
0.00062
-0.01327
-0.01961
-0.01470
-0.00100
0.01399
0.02159
0.01730
0.00395
-0.01040
-0.01842
-0.01735
-0.00817
0.00584
0.01855
0.02218
0.01297
-0.00445
-0.01982
-0.02444
-0.01626
-0.00024
0.01478
0.02105
0.01603
0.00313
-0.01087
-0.01918
-0.01753
-0.00619
0.00930
0.02064
0.02172
0.01202
-0.00359
-0.01693
-0.02016
-0.01104
0.00427
0.01568
0.01704
0.00884
-0.00483
-0.01824
-0.02433
-0.01826
-0.00270
0.01271
0.01876
0.01321
0.00081
-0.01092
-0.01560
-0.01025
0.00337
0.01895
0.02847
0.02669
0.01460
-0.00098
-0.01225
-0.01557
-0.01197
-0.00427
0.00333
0.00451
-0.00491
-0.02062
-0.03181
-0.03106
-0.01948
-0.00244
0.01489
0.02697
0.02838
0.01821
0.00232
-0.01022
-0.01237
-0.00242
0.01452
0.02860
0.03174
0.02327
0.00911
-0.00339
-0.00918
-0.00718
-0.00109
0.00250
-0.00139
-0.01287
-0.02773
-0.03991
-0.04403
-0.03801
-0.02450
-0.00969
-0.00023
0.00001
-0.00707
-0.01340
-0.00968
0.00725
0.03251
0.05760
0.07529
0.08139
0.07554
0.06198
0.04754
0.03726
0.03123
0.02467
0.01066
-0.01539
-0.05268
-0.09617
-0.13912
-0.17330
-0.19165
-0.19598
-0.19674
-0.19457
-0.16599
-0.08253
0.05569
0.22155
0.39309
0.55449
0.65700
0.61949
0.40640
0.09017
-0.20022
-0.39048
-0.49525
-0.55189
-0.56001
-0.49712
-0.36316
-0.18803
-0.00836
0.14732
0.25923
0.31896
0.33204
0.31046
0.26318
0.19693
0.12157
0.04927
-0.01012
-0.05120
-0.07373
-0.08355
-0.08958
-0.09732
-0.10549
-0.10900
-0.10345
-0.08673
-0.05932
-0.02554
0.00614
0.02676
0.03294
0.02923
0.02451
0.02603
0.03557
0.04902
0.05882
0.05780
0.04339
0.01985
-0.00350
-0.01818
-0.02163
-0.01682
-0.00857
-0.00204
-0.00246
-0.01206
-0.02620
-0.03527
-0.03219
-0.01801
-0.00045
0.01204
0.01512
0.00953
-0.00040
-0.00865
-0.00994
-0.00238
0.01105
0.02366
0.02854
0.02249
0.00789
-0.00861
-0.01904
-0.01799
-0.00621
0.00869
0.01687
0.01326
0.00063
-0.01358
-0.02217
-0.02115
-0.01087
0.00388
0.01569
0.01855
0.01111
-0.00268
-0.01508
-0.01824
-0.00957
0.00551
0.01756
0.02034
0.01365
0.00097
-0.01252
-0.02028
-0.01711
-0.00379
0.01189
0.02039
0.01723
0.00506
-0.00919
-0.01843
-0.01827
-0.00878
0.00539
0.01706
0.01985
0.01157
-0.00375
-0.01727
-0.02096
-0.01333
0.00018
0.01201
0.01690
0.01294
0.00149
-0.01166
-0.01773
-0.01158
0.00281
0.01590
0.02100
0.01692
0.00518
-0.01005
-0.02095
-0.02080
-0.01034
0.00356
0.01416
0.01715
0.01036
-0.00371
-0.01667
-0.01982
-0.01137
0.00312
0.01570
0.02003
0.01365
-0.00022
-0.01353
-0.01822
-0.01169
0.00202
0.01550
0.02211
0.01859
0.00617
-0.00948
-0.02039
-0.02072
-0.01088
0.00272
0.01216
0.01269
0.00419
-0.00932
-0.02074
-0.02279
-0.01309
0.00347
0.01821
0.02444
0.02042
0.00900
-0.00379
-0.01083
-0.00734
0.00558
0.02029
0.02670
0.01922
0.00111
-0.01796
-0.02912
-0.02954
-0.02144
-0.00891
0.00272
0.00710
0.00089
-0.01170
-0.02105
-0.01933
-0.00536
0.01544
0.03327
0.03806
0.02624
0.00485
-0.01312
-0.01851
-0.01066
0.00570
0.02385
0.03519
0.03201
0.01435
-0.00794
-0.02310
-0.02618
-0.01948
-0.00878
-0.00170
-0.00520
-0.01960
-0.03649
-0.04541
-0.04194
-0.02841
-0.00989
0.00769
0.01848
0.01991
0.01559
0.01304
0.01851
0.03380
0.05582
0.07696
0.08749
0.08144
0.06143
0.03610
0.01264
-0.00680
-0.02276
-0.03742
-0.05669
-0.08787
-0.13091
-0.17480
-0.20745
-0.22615
-0.23005
-0.20381
-0.12366
0.01276
0.17598
0.33513
0.48135
0.59890
0.62949
0.50879
0.24880
-0.05033
-0.29021
-0.45013
-0.55555
-0.60521
-0.56839
-0.43856
-0.25165
-0.05357
0.12231
0.24970
0.31149
0.31456
0.28580
0.24754
0.20491
0.15553
0.10026
0.04250
-0.01420
-0.06393
-0.09844
-0.11304
-0.11107
-0.10063
-0.08851
-0.07842
-0.07203
-0.06752
-0.05823
-0.03789
-0.00817
0.02207
0.04437
0.05499
0.05358
0.04307
0.03066
0.02449
0.02754
0.03594
0.04197
0.03832
0.02223
-0.00183
-0.02419
-0.03615
-0.03487
-0.02399
-0.01068
-0.00204
-0.00237
-0.01155
-0.02420
-0.03124
-0.02559
-0.00842
0.01130
0.02425
0.02670
0.01969
0.00641
-0.00726
-0.01327
-0.00707
0.00736
0.02032
0.02383
0.01606
0.00144
-0.01168
-0.01603
-0.01074
-0.00119
0.00655
0.00953
0.00668
-0.00220
-0.01440
-0.02342
-0.02285
-0.01164
0.00460
0.01747
0.02093
0.01388
0.00025
-0.01207
-0.01474
-0.00521
0.00999
0.02021
0.01954
0.00959
-0.00470
-0.01800
-0.02378
-0.01666
0.00112
0.01845
0.02408
0.01570
-0.00020
-0.01485
-0.02205
-0.01956
-0.00932
0.00347
0.01319
0.01627
0.01155
0.00028
-0.01239
-0.01810
-0.01120
0.00502
0.02025
0.02534
0.01756
0.00035
-0.01803
-0.02679
-0.01950
-0.00062
0.01723
0.02348
0.01641
0.00134
-0.01428
-0.02348
-0.02135
-0.00833
0.00804
0.01770
0.01607
0.00636
-0.00537
-0.01433
-0.01640
-0.00850
0.00731
0.02220
0.02647
0.01726
0.00017
-0.01559
-0.02262
-0.01824
-0.00526
0.00929
0.01767
0.01541
0.00374
-0.01081
-0.02011
-0.01966
-0.01076
0.00188
0.01285
0.01679
0.01033
-0.00359
-0.01552
-0.01674
-0.00688
0.00736
0.01907
0.02447
0.02155
0.01061
-0.00334
-0.01239
-0.01178
-0.00319
0.00724
0.01232
0.00721
-0.00726
-0.02402
-0.03410
-0.03199
-0.01808
0.00148
0.01697
0.02080
0.01311
0.00082
-0.00830
-0.00936
-0.00142
0.01133
0.02118
0.02297
0.01788
0.01011
0.00309
-0.00003
0.00330
0.01118
0.01693
0.01475
0.00389
-0.01276
-0.03034
-0.04208
-0.04239
-0.03184
-0.01707
-0.00594
-0.00403
-0.01264
-0.02591
-0.03237
-0.02393
-0.00258
0.02346
0.04668
0.06138
0.06349
0.05464
0.04438
0.04296
0.05152
0.06168
0.06401
0.05384
0.02964
-0.00809
-0.05336
-0.09480
-0.12432
-0.14320
-0.15673
-0.16818
-0.18189
-0.20130
-0.21215
-0.17717
-0.06662
0.10845
0.30862
0.50028
0.64872
0.68789
0.55106
0.25644
-0.07348
-0.31203
-0.43185
-0.48803
-0.52401
-0.52792
-0.46865
-0.33869
-0.15847
0.03680
0.20677
0.31843
0.36047
0.34427
0.29059
0.21854
0.14404
0.07993
0.03226
-0.00184
-0.03002
-0.05826
-0.08757
-0.11434
-0.13185
-0.13311
-0.11559
-0.08455
-0.05065
-0.02355
-0.00739
-0.00078
0.00144
0.00631
0.01937
0.04011
0.06087
0.07172
0.06709
0.04874
0.02443
0.00416
-0.00498
-0.00304
0.00367
0.00806
0.00591
-0.00417
-0.02043
-0.03629
-0.04247
-0.03440
-0.01691
0.00007
0.00949
0.00967
0.00190
-0.00999
-0.01832
-0.01499
0.00065
0.01946
0.03039
0.02910
0.01822
0.00293
-0.01070
-0.01592
-0.00928
0.00481
0.01606
0.01651
0.00645
-0.00759
-0.01876
-0.02268
-0.01719
-0.00349
0.01200
0.02006
0.01536
0.00087
-0.01425
-0.02105
-0.01617
-0.00295
0.01150
0.02036
0.01983
0.01008
-0.00459
-0.01689
-0.02001
-0.01191
0.00304
0.01644
0.02078
0.01393
0.00027
-0.01268
-0.01882
-0.01546
-0.00363
0.01099
0.01951
0.01560
0.00134
-0.01401
-0.02109
-0.01662
-0.00382
0.01074
0.02046
0.02049
0.00966
-0.00734
-0.02089
-0.02285
-0.01271
0.00296
0.01621
0.02145
0.01630
0.00272
-0.01202
-0.01887
-0.01364
-0.00027
0.01274
0.01841
0.01430
0.00212
-0.01280
-0.02235
-0.02020
-0.00737
0.00811
0.01760
0.01724
0.00830
-0.00455
-0.01478
-0.01668
-0.00851
0.00614
0.01979
0.02452
0.01659
-0.00029
-0.01658
-0.02323
-0.01738
-0.00333
0.01067
0.01688
0.01180
-0.00217
-0.01769
-0.02585
-0.02129
-0.00622
0.01082
0.02145
0.02236
0.01486
0.00295
-0.00712
-0.00888
-0.00049
0.01276
0.02211
0.02125
0.00951
-0.00833
-0.02431
-0.03128
-0.02653
-0.01247
0.00415
0.01422
0.01103
-0.00359
-0.01903
-0.02428
-0.01623
0.00017
0.01726
0.02817
0.02794
0.01595
-0.00170
-0.01463
-0.01463
-0.00093
0.01941
0.03532
0.03773
0.02490
0.00352
-0.01580
-0.02531
-0.02378
-0.01538
-0.00671
-0.00442
-0.01218
-0.02718
-0.04085
-0.04520
-0.03848
-0.02406
-0.00648
0.00944
0.01880
0.02013
0.01822
0.02071
0.03189
0.05055
0.07146
0.08714
0.08991
0.07604
0.04939
0.01974
-0.00458
-0.02224
-0.03724
-0.05491
-0.08083
-0.11794
-0.16038
-0.19590
-0.21897
-0.23164
-0.22341
-0.16481
-0.04002
0.12456
0.28703
0.43434
0.56641
0.64007
0.57753
0.35533
0.05361
-0.21330
-0.39624
-0.51635
-0.59276
-0.60439
-0.52303
-0.35492
-0.14139
0.06549
0.22305
0.30991
0.33122
0.31088
0.27307
0.22954
0.18132
0.12682
0.06649
0.00395
-0.05401
-0.09860
-0.12235
-0.12358
-0.10918
-0.09175
-0.08086
-0.07655
-0.07202
-0.06140
-0.04285
-0.01664
0.01471
0.04398
0.06134
0.06179
0.04957
0.03426
0.02374
0.02131
0.02628
0.03398
0.03647
0.02722
0.00672
-0.01698
-0.03335
-0.03597
-0.02644
-0.01268
-0.00279
-0.00048
-0.00532
-0.01463
-0.02372
-0.02635
-0.01853
-0.00260
0.01360
0.02246
0.02126
0.01252
0.00161
-0.00560
-0.00513
0.00300
0.01400
0.02064
0.01814
0.00717
-0.00744
-0.01946
-0.02280
-0.01447
0.00139
0.01474
0.01740
0.00894
-0.00483
-0.01643
-0.01976
-0.01273
0.00076
0.01293
0.01754
0.01283
0.00084
-0.01310
-0.02115
-0.01731
-0.00278
0.01412
0.02391
0.02187
0.00975
-0.00600
-0.01758
-0.01930
-0.01023
0.00489
0.01764
0.02070
0.01213
-0.00372
-0.01855
-0.02406
-0.01667
-0.00050
0.01493
0.02107
0.01527
0.00109
-0.01397
-0.02189
-0.01849
-0.00565
0.01015
0.02102
0.02071
0.00867
-0.00778
-0.01800
-0.01633
-0.00511
0.00905
0.01937
0.02073
0.01188
-0.00293
-0.01593
-0.02047
-0.01432
-0.00076
0.01234
0.01664
0.00917
-0.00537
-0.01844
-0.02362
-0.01898
-0.00616
0.01025
0.02297
0.02482
0.01454
-0.00075
-0.01061
-0.00989
-0.00159
0.00819
0.01523
0.01656
0.00925
-0.00604
-0.02172
-0.02800
-0.02112
-0.00564
0.00982
0.01718
0.01227
-0.00221
-0.01715
-0.02295
-0.01620
-0.00087
0.01555
0.02631
0.02736
0.01831
0.00349
-0.00876
-0.01086
-0.00194
0.01133
0.01977
0.01750
0.00413
-0.01546
-0.03257
-0.03840
-0.02934
-0.00996
0.00908
0.01749
0.01224
-0.00104
-0.01296
-0.01671
-0.01041
0.00360
0.01942
0.02907
0.02673
0.01349
-0.00257
-0.01153
-0.00821
0.00484
0.01950
0.02768
0.02553
0.01366
-0.00429
-0.02158
-0.02990
-0.02561
-0.01430
-0.00611
-0.00670
-0.01505
-0.02743
-0.03948
-0.04507
-0.03819
-0.01831
0.00725
0.02765
0.03598
0.03372
0.02909
0.03066
0.04148
0.05820
0.07384
0.08114
0.07542
0.05666
0.02905
-0.00159
-0.02948
-0.05054
-0.06639
-0.08555
-0.11533
-0.15256
-0.18801
-0.21730
-0.23617
-0.22477
-0.15406
-0.01880
0.14937
0.31490
0.46719
0.59295
0.63558
0.52722
0.27397
-0.02409
-0.26019
-0.40723
-0.50013
-0.55875
-0.56072
-0.48032
-0.32388
-0.12532
0.07262
0.22963
0.31856
0.33723
0.30726
0.25720
0.20570
0.15760
0.10990
0.05905
0.00514
-0.04749
-0.09203
-0.12165
-0.13190
-0.12312
-0.10146
-0.07642
-0.05605
-0.04392
-0.03892
-0.03569
-0.02632
-0.00551
0.02384
0.05109
0.06539
0.06292
0.04795
0.02923
0.01577
0.01320
0.02075
0.03102
0.03386
0.02285
0.00019
-0.02421
-0.03930
-0.03984
-0.02872
-0.01399
-0.00374
-0.00187
-0.00716
-0.01536
-0.02133
-0.02013
-0.00950
0.00681
0.02028
0.02438
0.01918
0.00913
-0.00101
-0.00687
-0.00472
0.00528
0.01694
0.02177
0.01586
0.00277
-0.01035
-0.01802
-0.01821
-0.01139
-0.00017
0.01006
0.01262
0.00462
-0.00927
-0.02001
-0.02145
-0.01326
0.00137
0.01663
0.02412
0.01791
0.00160
-0.01338
-0.01794
-0.01157
0.00084
0.01390
0.02238
0.02119
0.00893
-0.00869
-0.02138
-0.02166
-0.01017
0.00537
0.01552
0.01481
0.00461
-0.00824
-0.01647
-0.01642
-0.00858
0.00374
0.01516
0.01937
0.01283
-0.00156
-0.01536
-0.02017
-0.01336
0.00066
0.01406
0.02063
0.01807
0.00715
-0.00811
-0.01984
-0.02019
-0.00859
0.00686
0.01672
0.01723
0.00996
-0.00178
-0.01357
-0.01934
-0.01432
-0.00024
0.01401
0.01860
0.01040
-0.00494
-0.01771
-0.02084
-0.01322
0.00130
0.01635
0.02508
0.02260
0.00969
-0.00629
-0.01634
-0.01626
-0.00803
0.00330
0.01206
0.01314
0.00475
-0.00894
-0.01982
-0.02161
-0.01356
0.00038
0.01363
0.01913
0.01319
-0.00064
-0.01314
-0.01630
-0.00866
0.00529
0.01874
0.02538
0.02188
0.01033
-0.00263
-0.01088
-0.01239
-0.00797
0.00044
0.00814
0.00773
-0.00419
-0.02119
-0.03173
-0.02963
-0.01751
-0.00133
0.01362
0.02209
0.01996
0.00905
-0.00241
-0.00695
-0.00400
0.00274
0.01068
0.01795
0.02075
0.01591
0.00609
-0.00140
-0.00149
0.00458
0.01159
0.01438
0.00973
-0.00300
-0.02126
-0.03898
-0.04805
-0.04296
-0.02650
-0.00959
-0.00270
-0.00707
-0.01564
-0.02086
-0.01853
-0.00620
0.01618
0.04264
0.06254
0.06856
0.06243
0.05258
0.04699
0.04808
0.05226
0.05288
0.04335
0.01970
-0.01686
-0.05935
-0.09927
-0.13154
-0.15403
-0.16608
-0.17224
-0.18220
-0.19581
-0.18922
-0.12873
-0.00223
0.17148
0.36210
0.53711
0.64602
0.62304
0.43841
0.14692
-0.13985
-0.34070
-0.45345
-0.51564
-0.54057
-0.50843
-0.40459
-0.24396
-0.06056
0.11079
0.24276
0.31996
0.34178
0.31838
0.26349
0.19146
0.11712
0.05294
0.00511
-0.02724
-0.04969
-0.06905
-0.08907
-0.10775
-0.11927
-0.11864
-0.10421
-0.07780
-0.04508
-0.01492
0.00486
0.01258
0.01308
0.01359
0.01965
0.03291
0.04961
0.06144
0.06089
0.04729
0.02698
0.00795
-0.00462
-0.00892
-0.00607
-0.00035
0.00207
-0.00318
-0.01555
-0.02947
-0.03742
-0.03439
-0.02093
-0.00300
0.01121
0.01551
0.00874
-0.00436
-0.01510
-0.01567
-0.00455
0.01202
0.02468
0.02723
0.01940
0.00551
-0.00784
-0.01420
-0.01039
0.00107
0.01283
0.01733
0.01162
-0.00137
-0.01531
-0.02357
-0.02169
-0.00987
0.00597
0.01714
0.01763
0.00763
-0.00692
-0.01756
-0.01824
-0.00893
0.00498
0.01668
0.02088
0.01521
0.00198
-0.01156
-0.01771
-0.01385
-0.00317
0.00869
0.01628
0.01574
0.00663
-0.00673
-0.01694
-0.01773
-0.00821
0.00603
0.01643
0.01700
0.00767
-0.00642
-0.01777
-0.01991
-0.01093
0.00472
0.01818
0.02130
0.01210
-0.00348
-0.01583
-0.01870
-0.01231
-0.00063
0.01154
0.01884
0.01671
0.00552
-0.00802
-0.01605
-0.01522
-0.00704
0.00466
0.01432
0.01568
0.00648
-0.00796
-0.01796
-0.01706
-0.00622
0.00774
0.01680
0.01645
0.00768
-0.00467
-0.01502
-0.01859
-0.01261
0.00123
0.01604
0.02369
0.02011
0.00739
-0.00797
-0.01854
-0.01935
-0.00997
0.00471
0.01580
0.01531
0.00261
-0.01415
-0.02434
-0.02274
-0.01135
0.00379
0.01610
0.02065
0.01613
0.00558
-0.00514
-0.01000
-0.00557
0.00668
0.02004
0.02633
0.02129
0.00685
-0.01081
-0.02426
-0.02786
-0.02103
-0.00900
0.00079
0.00345
-0.00142
-0.01033
-0.01759
-0.01777
-0.00850
0.00765
0.02331
0.02971
0.02275
0.00657
-0.00929
-0.01607
-0.01010
0.00614
0.02500
0.03689
0.03535
0.02084
0.00064
-0.01575
-0.02239
-0.01956
-0.01228
-0.00713
-0.00927
-0.01952
-0.03309
-0.04234
-0.04200
-0.03154
-0.01433
0.00333
0.01417
0.01488
0.00968
0.00726
0.01404
0.03075
0.05315
0.07387
0.08502
0.08185
0.06543
0.04217
0.01999
0.00345
-0.00879
-0.02198
-0.04156
-0.07102
-0.11035
-0.15353
-0.18953
-0.21043
-0.21658
-0.20718
-0.16792
-0.07984
0.05648
0.21809
0.38317
0.53551
0.63466
0.61102
0.42683
0.13544
-0.15189
-0.36149
-0.49633
-0.58212
-0.60906
-0.54543
-0.38819
-0.17841
0.02714
0.18654
0.28255
0.31937
0.31432
0.28614
0.24597
0.19684
0.13879
0.07348
0.00659
-0.05202
-0.09208
-0.10948
-0.10913
-0.10078
-0.09235
-0.08700
-0.08381
-0.07898
-0.06769
-0.04685
-0.01765
0.01389
0.03938
0.05248
0.05228
0.04326
0.03260
0.02730
0.03076
0.03974
0.04559
0.04079
0.02447
0.00170
-0.02033
-0.03467
-0.03638
-0.02574
-0.00996
0.00049
-0.00094
-0.01237
-0.02518
-0.03006
-0.02310
-0.00766
0.00881
0.01978
0.02190
0.01477
0.00173
-0.00942
-0.01077
-0.00139
0.01179
0.02092
0.02265
0.01706
0.00536
-0.00866
-0.01804
-0.01723
-0.00735
0.00471
0.01164
0.00956
-0.00059
-0.01302
-0.01987
-0.01675
-0.00574
0.00721
0.01615
0.01673
0.00785
-0.00583
-0.01568
-0.01576
-0.00694
0.00567
0.01656
0.02072
0.01490
0.00112
-0.01252
-0.01752
-0.01183
-0.00043
0.01003
0.01523
0.01287
0.00262
-0.01149
-0.02103
-0.01903
-0.00630
0.00909
0.01804
0.01627
0.00574
-0.00778
-0.01773
-0.01885
-0.00937
0.00654
0.02000
0.02341
0.01551
0.00107
-0.01259
-0.01896
-0.01529
-0.00413
0.00849
0.01640
0.01532
0.00496
-0.00889
-0.01730
-0.01572
-0.00687
0.00397
0.01291
0.01621
0.01023
-0.00374
-0.01733
-0.02102
-0.01231
0.00277
0.01527
0.01914
0.01348
0.00185
-0.00938
-0.01384
-0.00853
0.00385
0.01621
0.02145
0.01643
0.00286
-0.01382
-0.02614
-0.02744
-0.01622
0.00143
0.01514
0.01718
0.00736
-0.00764
-0.01888
-0.02001
-0.01019
0.00580
0.02018
0.02628
0.02171
0.00944
-0.00343
-0.00898
-0.00352
0.00912
0.01979
0.02051
0.00970
-0.00814
-0.02625
-0.03816
-0.03874
-0.02657
-0.00678
0.01054
0.01667
0.00985
-0.00387
-0.01399
-0.01203
0.00205
0.01962
0.03039
0.02966
0.01945
0.00545
-0.00557
-0.00809
-0.00085
0.01165
0.02159
0.02239
0.01235
-0.00485
-0.02240
-0.03344
-0.03367
-0.02368
-0.00990
-0.00119
-0.00254
-0.01235
-0.02539
-0.03621
-0.03939
-0.03012
-0.00848
0.01778
0.03744
0.04410
0.04026
0.03446
0.03548
0.04735
0.06656
0.08311
0.08610
0.07036
0.03881
-0.00039
-0.03795
-0.06690
-0.08645
-0.10321
-0.12514
-0.15368
-0.18503
-0.21559
-0.23618
-0.22146
-0.14231
0.00212
0.17808
0.35120
0.50729
0.62188
0.63296
0.48612
0.21064
-0.08284
-0.29656
-0.41874
-0.49348
-0.54350
-0.54571
-0.47005
-0.31706
-0.11791
0.08347
0.24413
0.33449
0.35104
0.31602
0.25941
0.20048
0.14510
0.09380
0.04629
0.00083
-0.04417
-0.08598
-0.11766
-0.13304
-0.13013
-0.11122
-0.08311
-0.05622
-0.03909
-0.03208
-0.02823
-0.01986
-0.00357
0.01926
0.04327
0.06071
0.06519
0.05604
0.03899
0.02262
0.01357
0.01336
0.01787
0.02024
0.01569
0.00399
-0.01187
-0.02757
-0.03738
-0.03570
-0.02223
-0.00515
0.00436
0.00151
-0.00912
-0.01908
-0.02203
-0.01549
-0.00097
0.01567
0.02632
0.02574
0.01511
0.00071
-0.01015
-0.01228
-0.00460
0.00883
0.02029
0.02279
0.01418
-0.00171
-0.01700
-0.02375
-0.01873
-0.00562
0.00785
0.01480
0.01201
0.00082
-0.01254
-0.01936
-0.01491
-0.00243
0.01039
0.01741
0.01599
0.00655
-0.00636
-0.01522
-0.01514
-0.00731
0.00372
0.01353
0.01765
0.01260
0.00024
-0.01165
-0.01561
-0.01014
0.00083
0.01137
0.01589
0.01141
-0.00030
-0.01327
-0.02045
-0.01710
-0.00382
0.01215
0.02075
0.01706
0.00488
-0.00826
-0.01711
-0.01899
-0.01196
0.00267
0.01754
0.02302
0.01512
-0.00123
-0.01626
-0.02165
-0.01471
0.00077
0.01639
0.02338
0.01770
0.00298
-0.01177
-0.01871
-0.01600
-0.00701
0.00345
0.01095
0.01174
0.00447
-0.00740
-0.01636
-0.01595
-0.00588
0.00800
0.01834
0.02069
0.01448
0.00227
-0.01043
-0.01654
-0.01176
0.00124
0.01400
0.01846
0.01217
-0.00164
-0.01681
-0.02636
-0.02478
-0.01203
0.00485
0.01610
0.01620
0.00661
-0.00640
-0.01515
-0.01394
-0.00241
0.01373
0.02600
0.02846
0.02064
0.00686
-0.00631
-0.01273
-0.00978
-0.00071
0.00679
0.00630
-0.00281
-0.01637
-0.02861
-0.03398
-0.02880
-0.01411
0.00386
0.01727
0.02127
0.01628
0.00712
-0.00043
-0.00278
0.00098
0.00980
0.01986
0.02504
0.02105
0.00982
-0.00171
-0.00700
-0.00427
0.00330
0.01005
0.01101
0.00389
-0.01046
-0.02773
-0.04055
-0.04202
-0.03164
-0.01702
-0.00781
-0.00785
-0.01395
-0.02023
-0.02144
-0.01341
0.00547
0.03117
0.05417
0.06560
0.06396
0.05544
0.04794
0.04568
0.04848
0.05284
0.05223
0.03917
0.01035
-0.02993
-0.07279
-0.11093
-0.14072
-0.16051
-0.17178
-0.18192
-0.19761
-0.20775
-0.17974
-0.08587
0.06772
0.24915
0.43083
0.58744
0.66497
0.59215
0.35377
0.03527
-0.23888
-0.40827
-0.49654
-0.54041
-0.53696
-0.46691
-0.33555
-0.17071
0.00049
0.15566
0.27131
0.33088
0.33574
0.30024
0.23974
0.16756
0.09701
0.03870
-0.00401
-0.03406
-0.05644
-0.07592
-0.09575
-0.11448
-0.12491
-0.11944
-0.09730
-0.06535
-0.03283
-0.00700
0.00806
0.01266
0.01233
0.01501
0.02520
0.04095
0.05586
0.06316
0.05859
0.04215
0.01906
-0.00174
-0.01230
-0.01075
-0.00238
0.00426
0.00308
-0.00643
-0.01994
-0.03118
-0.03474
-0.02837
-0.01435
0.00091
0.01001
0.00902
-0.00005
-0.01067
-0.01543
-0.00986
0.00484
0.02167
0.03158
0.02905
0.01527
-0.00289
-0.01641
-0.01871
-0.00955
0.00443
0.01433
0.01483
0.00654
-0.00573
-0.01599
-0.01953
-0.01442
-0.00237
0.01131
0.01926
0.01620
0.00320
-0.01213
-0.02087
-0.01856
-0.00700
0.00770
0.01794
0.01807
0.00819
-0.00531
-0.01437
-0.01471
-0.00680
0.00582
0.01714
0.02015
0.01194
-0.00264
-0.01482
-0.01888
-0.01405
-0.00254
0.01082
0.01872
0.01563
0.00266
-0.01280
-0.02192
-0.01928
-0.00586
0.01036
0.01912
0.01564
0.00388
-0.00838
-0.01537
-0.01428
-0.00459
0.01000
0.02124
0.02155
0.01030
-0.00573
-0.01766
-0.01991
-0.01221
0.00114
0.01332
0.01797
0.01219
-0.00152
-0.01600
-0.02325
-0.01926
-0.00618
0.00939
0.02007
0.02092
0.01162
-0.00304
-0.01500
-0.01717
-0.00801
0.00716
0.01941
0.02166
0.01257
-0.00301
-0.01695
-0.02204
-0.01564
-0.00133
0.01276
0.01852
0.01261
-0.00182
-0.01710
-0.02501
-0.02111
-0.00729
0.00922
0.01997
0.01981
0.00965
-0.00408
-0.01346
-0.01338
-0.00344
0.01214
0.02550
0.02886
0.01993
0.00357
-0.01212
-0.02062
-0.01911
-0.00966
0.00097
0.00505
-0.00059
-0.01265
-0.02408
-0.02814
-0.02132
-0.00542
0.01248
0.02407
0.02518
0.01725
0.00468
-0.00698
-0.01133
-0.00400
0.01220
0.02733
0.03208
0.02485
0.01103
-0.00233
-0.01029
-0.01096
-0.00579
0.00050
0.00156
-0.00694
-0.02338
-0.03971
-0.04654
-0.04019
-0.02522
-0.00995
-0.00015
0.00275
-0.00006
-0.00512
-0.00610
0.00311
0.02295
0.04702
0.06652
0.07572
0.07379
0.06344
0.04921
0.03665
0.02979
0.02668
0.01841
-0.00400
-0.04141
-0.08676
-0.13158
-0.16876
-0.19206
-0.20036
-0.20044
-0.19518
-0.16862
-0.09488
0.03390
0.19850
0.37217
0.53060
0.63338
0.61873
0.44923
0.16497
-0.13285
-0.36170
-0.50651
-0.58647
-0.60083
-0.53032
-0.37792
-0.18293
0.00567
0.15617
0.25723
0.30983
0.32201
0.30407
0.26303
0.20296
0.13063
0.05742
-0.00515
-0.05011
-0.07610
-0.08699
-0.09043
-0.09397
-0.10032
-0.10593
-0.10410
-0.08979
-0.06314
-0.02964
0.00243
0.02541
0.03540
0.03435
0.02922
0.02751
0.03273
0.04315
0.05316
0.05565
0.04579
0.02499
0.00103
-0.01690
-0.02375
-0.02035
-0.01150
-0.00323
-0.00093
-0.00740
-0.02074
-0.03363
-0.03693
-0.02631
-0.00636
0.01241
0.02118
0.01811
0.00753
-0.00388
-0.01002
-0.00739
0.00300
0.01534
0.02241
0.02030
0.01006
-0.00377
-0.01483
-0.01713
-0.00899
0.00451
0.01473
0.01581
0.00798
-0.00426
-0.01537
-0.02043
-0.01625
-0.00367
0.01085
0.01847
0.01450
0.00173
-0.01239
-0.02058
-0.01852
-0.00638
0.01017
0.02199
0.02192
0.00997
-0.00650
-0.01778
-0.01788
-0.00729
0.00800
0.01971
0.02144
0.01238
-0.00241
-0.01552
-0.02122
-0.01737
-0.00598
0.00704
0.01444
0.01195
0.00123
-0.01115
-0.01738
-0.01266
0.00169
0.01787
0.02596
0.02078
0.00531
-0.01212
-0.02296
-0.02234
-0.01117
0.00429
0.01608
0.01894
0.01196
-0.00147
-0.01429
-0.01890
-0.01249
0.00076
0.01310
0.01821
0.01372
0.00182
-0.01137
-0.01831
-0.01463
-0.00264
0.01001
0.01590
0.01269
0.00314
-0.00778
-0.01512
-0.01505
-0.00626
0.00782
0.01928
0.02062
0.01103
-0.00280
-0.01282
-0.01512
-0.00994
0.00007
0.00956
0.01205
0.00501
-0.00765
-0.01922
-0.02447
-0.02049
-0.00701
0.01143
0.02569
0.02769
0.01658
-0.00062
-0.01358
-0.01426
-0.00158
0.01701
0.02980
0.02900
0.01546
-0.00393
-0.02156
-0.03215
-0.03289
-0.02362
-0.00843
0.00382
0.00456
-0.00618
-0.01805
-0.01976
-0.00882
0.00874
0.02497
0.03333
0.02975
0.01579
-0.00017
-0.00868
-0.00591
0.00594
0.02121
0.03171
0.02948
0.01334
-0.00860
-0.02551
-0.03168
-0.02772
-0.01777
-0.00809
-0.00552
-0.01292
-0.02638
-0.03822
-0.04213
-0.03499
-0.01741
0.00474
0.02208
0.02894
0.02782
0.02540
0.02699
0.03585
0.05294
0.07339
0.08645
0.08314
0.06337
0.03464
0.00527
-0.02023
-0.04126
-0.05938
-0.07818
-0.10310
-0.13688
-0.17431
-0.20554
-0.22414
-0.22335
-0.18514
-0.08894
0.06139
0.23439
0.40163
0.54836
0.63839
0.60173
0.40062
0.09886
-0.17733
-0.35367
-0.45262
-0.52248
-0.56136
-0.52973
-0.40925
-0.22446
-0.02060
0.15879
0.28065
0.33115
0.32236
0.28274
0.23605
0.18988
0.14126
0.08760
0.03059
-0.02555
-0.07503
-0.11055
-0.12594
-0.12119
-0.10419
-0.08587
-0.07317
-0.06636
-0.06130
-0.05238
-0.03475
-0.00733
0.02489
0.05246
0.06692
0.06545
0.05189
0.03462
0.02260
0.02061
0.02645
0.03268
0.03149
0.01898
-0.00277
-0.02601
-0.04101
-0.04196
-0.03055
-0.01408
-0.00089
0.00344
-0.00163
-0.01130
-0.01858
-0.01857
-0.01010
0.00450
0.01907
0.02531
0.01891
0.00415
-0.00938
-0.01432
-0.00910
0.00311
0.01627
0.02356
0.02060
0.00809
-0.00820
-0.02014
-0.02127
-0.01073
0.00540
0.01735
0.01790
0.00685
-0.00948
-0.02237
-0.02520
-0.01637
-0.00004
0.01586
0.02361
0.01943
0.00553
-0.01048
-0.01942
-0.01608
-0.00282
0.01220
0.02018
0.01669
0.00371
-0.01157
-0.02071
-0.01874
-0.00677
0.00903
0.02051
0.02140
0.01073
-0.00584
-0.01890
-0.02102
-0.01129
0.00450
0.01748
0.02080
0.01312
-0.00153
-0.01609
-0.02332
-0.01909
-0.00553
0.00966
0.01832
0.01688
0.00715
-0.00561
-0.01472
-0.01474
-0.00490
0.00929
0.01924
0.01884
0.00811
-0.00717
-0.01844
-0.01898
-0.00852
0.00649
0.01743
0.01846
0.00860
-0.00767
-0.02175
-0.02570
-0.01764
-0.00221
0.01337
0.02288
0.02242
0.01184
-0.00377
-0.01562
-0.01643
-0.00569
0.00969
0.01991
0.01891
0.00775
-0.00733
-0.01940
-0.02359
-0.01780
-0.00400
0.01065
0.01694
0.01088
-0.00275
-0.01487
-0.01913
-0.01412
-0.00156
0.01403
0.02524
0.02535
0.01407
-0.00107
-0.01031
-0.00882
0.00105
0.01276
0.01939
0.01604
0.00183
-0.01837
-0.03498
-0.03895
-0.02810
-0.00891
0.00822
0.01557
0.01151
0.00025
-0.01002
-0.01132
-0.00143
0.01402
0.02567
0.02698
0.01782
0.00374
-0.00752
-0.00999
-0.00240
0.01154
0.02491
0.03052
0.02408
0.00658
-0.01582
-0.03437
-0.04177
-0.03626
-0.02320
-0.01157
-0.00761
-0.01203
-0.02193
-0.03213
-0.03512
-0.02468
-0.00240
0.02199
0.03895
0.04606
0.04640
0.04411
0.04348
0.04857
0.05993
0.07167
0.07410
0.06075
0.03292
-0.00247
-0.03864
-0.07135
-0.09772
-0.11675
-0.13178
-0.14965
-0.17563
-0.20720
-0.22808
-0.20846
-0.12244
0.02679
0.20661
0.38424
0.53947
0.63674
0.61204
0.42744
0.13607
-0.14389
-0.33175
-0.43783
-0.50921
-0.55339
-0.53590
-0.43270
-0.25932
-0.05583
0.13521
0.27711
0.34689
0.34655
0.30101
0.23870
0.17580
0.11816
0.06912
0.02873
-0.00881
-0.04896
-0.08856
-0.11818
-0.13093
-0.12584
-0.10585
-0.07752
-0.05072
-0.03340
-0.02600
-0.02262
-0.01629
-0.00243
0.01925
0.04348
0.06159
0.06710
0.05938
0.04257
0.02345
0.00968
0.00624
0.01144
0.01754
0.01631
0.00477
-0.01321
-0.02984
-0.03847
-0.03667
-0.02581
-0.01014
0.00324
0.00707
-0.00024
-0.01220
-0.01964
-0.01760
-0.00671
0.00930
0.02454
0.03149
0.02510
0.00804
-0.00971
-0.01792
-0.01299
0.00104
0.01597
0.02349
0.01902
0.00474
-0.01147
-0.02151
-0.02110
-0.01040
0.00527
0.01584
0.01340
0.00042
-0.01300
-0.01984
-0.01928
-0.01132
0.00349
0.01879
0.02476
0.01787
0.00352
-0.01046
-0.01811
-0.01506
-0.00140
0.01452
0.02097
0.01383
-0.00045
-0.01255
-0.01753
-0.01462
-0.00488
0.00802
0.01730
0.01679
0.00621
-0.00834
-0.01892
-0.02037
-0.01206
0.00237
0.01595
0.02109
0.01434
-0.00034
-0.01397
-0.01898
-0.01352
-0.00073
0.01359
0.02238
0.02011
0.00726
-0.00887
-0.01941
-0.01974
-0.01049
0.00381
0.01553
0.01677
0.00591
-0.00942
-0.01869
-0.01720
-0.00714
0.00657
0.01814
0.02115
0.01246
-0.00353
-0.01718
-0.02076
-0.01297
0.00179
0.01631
0.02348
0.01924
0.00534
-0.01099
-0.02114
-0.02001
-0.00827
0.00807
0.01995
0.01972
0.00669
-0.01170
-0.02499
-0.02642
-0.01572
0.00180
0.01746
0.02312
0.01601
0.00095
-0.01259
-0.01666
-0.00958
0.00392
0.01661
0.02293
0.02062
0.01062
-0.00288
-0.01316
-0.01464
-0.00729
0.00295
0.00863
0.00563
-0.00528
-0.01924
-0.02905
-0.02829
-0.01551
0.00382
0.01997
0.02491
0.01719
0.00249
-0.01018
-0.01385
-0.00726
0.00498
0.01574
0.01990
0.01695
0.01003
0.00337
0.00058
0.00374
0.01164
0.01912
0.01967
0.00980
-0.00861
-0.02892
-0.04292
-0.04511
-0.03581
-0.02083
-0.00813
-0.00386
-0.00938
-0.02007
-0.02718
-0.02271
-0.00477
0.02067
0.04365
0.05667
0.05822
0.05176
0.04350
0.04001
0.04468
0.05466
0.06207
0.05857
0.03917
0.00418
-0.04000
-0.08346
-0.11857
-0.14309
-0.15791
-0.16671
-0.17864
-0.20013
-0.21460
-0.18161
-0.07344
0.09331
0.27862
0.45818
0.61073
0.67553
0.57523
0.30764
-0.01842
-0.27278
-0.41430
-0.48813
-0.53515
-0.54277
-0.48031
-0.34558
-0.16595
0.02355
0.19006
0.30577
0.35655
0.34773
0.29767
0.22674
0.15183
0.08525
0.03312
-0.00524
-0.03475
-0.06072
-0.08630
-0.11079
-0.12866
-0.13199
-0.11658
-0.08657
-0.05233
-0.02384
-0.00578
0.00298
0.00717
0.01253
0.02302
0.03822
0.05319
0.06162
0.05980
0.04802
0.02984
0.01095
-0.00255
-0.00705
-0.00348
0.00327
0.00643
0.00034
-0.01529
-0.03292
-0.04177
-0.03660
-0.02121
-0.00356
0.00955
0.01340
0.00663
-0.00550
-0.01327
-0.01084
-0.00025
0.01301
0.02401
0.02743
0.01903
0.00139
-0.01516
-0.02054
-0.01287
0.00206
0.01640
0.02355
0.01918
0.00385
-0.01477
-0.02573
-0.02309
-0.01006
0.00469
0.01347
0.01300
0.00458
-0.00719
-0.01629
-0.01716
-0.00736
0.00930
0.02315
0.02540
0.01490
-0.00232
-0.01808
-0.02503
-0.01882
-0.00206
0.01514
0.02225
0.01617
0.00201
-0.01184
-0.01843
-0.01473
-0.00227
0.01307
0.02258
0.01929
0.00417
-0.01342
-0.02364
-0.02301
-0.01321
0.00209
0.01641
0.02155
0.01434
0.00035
-0.01168
-0.01648
-0.01256
-0.00089
0.01316
0.02072
0.01643
0.00348
-0.00993
-0.01717
-0.01566
-0.00624
0.00675
0.01603
0.01534
0.00424
-0.01083
-0.02048
-0.01873
-0.00719
0.00707
0.01719
0.01936
0.01237
-0.00156
-0.01534
-0.02031
-0.01273
0.00298
0.01757
0.02320
0.01764
0.00419
-0.01051
-0.01915
-0.01745
-0.00714
0.00521
0.01267
0.01150
0.00217
-0.01079
-0.02046
-0.02098
-0.01105
0.00464
0.01762
0.02092
0.01375
0.00140
-0.00860
-0.01042
-0.00247
0.01159
0.02435
0.02844
0.02028
0.00230
-0.01752
-0.03001
-0.03046
-0.02061
-0.00636
0.00493
0.00704
-0.00127
-0.01438
-0.02313
-0.02046
-0.00523
0.01633
0.03285
0.03478
0.02161
0.00182
-0.01371
-0.01750
-0.00734
0.01295
0.03321
0.04125
0.03154
0.00985
-0.01206
-0.02551
-0.02812
-0.02180
-0.01150
-0.00486
-0.00841
-0.02211
-0.03817
-0.04623
-0.04069
-0.02406
-0.00412
0.01188
0.02028
0.02095
0.01734
0.01618
0.02394
0.04135
0.06240
0.07854
0.08323
0.07410
0.05370
0.02839
0.00470
-0.01398
-0.02817
-0.04254
-0.06484
-0.10002
-0.14280
-0.18086
-0.20777
-0.22528
-0.22656
-0.18727
-0.08780
0.06057
0.22665
0.38998
0.53706
0.62651
0.59146
0.40343
0.12223
-0.14477
-0.33463
-0.45997
-0.54948
-0.58917
-0.54040
-0.39549
-0.19316
0.01144
0.17533
0.27620
0.31336
0.30452
0.27308
0.23368
0.18947
0.13901
0.08213
0.02158
-0.03650
-0.08325
-0.11097
-0.11788
-0.10902
-0.09301
-0.07825
-0.06981
-0.06678
-0.06259
-0.05000
-0.02694
0.00210
0.02944
0.04833
0.05522
0.05051
0.03870
0.02741
0.02362
0.02856
0.03610
0.03755
0.02849
0.01075
-0.00994
-0.02656
-0.03312
-0.02799
-0.01579
-0.00463
-0.00079
-0.00557
-0.01568
-0.02548
-0.02915
-0.02260
-0.00600
0.01403
0.02692
0.02603
0.01454
0.00170
-0.00575
-0.00643
-0.00128
0.00771
0.01611
0.01825
0.01148
-0.00139
-0.01381
-0.01912
-0.01416
-0.00162
0.01109
0.01637
0.01106
-0.00209
-0.01619
-0.02338
-0.01914
-0.00558
0.00971
0.01887
0.01823
0.00882
-0.00484
-0.01578
-0.01722
-0.00751
0.00740
0.01811
0.01891
0.01077
-0.00152
-0.01260
-0.01712
-0.01150
0.00173
0.01360
0.01572
0.00728
-0.00584
-0.01682
-0.02071
-0.01439
0.00129
0.01864
0.02670
0.02036
0.00465
-0.01121
-0.02107
-0.02230
-0.01409
0.00073
0.01426
0.01832
0.01102
-0.00199
-0.01210
-0.01336
-0.00520
0.00796
0.01909
0.02189
0.01422
-0.00061
-0.01605
-0.02545
-0.02417
-0.01195
0.00519
0.01737
0.01757
0.00643
-0.00868
-0.01832
-0.01626
-0.00304
0.01398
0.02475
0.02287
0.01011
-0.00524
-0.01493
-0.01562
-0.00846
0.00282
0.01253
0.01489
0.00796
-0.00469
-0.01689
-0.02329
-0.02080
-0.00981
0.00447
0.01414
0.01436
0.00656
-0.00385
-0.01101
-0.01020
0.00004
0.01537
0.02713
0.02837
0.01864
0.00353
-0.00964
-0.01566
-0.01312
-0.00460
0.00374
0.00497
-0.00370
-0.01789
-0.02912
-0.03110
-0.02308
-0.00845
0.00776
0.02006
0.02368
0.01732
0.00506
-0.00527
-0.00695
0.00137
0.01484
0.02587
0.02905
0.02333
0.01104
-0.00300
-0.01198
-0.01073
-0.00136
0.00688
0.00559
-0.00576
-0.02124
-0.03401
-0.03928
-0.03503
-0.02327
-0.00982
-0.00134
-0.00197
-0.01104
-0.02193
-0.02452
-0.01245
0.01146
0.03843
0.06067
0.07377
0.07568
0.06779
0.05630
0.04865
0.04715
0.04695
0.03981
0.01913
-0.01669
-0.06292
-0.11055
-0.15031
-0.17591
-0.18688
-0.19094
-0.19774
-0.20159
-0.17458
-0.08961
0.05097
0.22219
0.40438
0.57621
0.67848
0.62699
0.39577
0.07035
-0.21543
-0.39214
-0.48298
-0.53249
-0.54413
-0.49435
-0.37658
-0.21221
-0.03276
0.13238
0.25829
0.32993
0.34750
0.32210
0.26693
0.19434
0.11748
0.04904
-0.00312
-0.03854
-0.06225
-0.08037
-0.09634
-0.10986
-0.11820
-0.11788
-0.10611
-0.08252
-0.05060
-0.01759
0.00791
0.02039
0.02169
0.02024
0.02425
0.03532
0.04913
0.06001
0.06295
0.05396
0.03290
0.00656
-0.01388
-0.02012
-0.01242
0.00063
0.00780
0.00270
-0.01246
-0.02926
-0.03921
-0.03817
-0.02691
-0.01003
0.00545
0.01312
0.01123
0.00356
-0.00393
-0.00668
-0.00273
0.00686
0.01781
0.02427
0.02194
0.01074
-0.00416
-0.01461
-0.01488
-0.00584
0.00620
0.01412
0.01369
0.00502
-0.00765
-0.01809
-0.02107
-0.01454
-0.00094
0.01245
0.01706
0.00996
-0.00340
-0.01444
-0.01776
-0.01212
0.00076
0.01541
0.02344
0.01928
0.00539
-0.00980
-0.01850
-0.01728
-0.00697
0.00757
0.01817
0.01813
0.00773
-0.00622
-0.01631
-0.01854
-0.01194
0.00159
0.01565
0.02122
0.01384
-0.00171
-0.01568
-0.02145
-0.01784
-0.00654
0.00844
0.01964
0.01957
0.00774
-0.00772
-0.01657
-0.01418
-0.00313
0.01000
0.01860
0.01836
0.00886
-0.00571
-0.01798
-0.02106
-0.01296
0.00145
0.01325
0.01578
0.00888
-0.00267
-0.01314
-0.01770
-0.01311
-0.00025
0.01433
0.02180
0.01747
0.00389
-0.01110
-0.01911
-0.01572
-0.00291
0.01218
0.02149
0.02014
0.00863
-0.00736
-0.01966
-0.02216
-0.01429
-0.00107
0.01001
0.01303
0.00650
-0.00597
-0.01727
-0.02032
-0.01211
0.00394
0.01956
0.02678
0.02270
0.01055
-0.00279
-0.01043
-0.00852
0.00167
0.01381
0.01979
0.01467
-0.00022
-0.01828
-0.03126
-0.03346
-0.02451
-0.00937
0.00493
0.01243
0.00993
-0.00105
-0.01276
-0.01521
-0.00446
0.01330
0.02692
0.02897
0.01990
0.00609
-0.00486
-0.00775
-0.00125
0.01180
0.02477
0.02958
0.02164
0.00348
-0.01704
-0.03215
-0.03772
-0.03349
-0.02253
-0.01101
-0.00629
-0.01207
-0.02455
-0.03435
-0.03375
-0.02165
-0.00211
0.01928
0.03639
0.04367
0.04072
0.03471
0.03493
0.04464
0.05944
0.07187
0.07537
0.06531
0.04057
0.00559
-0.03076
-0.06046
-0.08161
-0.09888
-0.11852
-0.14315
-0.17205
-0.20331
-0.22815
-0.22258
-0.15658
-0.02158
0.15673
0.33948
0.49799
0.60405
0.61187
0.48242
0.23616
-0.04100
-0.26391
-0.41131
-0.50993
-0.57103
-0.56769
-0.47258
-0.29639
-0.08431
0.11173
0.25399
0.32680
0.33607
0.30154
0.24543
0.18508
0.13084
0.08540
0.04480
0.00366
-0.03907
-0.07908
-0.10985
-0.12588
-0.12488
-0.10926
-0.08552
-0.06117
-0.04202
-0.03052
-0.02432
-0.01690
-0.00225
0.01968
0.04271
0.05909
0.06388
0.05648
0.04077
0.02399
0.01332
0.01137
0.01483
0.01769
0.01529
0.00577
-0.00986
-0.02705
-0.03851
-0.03851
-0.02729
-0.01106
0.00194
0.00586
-0.00011
-0.01113
-0.01920
-0.01791
-0.00636
0.01032
0.02375
0.02693
0.01882
0.00521
-0.00588
-0.00964
-0.00574
0.00367
0.01450
0.02047
0.01628
0.00286
-0.01186
-0.01914
-0.01622
-0.00716
0.00173
0.00597
0.00390
-0.00357
-0.01261
-0.01737
-0.01387
-0.00333
0.00917
0.01874
0.02210
0.01695
0.00385
-0.01103
-0.01863
-0.01416
-0.00078
0.01353
0.02114
0.01799
0.00517
-0.01097
-0.02191
-0.02195
-0.01129
0.00417
0.01561
0.01622
0.00610
-0.00761
-0.01633
-0.01584
-0.00729
0.00495
0.01558
0.01974
0.01457
0.00117
-0.01401
-0.02152
-0.01570
-0.00027
0.01477
0.02153
0.01838
0.00747
-0.00707
-0.01846
-0.01953
-0.00904
0.00606
0.01600
0.01534
0.00512
-0.00929
-0.02071
-0.02268
-0.01294
0.00380
0.01781
0.02091
0.01238
-0.00112
-0.01105
-0.01228
-0.00482
0.00705
0.01686
0.01911
0.01236
-0.00025
-0.01297
-0.02006
-0.01810
-0.00784
0.00563
0.01505
0.01476
0.00421
-0.01114
-0.02254
-0.02322
-0.01262
0.00374
0.01801
0.02394
0.01894
0.00523
-0.01012
-0.01828
-0.01400
0.00075
0.01772
0.02719
0.02375
0.00975
-0.00643
-0.01627
-0.01635
-0.00939
-0.00125
0.00286
0.00058
-0.00706
-0.01626
-0.02197
-0.02016
-0.01022
0.00397
0.01584
0.02005
0.01564
0.00558
-0.00556
-0.01256
-0.01047
0.00170
0.01829
0.03052
0.03291
0.02552
0.01195
-0.00213
-0.01015
-0.00877
-0.00170
0.00256
-0.00218
-0.01526
-0.03070
-0.04148
-0.04303
-0.03485
-0.02069
-0.00705
0.00010
-0.00117
-0.00743
-0.01165
-0.00707
0.00875
0.03213
0.05548
0.07165
0.07686
0.07131
0.05890
0.04607
0.03801
0.03411
0.02799
0.01245
-0.01534
-0.05329
-0.09670
-0.13895
-0.17125
-0.18743
-0.19109
-0.19220
-0.18989
-0.16273
-0.08586
0.04345
0.20713
0.38692
0.55936
0.66533
0.62167
0.39927
0.07818
-0.20897
-0.38887
-0.48095
-0.52916
-0.53841
-0.48687
-0.36920
-0.20657
-0.02915
0.13404
0.25665
0.32329
0.33744
0.31406
0.26532
0.19794
0.12097
0.04824
-0.00867
-0.04643
-0.06860
-0.08150
-0.09118
-0.10101
-0.11005
-0.11362
-0.10605
-0.08453
-0.05249
-0.01912
0.00628
0.02017
0.02504
0.02562
0.02652
0.03151
0.04188
0.05418
0.06106
0.05608
0.03866
0.01463
-0.00751
-0.02090
-0.02257
-0.01443
-0.00318
0.00254
-0.00256
-0.01650
-0.03108
-0.03728
-0.03104
-0.01543
0.00194
0.01402
0.01739
0.01224
0.00176
-0.00811
-0.01083
-0.00349
0.01047
0.02297
0.02604
0.01687
0.00024
-0.01398
-0.01780
-0.01069
0.00141
0.01147
0.01494
0.01049
0.00006
-0.01167
-0.01913
-0.01825
-0.00848
0.00571
0.01621
0.01645
0.00632
-0.00798
-0.01821
-0.01875
-0.00955
0.00420
0.01550
0.01943
0.01456
0.00297
-0.00949
-0.01531
-0.01053
0.00158
0.01316
0.01779
0.01350
0.00185
-0.01284
-0.02330
-0.02229
-0.00883
0.00916
0.02049
0.01922
0.00781
-0.00640
-0.01632
-0.01791
-0.01067
0.00236
0.01500
0.02008
0.01392
-0.00032
-0.01418
-0.01956
-0.01362
0.00037
0.01496
0.02196
0.01702
0.00296
-0.01188
-0.01943
-0.01664
-0.00599
0.00660
0.01451
0.01351
0.00408
-0.00853
-0.01697
-0.01621
-0.00686
0.00564
0.01516
0.01796
0.01276
0.00125
-0.01085
-0.01605
-0.01066
0.00218
0.01508
0.02081
0.01555
0.00113
-0.01484
-0.02332
-0.02007
-0.00815
0.00522
0.01315
0.01208
0.00284
-0.00958
-0.01822
-0.01782
-0.00794
0.00681
0.01954
0.02470
0.02038
0.00893
-0.00357
-0.00984
-0.00580
0.00586
0.01687
0.01912
0.01004
-0.00670
-0.02414
-0.03525
-0.03498
-0.02267
-0.00389
0.01164
0.01609
0.00862
-0.00420
-0.01264
-0.01000
0.00287
0.01809
0.02647
0.02377
0.01259
-0.00061
-0.00923
-0.00906
0.00018
0.01415
0.02571
0.02848
0.02002
0.00287
-0.01647
-0.03016
-0.03276
-0.02471
-0.01298
-0.00701
-0.01178
-0.02416
-0.03623
-0.04135
-0.03633
-0.02058
0.00315
0.02700
0.04137
0.04276
0.03711
0.03385
0.03826
0.04998
0.06525
0.07723
0.07728
0.06051
0.03039
-0.00405
-0.03504
-0.05946
-0.07827
-0.09570
-0.11722
-0.14533
-0.17789
-0.21031
-0.23250
-0.22113
-0.14764
-0.00695
0.16967
0.34273
0.49294
0.60101
0.61576
0.48529
0.22941
-0.05375
-0.27353
-0.41615
-0.51329
-0.57067
-0.55869
-0.45904
-0.29006
-0.08996
0.10211
0.25013
0.32928
0.33900
0.30150
0.24425
0.18598
0.13484
0.09106
0.04967
0.00534
-0.04192
-0.08583
-0.11797
-0.13203
-0.12608
-0.10429
-0.07683
-0.05478
-0.04284
-0.03743
-0.03171
-0.02049
-0.00144
0.02424
0.05018
0.06654
0.06687
0.05322
0.03393
0.01780
0.01027
0.01217
0.01910
0.02320
0.01797
0.00248
-0.01809
-0.03511
-0.04085
-0.03317
-0.01730
-0.00222
0.00513
0.00258
-0.00725
-0.01767
-0.02087
-0.01351
0.00070
0.01465
0.02296
0.02301
0.01435
0.00031
-0.01105
-0.01163
-0.00061
0.01417
0.02292
0.02106
0.01007
-0.00534
-0.01904
-0.02447
-0.01839
-0.00446
0.00854
0.01318
0.00783
-0.00360
-0.01437
-0.01792
-0.01145
0.00211
0.01595
0.02310
0.01957
0.00663
-0.00891
-0.01867
-0.01830
-0.00913
0.00399
0.01483
0.01769
0.01073
-0.00229
-0.01437
-0.01910
-0.01321
0.00104
0.01550
0.02121
0.01541
0.00243
-0.01112
-0.01950
-0.01832
-0.00708
0.00788
0.01682
0.01465
0.00430
-0.00754
-0.01539
-0.01594
-0.00797
0.00574
0.01799
0.02124
0.01331
-0.00110
-0.01395
-0.01886
-0.01400
-0.00212
0.01073
0.01751
0.01391
0.00183
-0.01128
-0.01776
-0.01443
-0.00322
0.01016
0.01806
0.01503
0.00253
-0.01180
-0.02006
-0.01845
-0.00748
0.00813
0.02030
0.02221
0.01345
-0.00037
-0.01214
-0.01634
-0.01063
0.00209
0.01397
0.01737
0.01019
-0.00364
-0.01734
-0.02427
-0.02062
-0.00788
0.00747
0.01756
0.01734
0.00702
-0.00758
-0.01755
-0.01640
-0.00448
0.01161
0.02369
0.02626
0.01873
0.00556
-0.00639
-0.01186
-0.00924
-0.00045
0.00895
0.01112
0.00141
-0.01624
-0.03157
-0.03597
-0.02728
-0.00902
0.01129
0.02398
0.02256
0.00976
-0.00404
-0.00991
-0.00660
0.00210
0.01247
0.02109
0.02349
0.01705
0.00498
-0.00511
-0.00698
0.00017
0.01157
0.01944
0.01750
0.00499
-0.01328
-0.03046
-0.04033
-0.03901
-0.02771
-0.01376
-0.00604
-0.00812
-0.01638
-0.02402
-0.02526
-0.01698
0.00070
0.02381
0.04528
0.05803
0.05926
0.05276
0.04612
0.04517
0.05036
0.05731
0.05903
0.04831
0.02124
-0.01923
-0.06340
-0.10061
-0.12618
-0.14203
-0.15229
-0.16229
-0.17878
-0.19949
-0.19996
-0.14410
-0.01679
0.16131
0.35345
0.52400
0.62824
0.61020
0.44303
0.17297
-0.10089
-0.30274
-0.42696
-0.50538
-0.54681
-0.52679
-0.42727
-0.26463
-0.07723
0.09854
0.23617
0.31866
0.34198
0.31668
0.26100
0.19237
0.12458
0.06712
0.02323
-0.01002
-0.03814
-0.06557
-0.09357
-0.11871
-0.13342
-0.13085
-0.11047
-0.07862
-0.04455
-0.01645
0.00120
0.00919
0.01281
0.01814
0.02852
0.04310
0.05729
0.06448
0.05947
0.04217
0.01900
-0.00024
-0.00860
-0.00615
0.00136
0.00684
0.00480
-0.00688
-0.02461
-0.03903
-0.04089
-0.02865
-0.00956
0.00669
0.01383
0.01033
-0.00108
-0.01326
-0.01724
-0.00879
0.00710
0.02043
0.02463
0.01973
0.00894
-0.00375
-0.01272
-0.01231
-0.00187
0.01243
0.02191
0.02071
0.00833
-0.00963
-0.02334
-0.02547
-0.01704
-0.00478
0.00593
0.01219
0.01098
0.00160
-0.01006
-0.01531
-0.01083
0.00007
0.01218
0.02033
0.01921
0.00735
-0.00871
-0.01842
-0.01623
-0.00485
0.00907
0.01939
0.02124
0.01208
-0.00521
-0.02176
-0.02791
-0.02025
-0.00358
0.01279
0.02052
0.01627
0.00329
-0.01022
-0.01619
-0.01142
0.00129
0.01495
0.02161
0.01676
0.00263
-0.01313
-0.02256
-0.02145
-0.01066
0.00452
0.01665
0.01992
0.01312
0.00019
-0.01185
-0.01649
-0.01139
0.00024
0.01181
0.01718
0.01334
0.00156
-0.01229
-0.01988
-0.01607
-0.00367
0.00869
0.01419
0.01203
0.00491
-0.00442
-0.01248
-0.01432
-0.00686
0.00673
0.01804
0.01965
0.01070
-0.00308
-0.01395
-0.01693
-0.01138
-0.00008
0.01173
0.01743
0.01239
-0.00178
-0.01699
-0.02418
-0.01961
-0.00665
0.00726
0.01522
0.01411
0.00538
-0.00571
-0.01194
-0.00786
0.00570
0.02102
0.02908
0.02611
0.01420
-0.00220
-0.01772
-0.02592
-0.02258
-0.01069
0.00072
0.00425
-0.00055
-0.00941
-0.01766
-0.02103
-0.01575
-0.00172
0.01538
0.02725
0.02818
0.01726
-0.00092
-0.01649
-0.01944
-0.00826
0.00906
0.02343
0.03031
0.02748
0.01468
-0.00193
-0.01153
-0.00910
-0.00040
0.00530
0.00332
-0.00662
-0.02266
-0.03928
-0.04765
-0.04227
-0.02662
-0.01017
-0.00045
0.00105
-0.00277
-0.00692
-0.00535
0.00663
0.02861
0.05388
0.07310
0.07981
0.07375
0.05990
0.04475
0.03293
0.02555
0.01952
0.00814
-0.01500
-0.05113
-0.09511
-0.13842
-0.17221
-0.19062
-0.19567
-0.19484
-0.18614
-0.14925
-0.06271
0.07243
0.23717
0.41367
0.57437
0.65473
0.57803
0.33560
0.02193
-0.23968
-0.39875
-0.48540
-0.53412
-0.53573
-0.46576
-0.32777
-0.15383
0.02000
0.16575
0.26451
0.31110
0.31561
0.29229
0.24803
0.18537
0.11209
0.04152
-0.01571
-0.05570
-0.07875
-0.08781
-0.08979
-0.09307
-0.10050
-0.10639
-0.10221
-0.08424
-0.05545
-0.02223
0.00849
0.03044
0.03976
0.03749
0.03011
0.02605
0.03029
0.04115
0.05140
0.05280
0.04149
0.02076
-0.00122
-0.01684
-0.02241
-0.01838
-0.00905
-0.00179
-0.00294
-0.01267
-0.02506
-0.03309
-0.03240
-0.02193
-0.00456
0.01225
0.01976
0.01481
0.00268
-0.00773
-0.01045
-0.00418
0.00897
0.02328
0.03039
0.02466
0.00844
-0.00943
-0.02013
-0.01961
-0.00930
0.00488
0.01486
0.01480
0.00493
-0.00897
-0.01973
-0.02233
-0.01508
-0.00055
0.01402
0.01997
0.01361
-0.00064
-0.01363
-0.01779
-0.01113
0.00246
0.01559
0.02135
0.01665
0.00370
-0.01079
-0.01881
-0.01600
-0.00465
0.00853
0.01706
0.01702
0.00763
-0.00735
-0.01961
-0.02114
-0.01089
0.00438
0.01573
0.01792
0.01090
-0.00144
-0.01291
-0.01736
-0.01231
-0.00082
0.01084
0.01729
0.01581
0.00640
-0.00734
-0.01792
-0.01803
-0.00682
0.00860
0.01846
0.01731
0.00673
-0.00704
-0.01703
-0.01834
-0.00983
0.00462
0.01692
0.01937
0.01053
-0.00384
-0.01571
-0.01972
-0.01428
-0.00129
0.01309
0.02039
0.01586
0.00280
-0.01042
-0.01710
-0.01506
-0.00502
0.00969
0.02179
0.02284
0.01069
-0.00715
-0.01962
-0.02077
-0.01223
0.00007
0.00959
0.01158
0.00501
-0.00666
-0.01689
-0.01920
-0.01102
0.00403
0.01821
0.02475
0.02121
0.00956
-0.00442
-0.01291
-0.01073
0.00048
0.01354
0.02093
0.01847
0.00600
-0.01227
-0.02810
-0.03328
-0.02557
-0.01013
0.00483
0.01260
0.01005
-0.00084
-0.01261
-0.01633
-0.00827
0.00719
0.02093
0.02542
0.01889
0.00546
-0.00763
-0.01310
-0.00663
0.01013
0.02896
0.03945
0.03533
0.01752
-0.00682
-0.02755
-0.03636
-0.03185
-0.02044
-0.01131
-0.01032
-0.01802
-0.03052
-0.04070
-0.04116
-0.02901
-0.00816
0.01357
0.02925
0.03543
0.03300
0.02743
0.02688
0.03715
0.05669
0.07655
0.08607
0.07942
0.05787
0.02761
-0.00393
-0.03125
-0.05288
-0.07181
-0.09363
-0.12242
-0.15699
-0.19220
-0.22284
-0.24021
-0.22322
-0.14563
-0.00418
0.16912
0.33632
0.48334
0.59783
0.63001
0.51872
0.27043
-0.02121
-0.25796
-0.41709
-0.52898
-0.60122
-0.60011
-0.49884
-0.31392
-0.09306
0.11211
0.26114
0.33450
0.34024
0.30543
0.25611
0.20514
0.15480
0.10396
0.05165
-0.00190
-0.05370
-0.09690
-0.12320
-0.12875
-0.11754
-0.09825
-0.07849
-0.06285
-0.05308
-0.04693
-0.03819
-0.02085
0.00565
0.03512
0.05815
0.06750
0.06173
0.04522
0.02598
0.01297
0.01191
0.02061
0.02940
0.02859
0.01591
-0.00338
-0.02159
-0.03256
-0.03307
-0.02394
-0.01059
-0.00081
-0.00048
-0.00981
-0.02246
-0.02921
-0.02434
-0.00913
0.00991
0.02515
0.03055
0.02409
0.00936
-0.00583
-0.01365
-0.01020
0.00224
0.01606
0.02289
0.01886
0.00621
-0.00889
-0.01929
-0.01999
-0.01088
0.00288
0.01347
0.01434
0.00447
-0.00994
-0.01984
-0.02024
-0.01201
0.00133
0.01490
0.02175
0.01646
0.00138
-0.01348
-0.01864
-0.01197
0.00159
0.01424
0.01927
0.01438
0.00268
-0.00963
-0.01693
-0.01591
-0.00635
0.00789
0.01929
0.02061
0.01008
-0.00657
-0.01948
-0.02120
-0.01142
0.00325
0.01393
0.01467
0.00554
-0.00774
-0.01748
-0.01842
-0.00992
0.00447
0.01828
0.02459
0.01967
0.00583
-0.00935
-0.01743
-0.01434
-0.00299
0.00924
0.01590
0.01418
0.00419
-0.01079
-0.02304
-0.02417
-0.01295
0.00288
0.01419
0.01710
0.01203
0.00127
-0.00994
-0.01418
-0.00775
0.00536
0.01682
0.02034
0.01433
0.00130
-0.01316
-0.02178
-0.01929
-0.00653
0.00930
0.01924
0.01816
0.00714
-0.00751
-0.01764
-0.01776
-0.00837
0.00460
0.01373
0.01400
0.00475
-0.01000
-0.02295
-0.02682
-0.01807
0.00105
0.02273
0.03642
0.03478
0.01964
0.00106
-0.01056
-0.01119
-0.00316
0.00760
0.01340
0.00808
-0.00802
-0.02687
-0.03819
-0.03626
-0.02221
-0.00218
0.01521
0.02230
0.01699
0.00464
-0.00608
-0.00919
-0.00339
0.00871
0.02077
0.02480
0.01731
0.00324
-0.00802
-0.01040
-0.00367
0.00947
0.02442
0.03309
0.02685
0.00486
-0.02256
-0.04162
-0.04526
-0.03533
-0.01885
-0.00501
-0.00204
-0.01182
-0.02714
-0.03705
-0.03489
-0.02041
0.00277
0.02806
0.04638
0.05140
0.04595
0.03996
0.04117
0.04996
0.06219
0.07249
0.07423
0.06089
0.03060
-0.01090
-0.05250
-0.08454
-0.10568
-0.12280
-0.14250
-0.16548
-0.19080
-0.21690
-0.22896
-0.19359
-0.08489
0.08413
0.27231
0.44900
0.59466
0.66164
0.57981
0.33577
0.02166
-0.23481
-0.38223
-0.45966
-0.51316
-0.53739
-0.49988
-0.38694
-0.21396
-0.01403
0.17008
0.29810
0.35192
0.34243
0.29465
0.23023
0.16383
0.10556
0.05914
0.02033
-0.01791
-0.05812
-0.09623
-0.12442
-0.13555
-0.12732
-0.10419
-0.07523
-0.04946
-0.03215
-0.02342
-0.01873
-0.01131
0.00363
0.02569
0.04924
0.06624
0.07020
0.05980
0.04027
0.02018
0.00647
0.00226
0.00689
0.01502
0.01730
0.00690
-0.01325
-0.03251
-0.04170
-0.03863
-0.02619
-0.00971
0.00362
0.00700
-0.00075
-0.01296
-0.01959
-0.01481
-0.00073
0.01531
0.02618
0.02795
0.02008
0.00579
-0.00789
-0.01344
-0.00826
0.00360
0.01481
0.01914
0.01358
-0.00020
-0.01554
-0.02381
-0.02036
-0.00776
0.00636
0.01432
0.01264
0.00350
-0.00752
-0.01534
-0.01666
-0.00932
0.00531
0.01937
0.02281
0.01270
-0.00386
-0.01650
-0.01891
-0.01085
0.00292
0.01496
0.01885
0.01258
-0.00067
-0.01393
-0.01956
-0.01374
0.00032
0.01441
0.02113
0.01768
0.00554
-0.01051
-0.02271
-0.02340
-0.01117
0.00633
0.01775
0.01689
0.00646
-0.00595
-0.01428
-0.01611
-0.01055
0.00194
0.01658
0.02448
0.01949
0.00404
-0.01273
-0.02167
-0.01858
-0.00548
0.01043
0.02030
0.01869
0.00684
-0.00845
-0.01921
-0.02070
-0.01311
-0.00051
0.01128
0.01645
0.01152
-0.00141
-0.01424
-0.01798
-0.00937
0.00677
0.02094
0.02497
0.01697
0.00187
-0.01245
-0.01952
-0.01641
-0.00458
0.00976
0.01803
0.01462
0.00105
-0.01490
-0.02447
-0.02319
-0.01231
0.00322
0.01685
0.02177
0.01400
-0.00279
-0.01736
-0.01928
-0.00790
0.00873
0.02223
0.02816
0.02426
0.01070
-0.00650
-0.01722
-0.01550
-0.00455
0.00678
0.01075
0.00441
-0.00983
-0.02520
-0.03358
-0.03011
-0.01588
0.00324
0.01964
0.02680
0.02197
0.00825
-0.00637
-0.01343
-0.00913
0.00352
0.01679
0.02311
0.01972
0.00988
0.00015
-0.00365
0.00084
0.01103
0.01961
0.01885
0.00671
-0.01197
-0.03009
-0.04206
-0.04426
-0.03599
-0.02140
-0.00843
-0.00394
-0.00927
-0.01919
-0.02504
-0.01989
-0.00240
0.02305
0.04838
0.06485
0.06755
0.05932
0.04890
0.04381
0.04541
0.05021
0.05275
0.04599
0.02306
-0.01643
-0.06288
-0.10347
-0.13221
-0.15047
-0.16134
-0.17027
-0.18606
-0.20661
-0.20298
-0.13541
0.00632
0.19110
0.37918
0.54483
0.65172
0.63423
0.44840
0.14369
-0.15560
-0.35836
-0.46988
-0.53606
-0.56234
-0.51844
-0.39689
-0.22842
-0.04851
0.12019
0.25577
0.33509
0.35088
0.31758
0.25705
0.18568
0.11446
0.05235
0.00517
-0.02705
-0.04969
-0.06974
-0.09092
-0.11123
-0.12460
-0.12467
-0.10850
-0.07875
-0.04363
-0.01321
0.00577
0.01294
0.01356
0.01539
0.02427
0.03989
0.05556
0.06318
0.05863
0.04335
0.02280
0.00400
-0.00722
-0.00849
-0.00207
0.00550
0.00629
-0.00358
-0.02020
-0.03477
-0.04039
-0.03526
-0.02121
-0.00296
0.01178
0.01567
0.00752
-0.00615
-0.01561
-0.01397
-0.00119
0.01587
0.02788
0.02895
0.01936
0.00424
-0.00927
-0.01502
-0.01070
0.00049
0.01128
0.01471
0.00865
-0.00333
-0.01488
-0.02050
-0.01733
-0.00612
0.00795
0.01696
0.01526
0.00377
-0.01072
-0.02001
-0.01893
-0.00768
0.00837
0.02103
0.02311
0.01279
-0.00390
-0.01638
-0.01745
-0.00823
0.00480
0.01523
0.01865
0.01275
-0.00065
-0.01462
-0.02107
-0.01651
-0.00381
0.01017
0.01815
0.01567
0.00385
-0.01062
-0.01934
-0.01741
-0.00608
0.00854
0.01896
0.01982
0.01038
-0.00481
-0.01771
-0.02124
-0.01357
0.00098
0.01511
0.02233
0.01908
0.00587
-0.01118
-0.02154
-0.01742
-0.00134
0.01508
0.02094
0.01364
-0.00189
-0.01765
-0.02578
-0.02180
-0.00768
0.00914
0.02079
0.02257
0.01368
-0.00205
-0.01623
-0.02004
-0.01069
0.00631
0.02083
0.02462
0.01591
-0.00035
-0.01603
-0.02366
-0.01938
-0.00528
0.01048
0.01823
0.01385
0.00116
-0.01204
-0.01950
-0.01843
-0.00927
0.00423
0.01556
0.01857
0.01146
-0.00180
-0.01339
-0.01592
-0.00713
0.00818
0.02147
0.02590
0.01950
0.00557
-0.00873
-0.01631
-0.01450
-0.00580
0.00427
0.00917
0.00400
-0.01003
-0.02474
-0.03081
-0.02466
-0.00946
0.00814
0.02078
0.02307
0.01514
0.00307
-0.00617
-0.00917
-0.00515
0.00559
0.01908
0.02726
0.02441
0.01295
0.00051
-0.00662
-0.00619
0.00041
0.00850
0.01163
0.00499
-0.01140
-0.03152
-0.04545
-0.04565
-0.03332
-0.01729
-0.00585
-0.00152
-0.00364
-0.01055
-0.01676
-0.01313
0.00517
0.03225
0.05613
0.06845
0.06858
0.06086
0.05084
0.04327
0.04051
0.04109
0.03945
0.02763
0.00008
-0.04123
-0.08713
-0.12756
-0.15606
-0.17047
-0.17558
-0.18284
-0.19560
-0.19269
-0.13933
-0.01983
0.14957
0.33934
0.51860
0.64022
0.63889
0.47703
0.19649
-0.09819
-0.32139
-0.46020
-0.54204
-0.57302
-0.53198
-0.41225
-0.24119
-0.05805
0.10757
0.23536
0.31185
0.33605
0.31889
0.27295
0.20749
0.13281
0.06210
0.00564
-0.03355
-0.05837
-0.07473
-0.08900
-0.10395
-0.11633
-0.11979
-0.10977
-0.08585
-0.05230
-0.01738
0.01018
0.02548
0.02865
0.02418
0.02004
0.02370
0.03551
0.04775
0.05211
0.04614
0.03222
0.01439
-0.00159
-0.00923
-0.00628
0.00225
0.00805
0.00526
-0.00716
-0.02514
-0.04037
-0.04452
-0.03476
-0.01540
0.00500
0.01767
0.01768
0.00708
-0.00591
-0.01251
-0.00890
0.00266
0.01614
0.02480
0.02407
0.01381
-0.00087
-0.01203
-0.01405
-0.00715
0.00381
0.01296
0.01550
0.00936
-0.00304
-0.01562
-0.02238
-0.01983
-0.00775
0.00870
0.01925
0.01597
0.00145
-0.01369
-0.02104
-0.01883
-0.00838
0.00780
0.02298
0.02749
0.01707
-0.00166
-0.01616
-0.01798
-0.00803
0.00609
0.01640
0.01839
0.01088
-0.00419
-0.02001
-0.02661
-0.01885
-0.00210
0.01295
0.01932
0.01583
0.00421
-0.01039
-0.01897
-0.01515
-0.00204
0.01135
0.01877
0.01830
0.00934
-0.00563
-0.01838
-0.02035
-0.01060
0.00442
0.01695
0.02117
0.01414
-0.00155
-0.01714
-0.02325
-0.01664
-0.00157
0.01375
0.02156
0.01792
0.00464
-0.01113
-0.02106
-0.02059
-0.01085
0.00332
0.01581
0.02052
0.01409
-0.00039
-0.01372
-0.01714
-0.00894
0.00539
0.01820
0.02342
0.01773
0.00241
-0.01523
-0.02531
-0.02251
-0.00952
0.00571
0.01484
0.01283
0.00081
-0.01377
-0.02185
-0.01887
-0.00640
0.01026
0.02399
0.02745
0.01782
0.00119
-0.01097
-0.01139
-0.00200
0.01034
0.01956
0.02130
0.01269
-0.00473
-0.02310
-0.03266
-0.02897
-0.01554
-0.00037
0.00871
0.00741
-0.00244
-0.01330
-0.01715
-0.01098
0.00295
0.01923
0.02991
0.02752
0.01237
-0.00545
-0.01448
-0.01062
0.00310
0.02051
0.03377
0.03536
0.02288
0.00147
-0.01948
-0.03171
-0.03175
-0.02211
-0.00994
-0.00337
-0.00724
-0.02028
-0.03531
-0.04300
-0.03778
-0.02162
-0.00212
0.01353
0.02260
0.02606
0.02636
0.02730
0.03408
0.04935
0.06875
0.08236
0.08201
0.06655
0.04079
0.01179
-0.01405
-0.03347
-0.04847
-0.06560
-0.09139
-0.12660
-0.16468
-0.19727
-0.21980
-0.22587
-0.19782
-0.11518
0.02110
0.18446
0.34929
0.50295
0.61449
0.61562
0.45538
0.17572
-0.10552
-0.30103
-0.41702
-0.50034
-0.55679
-0.54759
-0.44597
-0.26934
-0.06333
0.12400
0.25597
0.31701
0.31790
0.28563
0.24329
0.19952
0.15307
0.10168
0.04576
-0.01157
-0.06439
-0.10459
-0.12524
-0.12518
-0.11029
-0.08994
-0.07202
-0.06035
-0.05429
-0.04894
-0.03697
-0.01402
0.01637
0.04415
0.06019
0.06164
0.05140
0.03554
0.02188
0.01730
0.02257
0.03067
0.03222
0.02270
0.00440
-0.01616
-0.03147
-0.03615
-0.02952
-0.01577
-0.00213
0.00397
-0.00119
-0.01382
-0.02441
-0.02533
-0.01627
-0.00203
0.01225
0.02204
0.02305
0.01409
0.00043
-0.00878
-0.00782
0.00180
0.01395
0.02193
0.02066
0.00893
-0.00804
-0.02062
-0.02170
-0.01191
0.00209
0.01259
0.01454
0.00742
-0.00472
-0.01563
-0.02001
-0.01523
-0.00259
0.01186
0.01976
0.01647
0.00463
-0.00843
-0.01580
-0.01403
-0.00405
0.00896
0.01775
0.01718
0.00715
-0.00740
-0.01867
-0.01996
-0.01010
0.00544
0.01825
0.02226
0.01583
0.00148
-0.01422
-0.02232
-0.01735
-0.00280
0.01118
0.01650
0.01210
0.00132
-0.01138
-0.02007
-0.01839
-0.00515
0.01218
0.02250
0.01993
0.00739
-0.00708
-0.01619
-0.01623
-0.00742
0.00630
0.01786
0.02024
0.01123
-0.00441
-0.01795
-0.02224
-0.01552
-0.00177
0.01177
0.01835
0.01481
0.00260
-0.01220
-0.02082
-0.01717
-0.00329
0.01214
0.02096
0.02007
0.01037
-0.00415
-0.01613
-0.01817
-0.00874
0.00619
0.01776
0.01953
0.01025
-0.00561
-0.01967
-0.02456
-0.01863
-0.00582
0.00751
0.01509
0.01284
0.00181
-0.01099
-0.01694
-0.01161
0.00309
0.02020
0.03062
0.02810
0.01405
-0.00294
-0.01389
-0.01518
-0.00840
0.00236
0.01113
0.01106
-0.00081
-0.01926
-0.03371
-0.03621
-0.02597
-0.00766
0.01146
0.02328
0.02253
0.01142
-0.00129
-0.00748
-0.00518
0.00292
0.01319
0.02194
0.02482
0.01929
0.00838
-0.00058
-0.00224
0.00254
0.00887
0.01182
0.00786
-0.00474
-0.02354
-0.04088
-0.04803
-0.04191
-0.02723
-0.01214
-0.00293
-0.00195
-0.00777
-0.01535
-0.01738
-0.00822
0.01175
0.03569
0.05491
0.06418
0.06340
0.05602
0.04758
0.04406
0.04766
0.05288
0.04913
0.02920
-0.00521
-0.04644
-0.08749
-0.12413
-0.15236
-0.16864
-0.17637
-0.18712
-0.20471
-0.20643
-0.15331
-0.02854
0.14443
0.32989
0.50610
0.64128
0.66619
0.51954
0.22990
-0.08559
-0.32222
-0.46260
-0.54124
-0.57170
-0.53717
-0.43068
-0.27180
-0.08992
0.08706
0.23096
0.31961
0.34880
0.33061
0.28033
0.21051
0.13425
0.06530
0.01232
-0.02412
-0.04885
-0.06810
-0.08663
-0.10508
-0.11929
-0.12297
-0.11196
-0.08704
-0.05411
-0.02192
0.00187
0.01397
0.01640
0.01534
0.01818
0.02903
0.04521
0.05877
0.06253
0.05432
0.03658
0.01474
-0.00346
-0.01110
-0.00754
0.00030
0.00369
-0.00160
-0.01398
-0.02808
-0.03740
-0.03724
-0.02691
-0.01013
0.00602
0.01376
0.00958
-0.00195
-0.01138
-0.01196
-0.00342
0.01013
0.02295
0.02896
0.02415
0.00999
-0.00607
-0.01526
-0.01382
-0.00496
0.00517
0.01192
0.01260
0.00578
-0.00650
-0.01738
-0.01940
-0.01082
0.00300
0.01389
0.01604
0.00857
-0.00457
-0.01678
-0.02203
-0.01749
-0.00460
0.01123
0.02236
0.02249
0.01115
-0.00475
-0.01509
-0.01389
-0.00312
0.00974
0.01698
0.01465
0.00410
-0.00899
-0.01786
-0.01811
-0.00934
0.00467
0.01673
0.01937
0.01001
-0.00640
-0.02036
-0.02388
-0.01509
0.00085
0.01508
0.02045
0.01533
0.00355
-0.00821
-0.01380
-0.01070
-0.00108
0.01030
0.01852
0.01914
0.00951
-0.00754
-0.02257
-0.02579
-0.01526
0.00187
0.01545
0.01859
0.01033
-0.00422
-0.01607
-0.01790
-0.00926
0.00420
0.01597
0.02149
0.01763
0.00416
-0.01293
-0.02321
-0.01956
-0.00419
0.01326
0.02301
0.02100
0.00942
-0.00615
-0.01883
-0.02200
-0.01301
0.00268
0.01412
0.01393
0.00380
-0.00966
-0.02088
-0.02535
-0.01849
-0.00049
0.01942
0.02903
0.02436
0.01224
0.00203
-0.00185
0.00028
0.00662
0.01427
0.01835
0.01373
-0.00120
-0.02216
-0.03969
-0.04380
-0.03140
-0.01027
0.00673
0.01229
0.00821
0.00005
-0.00712
-0.00793
0.00163
0.01807
0.03036
0.02987
0.01821
0.00336
-0.00795
-0.01165
-0.00504
0.01032
0.02598
0.03134
0.02202
0.00253
-0.01832
-0.03293
-0.03721
-0.03110
-0.01905
-0.00867
-0.00667
-0.01462
-0.02798
-0.03860
-0.03863
-0.02473
-0.00096
0.02302
0.03877
0.04433
0.04290
0.03914
0.03843
0.04579
0.06120
0.07654
0.08060
0.06736
0.03861
0.00100
-0.03696
-0.06732
-0.08746
-0.10293
-0.12223
-0.14815
-0.17709
-0.20490
-0.22442
-0.21535
-0.14959
-0.01781
0.15682
0.34024
0.50803
0.62649
0.63317
0.47965
0.20227
-0.08451
-0.28608
-0.39990
-0.47680
-0.53631
-0.54616
-0.47136
-0.31532
-0.11465
0.08407
0.23920
0.32498
0.34115
0.30919
0.25521
0.19671
0.14186
0.09352
0.05024
0.00759
-0.03723
-0.08100
-0.11533
-0.13225
-0.12941
-0.11122
-0.08597
-0.06203
-0.04488
-0.03513
-0.02826
-0.01776
0.00003
0.02341
0.04677
0.06354
0.06818
0.05836
0.03796
0.01719
0.00644
0.00822
0.01603
0.02116
0.01868
0.00777
-0.00924
-0.02624
-0.03533
-0.03267
-0.02180
-0.00997
-0.00264
-0.00198
-0.00784
-0.01693
-0.02244
-0.01793
-0.00314
0.01502
0.02766
0.02964
0.02127
0.00702
-0.00619
-0.01153
-0.00632
0.00540
0.01548
0.01773
0.01137
-0.00054
-0.01358
-0.02245
-0.02198
-0.01090
0.00524
0.01686
0.01699
0.00581
-0.00969
-0.01987
-0.01835
-0.00638
0.00830
0.01762
0.01797
0.00999
-0.00300
-0.01486
-0.01834
-0.01034
0.00445
0.01683
0.02022
0.01400
0.00163
-0.01168
-0.01974
-0.01745
-0.00508
0.01034
0.01941
0.01671
0.00384
-0.01179
-0.02111
-0.01873
-0.00636
0.00867
0.01855
0.01910
0.01043
-0.00384
-0.01683
-0.02078
-0.01274
0.00190
0.01385
0.01770
0.01377
0.00431
-0.00765
-0.01624
-0.01459
-0.00211
0.01260
0.01888
0.01327
0.00060
-0.01199
-0.01932
-0.01850
-0.00935
0.00434
0.01565
0.01834
0.01058
-0.00361
-0.01598
-0.01855
-0.00908
0.00693
0.02015
0.02381
0.01696
0.00341
-0.01085
-0.01951
-0.01824
-0.00767
0.00571
0.01327
0.01030
-0.00109
-0.01425
-0.02233
-0.02101
-0.00989
0.00642
0.01964
0.02276
0.01509
0.00234
-0.00773
-0.00938
-0.00123
0.01284
0.02488
0.02706
0.01656
-0.00239
-0.02062
-0.02956
-0.02647
-0.01529
-0.00289
0.00472
0.00389
-0.00508
-0.01688
-0.02358
-0.01989
-0.00605
0.01309
0.02980
0.03568
0.02677
0.00800
-0.00936
-0.01561
-0.00793
0.00960
0.02774
0.03573
0.02825
0.00961
-0.01025
-0.02309
-0.02524
-0.01763
-0.00657
-0.00165
-0.00842
-0.02314
-0.03673
-0.04244
-0.03843
-0.02605
-0.00908
0.00648
0.01534
0.01639
0.01321
0.01211
0.01905
0.03589
0.05799
0.07646
0.08349
0.07644
0.05821
0.03510
0.01366
-0.00239
-0.01443
-0.02861
-0.05206
-0.08774
-0.13147
-0.17357
-0.20480
-0.22199
-0.22376
-0.19882
-0.12738
-0.00366
0.15104
0.30948
0.46002
0.58478
0.62773
0.52513
0.28157
-0.01304
-0.26148
-0.43384
-0.54841
-0.60603
-0.57866
-0.45562
-0.26923
-0.06969
0.10534
0.23357
0.30287
0.31655
0.29461
0.25876
0.21733
0.16747
0.10740
0.04218
-0.01959
-0.06992
-0.10248
-0.11418
-0.10842
-0.09512
-0.08434
-0.07948
-0.07704
-0.07155
-0.05880
-0.03666
-0.00665
0.02447
0.04714
0.05491
0.04884
0.03673
0.02804
0.02799
0.03490
0.04227
0.04326
0.03402
0.01521
-0.00790
-0.02708
-0.03525
-0.03101
-0.01943
-0.00839
-0.00386
-0.00750
-0.01659
-0.02511
-0.02640
-0.01691
0.00078
0.01850
0.02730
0.02352
0.01072
-0.00386
-0.01365
-0.01435
-0.00488
0.01053
0.02288
0.02430
0.01420
-0.00119
-0.01421
-0.01944
-0.01425
-0.00042
0.01414
0.01932
0.01117
-0.00472
-0.01866
-0.02401
-0.01923
-0.00676
0.00781
0.01748
0.01741
0.00771
-0.00640
-0.01669
-0.01619
-0.00448
0.01113
0.02122
0.02116
0.01204
-0.00228
-0.01608
-0.02185
-0.01478
0.00128
0.01520
0.01805
0.00987
-0.00291
-0.01376
-0.01827
-0.01406
-0.00250
0.01038
0.01756
0.01554
0.00527
-0.00868
-0.01883
-0.01812
-0.00616
0.00938
0.01917
0.01897
0.00988
-0.00407
-0.01614
-0.01846
-0.00847
0.00709
0.01762
0.01769
0.00901
-0.00405
-0.01671
-0.02314
-0.01873
-0.00508
0.00969
0.01730
0.01515
0.00631
-0.00420
-0.01164
-0.01195
-0.00348
0.01028
0.02099
0.02091
0.00897
-0.00828
-0.02151
-0.02416
-0.01514
0.00129
0.01697
0.02310
0.01562
-0.00146
-0.01868
-0.02733
-0.02362
-0.00925
0.00893
0.02126
0.02085
0.00891
-0.00614
-0.01463
-0.01132
0.00220
0.01838
0.02789
0.02558
0.01345
-0.00199
-0.01465
-0.02095
-0.01906
-0.00933
0.00335
0.00968
0.00257
-0.01504
-0.03103
-0.03456
-0.02414
-0.00543
0.01482
0.02997
0.03309
0.02153
0.00221
-0.01163
-0.01078
0.00349
0.02209
0.03501
0.03642
0.02634
0.00940
-0.00796
-0.01981
-0.02242
-0.01676
-0.00955
-0.00884
-0.01700
-0.02931
-0.03934
-0.04322
-0.03914
-0.02669
-0.00905
0.00656
0.01393
0.01333
0.01109
0.01424
0.02616
0.04563
0.06748
0.08388
0.08744
0.07545
0.05245
0.02810
0.01044
-0.00039
-0.01135
-0.02970
-0.05840
-0.09692
-0.14114
-0.18181
-0.20934
-0.22181
-0.22001
-0.19241
-0.11808
0.00709
0.16021
0.31724
0.47028
0.59714
0.63231
0.51033
0.24698
-0.05308
-0.28617
-0.42798
-0.51188
-0.55645
-0.54229
-0.44949
-0.28994
-0.10036
0.07890
0.21561
0.29286
0.31531
0.30304
0.27380
0.23251
0.17744
0.11077
0.04060
-0.02333
-0.07260
-0.10159
-0.10973
-0.10339
-0.09328
-0.08774
-0.08756
-0.08714
-0.07983
-0.06152
-0.03205
0.00318
0.03368
0.04994
0.05063
0.04244
0.03362
0.02926
0.03128
0.03854
0.04560
0.04435
0.03007
0.00629
-0.01715
-0.03100
-0.03198
-0.02321
-0.01142
-0.00347
-0.00321
-0.00987
-0.01904
-0.02508
-0.02349
-0.01310
0.00220
0.01496
0.01939
0.01525
0.00639
-0.00275
-0.00793
-0.00538
0.00484
0.01631
0.02062
0.01487
0.00302
-0.00866
-0.01537
-0.01462
-0.00674
0.00451
0.01331
0.01444
0.00611
-0.00787
-0.01914
-0.02040
-0.01098
0.00351
0.01564
0.01941
0.01222
-0.00260
-0.01586
-0.01903
-0.01114
0.00179
0.01276
0.01747
0.01418
0.00379
-0.00919
-0.01782
-0.01663
-0.00545
0.00981
0.02043
0.02036
0.01000
-0.00487
-0.01706
-0.02110
-0.01465
-0.00015
0.01457
0.02027
0.01323
-0.00173
-0.01530
-0.02013
-0.01448
-0.00194
0.01101
0.01802
0.01559
0.00489
-0.00815
-0.01582
-0.01368
-0.00342
0.00906
0.01748
0.01735
0.00757
-0.00742
-0.01856
-0.01883
-0.00925
0.00335
0.01296
0.01625
0.01094
-0.00221
-0.01601
-0.02049
-0.01190
0.00394
0.01729
0.02166
0.01605
0.00372
-0.00950
-0.01724
-0.01546
-0.00486
