-0.00026
-0.00231
-0.00465
-0.00576
-0.00415
-0.00088
0.00178
0.00312
0.00388
0.00412
0.00330
0.00182
0.00070
-0.00017
-0.00151
-0.00276
-0.00255
-0.00125
-0.00075
-0.00138
-0.00151
-0.00053
0.00010
-0.00036
-0.00074
-0.00017
0.00070
0.00132
0.00200
0.00265
0.00254
0.00150
0.00032
-0.00036
-0.00070
-0.00127
-0.00220
-0.00279
-0.00211
-0.00034
0.00117
0.00143
0.00090
0.00051
0.00047
0.00040
0.00017
-0.00004
-0.00015
-0.00020
-0.00031
-0.00053
-0.00069
-0.00066
-0.00068
-0.00110
-0.00144
-0.00063
0.00140
0.00314
0.00327
0.00247
0.00224
0.00234
0.00102
-0.00209
-0.00471
-0.00466
-0.00279
-0.00167
-0.00208
-0.00239
-0.00103
0.00173
0.00439
0.00543
0.00420
0.00157
-0.00061
-0.00130
-0.00109
-0.00098
-0.00109
-0.00104
-0.00078
-0.00053
-0.00034
-0.00013
0.00011
0.00030
0.00045
0.00055
0.00053
0.00046
0.00042
0.00030
-0.00007
-0.00043
-0.00048
-0.00060
-0.00131
-0.00183
-0.00077
0.00140
0.00234
0.00125
-0.00000
0.00002
0.00033
-0.00027
-0.00126
-0.00162
-0.00127
-0.00059
0.00017
0.00066
0.00071
0.00073
0.00104
0.00118
0.00095
0.00107
0.00202
0.00280
0.00208
0.00002
-0.00204
-0.00324
-0.00355
-0.00323
-0.00264
-0.00211
-0.00174
-0.00147
-0.00142
-0.00139
-0.00056
0.00169
0.00442
0.00577
0.00506
0.00357
0.00275
0.00247
0.00150
-0.00048
-0.00241
-0.00314
-0.00262
-0.00168
-0.00083
0.00006
0.00101
0.00133
0.00035
-0.00158
-0.00333
-0.00431
-0.00501
-0.00593
-0.00650
-0.00565
-0.00331
-0.00040
0.00255
0.00576
0.00886
0.01058
0.01055
0.01024
0.01085
0.01125
0.00932
0.00465
-0.00111
-0.00609
-0.00932
-0.01083
-0.01142
-0.01216
-0.01355
-0.01550
-0.01753
-0.01819
-0.01516
-0.00746
0.00267
0.01137
0.01669
0.01953
0.02131
0.02191
0.02062
0.01784
0.01464
0.01114
0.00659
0.00107
-0.00413
-0.00791
-0.01043
-0.01259
-0.01487
-0.01669
-0.01701
-0.01574
-0.01434
-0.01417
-0.01456
-0.01372
-0.01141
-0.00905
-0.00718
-0.00430
0.00114
0.00880
0.01707
0.02454
0.03056
0.03495
0.03817
0.04101
0.04338
0.04373
0.04013
0.03148
0.01762
-0.00063
-0.02131
-0.04265
-0.06498
-0.08929
-0.11333
-0.13136
-0.13810
-0.13087
-0.10876
-0.07259
-0.02278
0.04684
0.14551
0.26382
0.35924
0.37952
0.30594
0.16714
0.01232
-0.12044
-0.21383
-0.26656
-0.28595
-0.27920
-0.24748
-0.18952
-0.10941
-0.01914
0.06494
0.12762
0.16077
0.16672
0.15452
0.13232
0.10446
0.07382
0.04355
0.01588
-0.00864
-0.02974
-0.04614
-0.05599
-0.05877
-0.05643
-0.05189
-0.04645
-0.03976
-0.03190
-0.02364
-0.01473
-0.00426
0.00703
0.01669
0.02319
0.02687
0.02833
0.02750
0.02462
0.02065
0.01635
0.01180
0.00700
0.00230
-0.00184
-0.00530
-0.00821
-0.01054
-0.01196
-0.01244
-0.01263
-0.01275
-0.01147
-0.00728
-0.00146
0.00234
0.00240
0.00121
0.00187
0.00388
0.00456
0.00360
0.00321
0.00434
0.00527
0.00456
0.00288
0.00136
-0.00008
-0.00153
-0.00207
-0.00117
0.00004
0.00014
-0.00071
-0.00138
-0.00148
-0.00149
-0.00174
-0.00191
-0.00176
-0.00163
-0.00192
-0.00219
-0.00145
0.00042
0.00227
0.00300
0.00270
0.00218
0.00209
0.00247
0.00259
0.00152
-0.00058
-0.00221
-0.00239
-0.00184
-0.00156
-0.00127
-0.00050
-0.00008
-0.00086
-0.00179
-0.00122
0.00062
0.00207
0.00250
0.00244
0.00191
0.00032
-0.00182
-0.00268
-0.00117
0.00129
0.00214
0.00073
-0.00109
-0.00155
-0.00092
-0.00027
0.00026
0.00093
0.00130
0.00061
-0.00099
-0.00227
-0.00218
-0.00106
-0.00033
-0.00060
-0.00064
0.00089
0.00309
0.00371
0.00231
0.00088
0.00085
0.00115
0.00029
-0.00109
-0.00135
-0.00046
-0.00010
-0.00104
-0.00218
-0.00225
-0.00151
-0.00097
-0.00107
-0.00154
-0.00184
-0.00132
0.00048
0.00285
0.00383
0.00212
-0.00083
-0.00177
0.00055
0.00371
0.00456
0.00272
0.00023
-0.00129
-0.00175
-0.00156
-0.00075
0.00058
0.00168
0.00152
0.00015
-0.00107
-0.00112
-0.00074
-0.00148
-0.00358
-0.00552
-0.00575
-0.00448
-0.00326
-0.00300
-0.00277
-0.00108
0.00219
0.00549
0.00729
0.00766
0.00791
0.00875
0.00964
0.00972
0.00862
0.00613
0.00219
-0.00236
-0.00613
-0.00863
-0.01042
-0.01190
-0.01312
-0.01478
-0.01744
-0.01966
-0.01853
-0.01230
-0.00187
0.00976
0.01848
0.02157
0.02052
0.01967
0.02061
0.02065
0.01784
0.01392
0.01029
0.00483
-0.00396
-0.01254
-0.01621
-0.01551
-0.01495
-0.01637
-0.01745
-0.01622
-0.01372
-0.01185
-0.01089
-0.01014
-0.00901
-0.00724
-0.00482
-0.00225
0.00017
0.00320
0.00833
0.01607
0.02512
0.03346
0.03984
0.04385
0.04536
0.04432
0.04063
0.03318
0.02038
0.00256
-0.01760
-0.03842
-0.06105
-0.08603
-0.10996
-0.12758
-0.13508
-0.12985
-0.11013
-0.07671
-0.02996
0.03715
0.13350
0.24804
0.33984
0.36275
0.30149
0.17930
0.03574
-0.09502
-0.19171
-0.24826
-0.27223
-0.27338
-0.25165
-0.20060
-0.12182
-0.03048
0.05344
0.11564
0.15072
0.16076
0.15228
0.13238
0.10605
0.07668
0.04715
0.01945
-0.00502
-0.02464
-0.03877
-0.04887
-0.05588
-0.05804
-0.05405
-0.04652
-0.03910
-0.03188
-0.02276
-0.01206
-0.00241
0.00514
0.01191
0.01856
0.02338
0.02450
0.02248
0.01993
0.01860
0.01765
0.01488
0.00932
0.00257
-0.00248
-0.00442
-0.00455
-0.00519
-0.00707
-0.00898
-0.00974
-0.00943
-0.00867
-0.00762
-0.00613
-0.00433
-0.00261
-0.00110
0.00031
0.00161
0.00242
0.00260
0.00267
0.00326
0.00432
0.00544
0.00633
0.00648
0.00517
0.00265
0.00037
-0.00083
-0.00158
-0.00251
-0.00333
-0.00383
-0.00456
-0.00534
-0.00486
-0.00279
-0.00078
-0.00016
0.00001
0.00115
0.00305
0.00464
0.00544
0.00518
0.00334
0.00029
-0.00225
-0.00303
-0.00277
-0.00298
-0.00366
-0.00334
-0.00135
0.00094
0.00191
0.00185
0.00210
0.00273
0.00247
0.00096
-0.00056
-0.00096
-0.00028
0.00074
0.00129
0.00071
-0.00096
-0.00280
-0.00391
-0.00392
-0.00259
-0.00021
0.00195
0.00288
0.00309
0.00329
0.00271
0.00074
-0.00117
-0.00139
-0.00084
-0.00145
-0.00272
-0.00247
-0.00043
0.00134
0.00153
0.00099
0.00086
0.00088
0.00029
-0.00081
-0.00155
-0.00117
0.00020
0.00164
0.00224
0.00214
0.00206
0.00180
0.00033
-0.00217
-0.00388
-0.00357
-0.00216
-0.00118
-0.00082
-0.00039
0.00021
0.00052
0.00064
0.00114
0.00184
0.00173
0.00045
-0.00098
-0.00137
-0.00059
0.00083
0.00209
0.00236
0.00148
0.00059
0.00078
0.00134
0.00084
-0.00055
-0.00121
-0.00026
0.00128
0.00156
-0.00039
-0.00368
-0.00599
-0.00558
-0.00325
-0.00188
-0.00337
-0.00592
-0.00571
-0.00174
0.00265
0.00418
0.00383
0.00504
0.00895
0.01323
0.01527
0.01461
0.01208
0.00788
0.00175
-0.00529
-0.01087
-0.01345
-0.01388
-0.01429
-0.01583
-0.01788
-0.01907
-0.01804
-0.01371
-0.00578
0.00451
0.01436
0.02062
0.02200
0.02005
0.01764
0.01624
0.01555
0.01480
0.01321
0.00966
0.00370
-0.00335
-0.00933
-0.01315
-0.01514
-0.01610
-0.01670
-0.01717
-0.01708
-0.01592
-0.01424
-0.01325
-0.01285
-0.01116
-0.00699
-0.00184
0.00195
0.00460
0.00842
0.01433
0.02082
0.02688
0.03315
0.03925
0.04252
0.04126
0.03750
0.03425
0.03064
0.02185
0.00474
-0.01836
-0.04292
-0.06750
-0.09290
-0.11728
-0.13512
-0.14078
-0.13087
-0.10474
-0.06465
-0.01181
0.06015
0.15957
0.27470
0.36215
0.37185
0.28851
0.14386
-0.01057
-0.13643
-0.21953
-0.26324
-0.27776
-0.27029
-0.23998
-0.18253
-0.10059
-0.00835
0.07435
0.13219
0.16050
0.16383
0.15035
0.12730
0.09974
0.07083
0.04221
0.01465
-0.01069
-0.03191
-0.04752
-0.05724
-0.06153
-0.06064
-0.05507
-0.04644
-0.03688
-0.02740
-0.01773
-0.00775
0.00173
0.00968
0.01586
0.02076
0.02441
0.02593
0.02492
0.02274
0.02070
0.01789
0.01252
0.00514
-0.00143
-0.00516
-0.00657
-0.00759
-0.00941
-0.01146
-0.01213
-0.01066
-0.00816
-0.00636
-0.00575
-0.00523
-0.00345
-0.00035
0.00275
0.00451
0.00482
0.00467
0.00470
0.00458
0.00369
0.00241
0.00186
0.00249
0.00326
0.00294
0.00149
-0.00020
-0.00146
-0.00231
-0.00316
-0.00436
-0.00540
-0.00510
-0.00319
-0.00117
-0.00047
-0.00034
0.00102
0.00367
0.00550
0.00490
0.00274
0.00131
0.00122
0.00083
-0.00103
-0.00308
-0.00369
-0.00338
-0.00325
-0.00265
-0.00054
0.00205
0.00335
0.00336
0.00312
0.00240
0.00039
-0.00227
-0.00380
-0.00330
-0.00121
0.00139
0.00288
0.00179
-0.00122
-0.00316
-0.00195
0.00090
0.00247
0.00223
0.00197
0.00257
0.00283
0.00144
-0.00128
-0.00379
-0.00484
-0.00439
-0.00332
-0.00212
-0.00043
0.00174
0.00318
0.00297
0.00189
0.00106
0.00033
-0.00041
-0.00006
0.00171
0.00292
0.00185
-0.00025
-0.00115
-0.00081
-0.00081
-0.00162
-0.00219
-0.00176
-0.00057
0.00073
0.00133
0.00067
-0.00071
-0.00133
-0.00061
0.00011
-0.00054
-0.00187
-0.00211
-0.00071
0.00104
0.00176
0.00142
0.00099
0.00134
0.00228
0.00261
0.00151
-0.00010
-0.00038
0.00091
0.00187
0.00096
-0.00071
-0.00085
0.00077
0.00176
0.00006
-0.00327
-0.00531
-0.00486
-0.00355
-0.00341
-0.00453
-0.00553
-0.00524
-0.00338
-0.00054
0.00237
0.00502
0.00787
0.01089
0.01271
0.01201
0.00923
0.00599
0.00346
0.00195
0.00110
-0.00020
-0.00293
-0.00637
-0.00908
-0.01129
-0.01432
-0.01775
-0.01936
-0.01806
-0.01493
-0.01064
-0.00393
0.00595
0.01625
0.02249
0.02316
0.02110
0.01968
0.01930
0.01814
0.01484
0.00966
0.00367
-0.00236
-0.00814
-0.01330
-0.01697
-0.01850
-0.01836
-0.01762
-0.01671
-0.01516
-0.01275
-0.01050
-0.00992
-0.01082
-0.01057
-0.00677
-0.00052
0.00494
0.00855
0.01245
0.01853
0.02602
0.03303
0.03862
0.04258
0.04449
0.04371
0.03958
0.03117
0.01772
-0.00028
-0.02091
-0.04246
-0.06487
-0.08879
-0.11240
-0.12999
-0.13485
-0.12418
-0.10050
-0.06709
-0.02126
0.04689
0.14389
0.25605
0.34445
0.36446
0.29706
0.16316
0.00881
-0.12276
-0.21046
-0.25657
-0.27367
-0.26883
-0.23955
-0.18300
-0.10504
-0.01884
0.06142
0.12369
0.15944
0.16692
0.15272
0.12745
0.09888
0.06947
0.03973
0.01180
-0.01136
-0.02897
-0.04244
-0.05238
-0.05758
-0.05745
-0.05344
-0.04703
-0.03824
-0.02755
-0.01730
-0.00918
-0.00192
0.00673
0.01617
0.02327
0.02619
0.02597
0.02431
0.02176
0.01828
0.01404
0.00907
0.00372
-0.00068
-0.00318
-0.00481
-0.00707
-0.00924
-0.00951
-0.00813
-0.00703
-0.00674
-0.00631
-0.00545
-0.00450
-0.00282
0.00018
0.00296
0.00311
0.00073
-0.00152
-0.00153
0.00040
0.00280
0.00472
0.00591
0.00611
0.00507
0.00321
0.00147
0.00017
-0.00124
-0.00274
-0.00316
-0.00191
-0.00027
0.00026
-0.00001
-0.00003
-0.00017
-0.00158
-0.00390
-0.00536
-0.00494
-0.00301
-0.00036
0.00231
0.00431
0.00533
0.00539
0.00421
0.00173
-0.00094
-0.00237
-0.00267
-0.00280
-0.00253
-0.00083
0.00186
0.00351
0.00291
0.00069
-0.00176
-0.00323
-0.00270
-0.00004
0.00285
0.00334
0.00111
-0.00164
-0.00316
-0.00350
-0.00285
-0.00096
0.00126
0.00224
0.00207
0.00211
0.00205
0.00020
-0.00262
-0.00289
0.00055
0.00413
0.00412
0.00121
-0.00148
-0.00257
-0.00248
-0.00134
0.00057
0.00152
-0.00003
-0.00311
-0.00477
-0.00311
0.00061
0.00297
0.00217
0.00049
0.00130
0.00415
0.00539
0.00346
0.00044
-0.00150
-0.00237
-0.00272
-0.00247
-0.00181
-0.00147
-0.00165
-0.00175
-0.00153
-0.00163
-0.00219
-0.00191
0.00040
0.00349
0.00459
0.00283
0.00034
-0.00034
0.00101
0.00262
0.00300
0.00231
0.00159
0.00123
0.00074
0.00001
-0.00040
-0.00056
-0.00157
-0.00363
-0.00501
-0.00421
-0.00256
-0.00278
-0.00517
-0.00697
-0.00605
-0.00326
-0.00052
0.00171
0.00403
0.00653
0.00875
0.01045
0.01157
0.01201
0.01169
0.01046
0.00770
0.00277
-0.00362
-0.00896
-0.01121
-0.01126
-0.01207
-0.01507
-0.01860
-0.02040
-0.01960
-0.01591
-0.00870
0.00137
0.01133
0.01801
0.02097
0.02174
0.02107
0.01915
0.01743
0.01714
0.01613
0.01106
0.00242
-0.00574
-0.01097
-0.01411
-0.01619
-0.01698
-0.01672
-0.01625
-0.01545
-0.01364
-0.01156
-0.01102
-0.01217
-0.01272
-0.01022
-0.00487
0.00072
0.00458
0.00772
0.01248
0.01921
0.02626
0.03237
0.03738
0.04070
0.04136
0.03947
0.03581
0.03010
0.02082
0.00677
-0.01221
-0.03547
-0.06139
-0.08758
-0.11159
-0.13009
-0.13762
-0.12927
-0.10583
-0.07283
-0.03063
0.03252
0.12954
0.25049
0.35251
0.38252
0.31643
0.17735
0.01717
-0.11773
-0.20753
-0.25633
-0.27622
-0.27392
-0.24854
-0.19684
-0.11948
-0.02601
0.06394
0.12894
0.15965
0.16311
0.15193
0.13258
0.10616
0.07509
0.04388
0.01533
-0.00991
-0.03066
-0.04526
-0.05368
-0.05739
-0.05754
-0.05433
-0.04778
-0.03853
-0.02827
-0.01861
-0.00951
0.00008
0.00939
0.01600
0.01923
0.02106
0.02283
0.02344
0.02199
0.01948
0.01674
0.01280
0.00714
0.00159
-0.00184
-0.00363
-0.00576
-0.00891
-0.01175
-0.01257
-0.01109
-0.00862
-0.00667
-0.00550
-0.00433
-0.00267
-0.00086
0.00070
0.00201
0.00314
0.00402
0.00454
0.00474
0.00463
0.00422
0.00362
0.00289
0.00194
0.00081
-0.00018
-0.00097
-0.00200
-0.00329
-0.00379
-0.00268
-0.00089
-0.00009
-0.00046
-0.00088
-0.00098
-0.00122
-0.00115
0.00042
0.00327
0.00518
0.00446
0.00185
-0.00077
-0.00262
-0.00368
-0.00340
-0.00161
-0.00013
-0.00085
-0.00260
-0.00247
0.00013
0.00279
0.00356
0.00290
0.00226
0.00232
0.00271
0.00238
0.00063
-0.00172
-0.00295
-0.00265
-0.00227
-0.00276
-0.00303
-0.00162
0.00081
0.00222
0.00194
0.00116
0.00105
0.00139
0.00112
-0.00038
-0.00260
-0.00400
-0.00319
-0.00036
0.00260
0.00393
0.00339
0.00155
-0.00082
-0.00223
-0.00115
0.00181
0.00380
0.00267
-0.00074
-0.00365
-0.00390
-0.00159
0.00116
0.00205
0.00073
-0.00114
-0.00184
-0.00125
-0.00066
-0.00111
-0.00210
-0.00227
-0.00107
0.00058
0.00157
0.00199
0.00272
0.00393
0.00443
0.00320
0.00099
-0.00041
-0.00043
-0.00008
-0.00029
-0.00085
-0.00123
-0.00140
-0.00166
-0.00206
-0.00220
-0.00176
-0.00118
-0.00152
-0.00308
-0.00458
-0.00454
-0.00322
-0.00202
-0.00105
0.00094
0.00419
0.00699
0.00789
0.00758
0.00791
0.00941
0.01045
0.00908
0.00546
0.00180
-0.00019
-0.00153
-0.00519
-0.01270
-0.02144
-0.02629
-0.02470
-0.01902
-0.01265
-0.00589
0.00235
0.01046
0.01475
0.01413
0.01209
0.01346
0.01920
0.02497
0.02548
0.01988
0.01147
0.00305
-0.00482
-0.01108
-0.01382
-0.01357
-0.01380
-0.01609
-0.01759
-0.01539
-0.01150
-0.01050
-0.01333
-0.01612
-0.01530
-0.01162
-0.00825
-0.00600
-0.00233
0.00506
0.01505
0.02463
0.03227
0.03844
0.04345
0.04660
0.04742
0.04570
0.04021
0.02929
0.01332
-0.00507
-0.02413
-0.04480
-0.06860
-0.09461
-0.11864
-0.13473
-0.13769
-0.12524
-0.09857
-0.06053
-0.01069
0.05869
0.15564
0.26870
0.35641
0.36917
0.28899
0.14504
-0.01020
-0.13567
-0.21667
-0.25872
-0.27359
-0.26781
-0.23940
-0.18437
-0.10519
-0.01372
0.07177
0.13360
0.16351
0.16622
0.15258
0.13002
0.10103
0.06818
0.03621
0.00897
-0.01313
-0.03138
-0.04554
-0.05418
-0.05741
-0.05724
-0.05468
-0.04885
-0.03923
-0.02724
-0.01540
-0.00556
0.00210
0.00887
0.01581
0.02198
0.02538
0.02545
0.02354
0.02083
0.01717
0.01237
0.00722
0.00299
0.00040
-0.00099
-0.00256
-0.00529
-0.00813
-0.00880
-0.00698
-0.00548
-0.00677
-0.00954
-0.01011
-0.00706
-0.00273
-0.00007
0.00068
0.00121
0.00223
0.00278
0.00228
0.00193
0.00305
0.00493
0.00563
0.00464
0.00325
0.00246
0.00186
0.00096
0.00024
0.00014
-0.00008
-0.00156
-0.00409
-0.00603
-0.00587
-0.00370
-0.00106
0.00048
0.00063
0.00029
0.00031
0.00059
0.00048
-0.00013
-0.00036
0.00073
0.00290
0.00460
0.00433
0.00208
-0.00055
-0.00199
-0.00205
-0.00170
-0.00158
-0.00155
-0.00135
-0.00101
-0.00063
-0.00028
-0.00005
0.00020
0.00066
0.00107
0.00090
0.00059
0.00118
0.00248
0.00293
0.00196
0.00053
-0.00082
-0.00235
-0.00347
-0.00314
-0.00199
-0.00159
-0.00201
-0.00198
-0.00117
-0.00034
0.00053
0.00227
0.00454
0.00555
0.00434
0.00202
0.00006
-0.00148
-0.00285
-0.00322
-0.00177
0.00029
0.00074
-0.00053
-0.00117
0.00023
0.00200
0.00194
0.00028
-0.00104
-0.00118
-0.00083
-0.00057
-0.00049
-0.00100
-0.00222
-0.00288
-0.00174
0.00005
0.00044
0.00011
0.00142
0.00405
0.00506
0.00340
0.00119
0.00011
-0.00034
-0.00095
-0.00147
-0.00186
-0.00247
-0.00287
-0.00210
-0.00037
0.00127
0.00263
0.00399
0.00463
0.00359
0.00164
0.00028
-0.00083
-0.00317
-0.00628
-0.00762
-0.00597
-0.00322
-0.00206
-0.00296
-0.00398
-0.00315
-0.00065
0.00206
0.00449
0.00735
0.01031
0.01134
0.00959
0.00718
0.00628
0.00607
0.00474
0.00284
0.00155
-0.00065
-0.00569
-0.01167
-0.01504
-0.01614
-0.01838
-0.02208
-0.02329
-0.01915
-0.01060
0.00054
0.01298
0.02333
0.02689
0.02342
0.01872
0.01767
0.01868
0.01734
0.01275
0.00731
0.00228
-0.00297
-0.00834
-0.01250
-0.01492
-0.01636
-0.01721
-0.01712
-0.01627
-0.01546
-0.01494
-0.01418
-0.01287
-0.01128
-0.00975
-0.00788
-0.00441
0.00161
0.00942
0.01715
0.02390
0.03022
0.03650
0.04195
0.04543
0.04631
0.04429
0.03886
0.02945
0.01573
-0.00194
-0.02237
-0.04439
-0.06800
-0.09355
-0.11857
-0.13648
-0.14065
-0.12965
-0.10653
-0.07254
-0.02181
0.05645
0.16562
0.28595
0.37271
0.37993
0.29405
0.14556
-0.01300
-0.14023
-0.22228
-0.26598
-0.28184
-0.27361
-0.23979
-0.18039
-0.10060
-0.01138
0.07164
0.13270
0.16328
0.16568
0.14957
0.12520
0.09852
0.07066
0.04122
0.01188
-0.01351
-0.03204
-0.04390
-0.05136
-0.05590
-0.05687
-0.05317
-0.04555
-0.03640
-0.02733
-0.01841
-0.00962
-0.00146
0.00579
0.01218
0.01761
0.02168
0.02384
0.02382
0.02238
0.02088
0.01901
0.01493
0.00878
0.00343
0.00007
-0.00339
-0.00807
-0.01192
-0.01334
-0.01340
-0.01293
-0.01091
-0.00723
-0.00386
-0.00210
-0.00103
0.00048
0.00206
0.00297
0.00331
0.00345
0.00322
0.00233
0.00117
0.00071
0.00157
0.00313
0.00373
0.00247
0.00069
0.00034
0.00132
0.00166
0.00054
-0.00087
-0.00149
-0.00171
-0.00217
-0.00254
-0.00247
-0.00248
-0.00298
-0.00311
-0.00179
0.00049
0.00194
0.00163
0.00044
-0.00006
0.00100
0.00318
0.00498
0.00482
0.00244
-0.00067
-0.00269
-0.00318
-0.00292
-0.00268
-0.00267
-0.00280
-0.00249
-0.00079
0.00233
0.00522
0.00590
0.00430
0.00215
0.00079
-0.00029
-0.00207
-0.00408
-0.00468
-0.00308
-0.00054
0.00078
0.00008
-0.00111
-0.00079
0.00084
0.00170
0.00099
0.00016
0.00013
-0.00002
-0.00071
-0.00076
0.00047
0.00201
0.00285
0.00269
0.00153
0.00001
-0.00056
-0.00013
-0.00063
-0.00281
-0.00414
-0.00214
0.00151
0.00279
0.00060
-0.00206
-0.00238
-0.00090
0.00034
0.00071
0.00085
0.00110
0.00114
0.00088
0.00054
0.00025
-0.00005
-0.00038
-0.00066
-0.00081
-0.00087
-0.00085
-0.00073
-0.00049
-0.00017
0.00022
0.00063
0.00106
0.00153
0.00197
0.00229
0.00258
0.00298
0.00325
0.00263
0.00053
-0.00244
-0.00469
-0.00527
-0.00501
-0.00530
-0.00626
-0.00687
-0.00613
-0.00354
0.00045
0.00387
0.00471
0.00372
0.00389
0.00669
0.00996
0.01055
0.00831
0.00644
0.00728
0.00855
0.00564
-0.00193
-0.00899
-0.01109
-0.00988
-0.00967
-0.01136
-0.01309
-0.01450
-0.01637
-0.01691
-0.01278
-0.00403
0.00521
0.01151
0.01526
0.01832
0.02067
0.02111
0.01996
0.01870
0.01726
0.01388
0.00786
0.00064
-0.00623
-0.01239
-0.01737
-0.01994
-0.01955
-0.01755
-0.01601
-0.01551
-0.01493
-0.01344
-0.01177
-0.01079
-0.00958
-0.00615
-0.00028
0.00565
0.00957
0.01251
0.01710
0.02388
0.03062
0.03547
0.03913
0.04264
0.04435
0.04098
0.03144
0.01779
0.00239
-0.01440
-0.03367
-0.05620
-0.08104
-0.10494
-0.12315
-0.13125
-0.12637
-0.10788
-0.07752
-0.03609
0.02316
0.11184
0.22627
0.33029
0.37065
0.31822
0.19166
0.04011
-0.09216
-0.18494
-0.23893
-0.26379
-0.26731
-0.24972
-0.20598
-0.13466
-0.04497
0.04462
0.11484
0.15479
0.16528
0.15506
0.13376
0.10746
0.07868
0.04901
0.02077
-0.00397
-0.02470
-0.04164
-0.05387
-0.05991
-0.05986
-0.05568
-0.04916
-0.04072
-0.03036
-0.01888
-0.00784
0.00159
0.00907
0.01461
0.01830
0.02074
0.02277
0.02424
0.02384
0.02083
0.01623
0.01156
0.00711
0.00226
-0.00281
-0.00677
-0.00885
-0.00973
-0.01019
-0.00990
-0.00859
-0.00711
-0.00624
-0.00558
-0.00465
-0.00370
-0.00251
-0.00024
0.00290
0.00526
0.00586
0.00547
0.00508
0.00462
0.00372
0.00255
0.00131
-0.00021
-0.00193
-0.00324
-0.00382
-0.00359
-0.00200
0.00115
0.00414
0.00437
0.00151
-0.00178
-0.00265
-0.00091
0.00118
0.00134
-0.00051
-0.00241
-0.00277
-0.00207
-0.00176
-0.00218
-0.00220
-0.00082
0.00151
0.00347
0.00446
0.00465
0.00397
0.00217
-0.00027
-0.00231
-0.00361
-0.00421
-0.00346
-0.00108
0.00134
0.00207
0.00189
0.00234
0.00245
0.00042
-0.00238
-0.00275
-0.00041
0.00150
0.00083
-0.00123
-0.00232
-0.00185
-0.00105
-0.00070
0.00001
0.00167
0.00292
0.00208
-0.00025
-0.00179
-0.00138
0.00038
0.00228
0.00304
0.00173
-0.00099
-0.00266
-0.00159
0.00083
0.00154
-0.00055
-0.00310
-0.00302
-0.00044
0.00144
0.00092
0.00012
0.00118
0.00258
0.00172
-0.00077
-0.00200
-0.00084
0.00113
0.00200
0.00124
-0.00045
-0.00183
-0.00214
-0.00176
-0.00147
-0.00140
-0.00115
-0.00071
-0.00034
0.00015
0.00114
0.00215
0.00213
0.00104
0.00025
0.00085
0.00244
0.00381
0.00407
0.00295
0.00078
-0.00131
-0.00210
-0.00145
-0.00064
-0.00103
-0.00286
-0.00527
-0.00708
-0.00750
-0.00658
-0.00504
-0.00341
-0.00161
0.00055
0.00286
0.00508
0.00738
0.00984
0.01170
0.01188
0.01036
0.00823
0.00660
0.00569
0.00460
0.00165
-0.00407
-0.01105
-0.01611
-0.01778
-0.01785
-0.01862
-0.01971
-0.01883
-0.01457
-0.00704
0.00284
0.01306
0.02065
0.02374
0.02292
0.02016
0.01738
0.01580
0.01492
0.01254
0.00737
0.00081
-0.00499
-0.00925
-0.01196
-0.01326
-0.01409
-0.01538
-0.01642
-0.01578
-0.01373
-0.01201
-0.01139
-0.01120
-0.01063
-0.00938
-0.00735
-0.00456
-0.00102
0.00393
0.01104
0.01974
0.02811
0.03477
0.03975
0.04341
0.04530
0.04431
0.03953
0.03084
0.01877
0.00373
-0.01446
-0.03586
-0.06001
-0.08592
-0.11129
-0.13125
-0.13984
-0.13348
-0.11246
-0.07840
-0.02992
0.03957
0.13609
0.24980
0.34460
0.37308
0.31145
0.17983
0.02623
-0.10633
-0.19795
-0.24905
-0.26980
-0.26965
-0.24954
-0.20311
-0.12805
-0.03555
0.05313
0.11916
0.15538
0.16580
0.15834
0.13873
0.11007
0.07614
0.04247
0.01338
-0.01033
-0.02946
-0.04356
-0.05147
-0.05395
-0.05365
-0.05204
-0.04800
-0.04007
-0.02928
-0.01847
-0.00927
-0.00127
0.00601
0.01171
0.01529
0.01807
0.02166
0.02495
0.02493
0.02085
0.01581
0.01278
0.01051
0.00590
-0.00072
-0.00567
-0.00714
-0.00736
-0.00863
-0.01033
-0.01073
-0.00980
-0.00885
-0.00830
-0.00708
-0.00427
-0.00065
0.00203
0.00309
0.00329
0.00330
0.00301
0.00240
0.00217
0.00299
0.00456
0.00574
0.00555
0.00407
0.00221
0.00047
-0.00139
-0.00311
-0.00358
-0.00254
-0.00162
-0.00232
-0.00368
-0.00355
-0.00169
-0.00020
-0.00051
-0.00142
-0.00092
0.00107
0.00277
0.00296
0.00221
0.00186
0.00227
0.00242
0.00123
-0.00084
-0.00230
-0.00253
-0.00211
-0.00146
-0.00059
-0.00012
-0.00079
-0.00157
-0.00045
0.00240
0.00414
0.00311
0.00109
0.00051
0.00094
0.00030
-0.00159
-0.00312
-0.00355
-0.00330
-0.00226
-0.00027
0.00149
0.00179
0.00143
0.00180
0.00224
0.00120
-0.00066
-0.00119
-0.00031
-0.00001
-0.00077
-0.00104
-0.00026
0.00034
0.00039
0.00080
0.00145
0.00109
-0.00023
-0.00099
-0.00084
-0.00090
-0.00121
-0.00056
0.00106
0.00211
0.00172
0.00059
-0.00049
-0.00134
-0.00172
-0.00131
-0.00043
0.00020
0.00032
0.00028
0.00028
0.00017
-0.00017
-0.00052
-0.00069
-0.00087
-0.00132
-0.00162
-0.00084
0.00127
0.00354
0.00429
0.00310
0.00117
-0.00011
-0.00040
0.00005
0.00095
0.00159
0.00089
-0.00091
-0.00185
-0.00113
-0.00076
-0.00273
-0.00559
-0.00631
-0.00451
-0.00258
-0.00224
-0.00277
-0.00262
-0.00110
0.00145
0.00432
0.00692
0.00902
0.01058
0.01142
0.01127
0.01010
0.00794
0.00443
-0.00073
-0.00649
-0.01044
-0.01109
-0.00992
-0.01021
-0.01353
-0.01800
-0.02050
-0.01948
-0.01489
-0.00666
0.00433
0.01467
0.02070
0.02237
0.02265
0.02303
0.02254
0.02072
0.01802
0.01318
0.00444
-0.00617
-0.01368
-0.01631
-0.01698
-0.01778
-0.01749
-0.01547
-0.01388
-0.01408
-0.01429
-0.01277
-0.01043
-0.00873
-0.00706
-0.00410
-0.00021
0.00328
0.00638
0.01062
0.01680
0.02391
0.03045
0.03574
0.03964
0.04163
0.04085
0.03666
0.02891
0.01769
0.00318
-0.01394
-0.03273
-0.05306
-0.07564
-0.09942
-0.11965
-0.12979
-0.12540
-0.10642
-0.07625
-0.03649
0.02021
0.10671
0.22009
0.32368
0.36361
0.31186
0.18910
0.04368
-0.08407
-0.17676
-0.23404
-0.26262
-0.26808
-0.24971
-0.20355
-0.13108
-0.04319
0.04369
0.11319
0.15394
0.16431
0.15278
0.13095
0.10541
0.07702
0.04648
0.01746
-0.00650
-0.02526
-0.04022
-0.05101
-0.05598
-0.05513
-0.05054
-0.04419
-0.03693
-0.02926
-0.02160
-0.01380
-0.00549
0.00296
0.01060
0.01683
0.02145
0.02408
0.02464
0.02388
0.02253
0.02038
0.01684
0.01184
0.00557
-0.00152
-0.00788
-0.01140
-0.01170
-0.01082
-0.01087
-0.01173
-0.01161
-0.00951
-0.00626
-0.00334
-0.00146
-0.00044
0.00015
0.00091
0.00252
0.00485
0.00661
0.00684
0.00596
0.00499
0.00422
0.00330
0.00211
0.00092
-0.00004
-0.00093
-0.00190
-0.00281
-0.00331
-0.00361
-0.00426
-0.00493
-0.00418
-0.00160
0.00083
0.00114
0.00051
0.00157
0.00406
0.00496
0.00334
0.00166
0.00127
0.00035
-0.00215
-0.00380
-0.00250
0.00004
0.00091
0.00001
-0.00074
-0.00063
-0.00060
-0.00132
-0.00199
-0.00141
0.00037
0.00202
0.00246
0.00199
0.00150
0.00128
0.00105
0.00069
0.00030
-0.00012
-0.00058
-0.00096
-0.00135
-0.00204
-0.00276
-0.00252
-0.00097
0.00077
0.00129
0.00075
0.00049
0.00115
0.00176
0.00130
0.00019
-0.00036
-0.00013
-0.00004
-0.00060
-0.00125
-0.00129
-0.00084
-0.00039
0.00004
0.00084
0.00188
0.00243
0.00215
0.00159
0.00115
0.00052
-0.00044
-0.00114
-0.00141
-0.00197
-0.00310
-0.00387
-0.00334
-0.00187
-0.00062
0.00001
0.00064
0.00183
0.00300
0.00303
0.00190
0.00105
0.00147
0.00229
0.00194
0.00024
-0.00148
-0.00200
-0.00131
-0.00022
0.00073
0.00163
0.00255
0.00277
0.00152
-0.00080
-0.00275
-0.00360
-0.00413
-0.00511
-0.00586
-0.00521
-0.00330
-0.00165
-0.00142
-0.00222
-0.00233
-0.00020
0.00399
0.00856
0.01196
0.01361
0.01341
0.01157
0.00907
0.00674
0.00399
-0.00036
-0.00587
-0.01035
-0.01256
-0.01380
-0.01613
-0.01960
-0.02216
-0.02157
-0.01693
-0.00871
0.00179
0.01248
0.02070
0.02416
0.02286
0.01957
0.01749
0.01720
0.01661
0.01359
0.00773
0.00035
-0.00611
-0.00961
-0.01074
-0.01213
-0.01462
-0.01591
-0.01437
-0.01221
-0.01233
-0.01399
-0.01409
-0.01187
-0.00948
-0.00835
-0.00744
-0.00519
-0.00139
0.00344
0.00915
0.01577
0.02295
0.03001
0.03634
0.04136
0.04441
0.04483
0.04195
0.03526
0.02458
0.01035
-0.00668
-0.02611
-0.04841
-0.07411
-0.10184
-0.12694
-0.14252
-0.14271
-0.12580
-0.09435
-0.05021
0.01195
0.10171
0.21597
0.32389
0.37706
0.34282
0.22926
0.07778
-0.06565
-0.17324
-0.23927
-0.27074
-0.27572
-0.25718
-0.21447
-0.14837
-0.06492
0.02306
0.09802
0.14548
0.16243
0.15699
0.13928
0.11490
0.08641
0.05688
0.02922
0.00423
-0.01816
-0.03662
-0.04918
-0.05580
-0.05816
-0.05703
-0.05183
-0.04304
-0.03293
-0.02312
-0.01323
-0.00306
0.00585
0.01220
0.01689
0.02114
0.02399
0.02369
0.02071
0.01733
0.01470
0.01209
0.00900
0.00593
0.00320
0.00028
-0.00315
-0.00656
-0.00933
-0.01115
-0.01174
-0.01112
-0.00983
-0.00819
-0.00596
-0.00338
-0.00152
-0.00034
0.00164
0.00471
0.00662
0.00572
0.00331
0.00166
0.00113
0.00091
0.00105
0.00209
0.00356
0.00415
0.00324
0.00145
-0.00034
-0.00166
-0.00263
-0.00371
-0.00495
-0.00526
-0.00353
-0.00067
0.00080
0.00023
-0.00010
0.00140
0.00300
0.00246
0.00059
-0.00027
0.00045
0.00154
0.00193
0.00132
-0.00011
-0.00167
-0.00234
-0.00187
-0.00113
-0.00111
-0.00154
-0.00098
0.00129
0.00368
0.00387
0.00173
-0.00055
-0.00140
-0.00122
-0.00103
-0.00121
-0.00167
-0.00204
-0.00152
0.00014
0.00198
0.00293
0.00309
0.00289
0.00215
0.00082
-0.00056
-0.00177
-0.00311
-0.00429
-0.00443
-0.00326
-0.00136
0.00065
0.00212
0.00248
0.00210
0.00212
0.00267
0.00246
0.00106
-0.00011
-0.00008
0.00021
-0.00027
-0.00073
-0.00014
0.00054
-0.00036
-0.00247
-0.00366
-0.00285
-0.00114
0.00002
0.00052
0.00091
0.00126
0.00130
0.00108
0.00085
0.00058
0.00012
-0.00036
-0.00061
-0.00086
-0.00144
-0.00186
-0.00116
0.00066
0.00249
0.00353
0.00371
0.00305
0.00155
-0.00009
-0.00090
-0.00068
0.00019
0.00119
0.00135
-0.00029
-0.00321
-0.00556
-0.00648
-0.00688
-0.00743
-0.00717
-0.00513
-0.00193
0.00112
0.00386
0.00697
0.01014
0.01190
0.01167
0.01081
0.01069
0.01052
0.00828
0.00333
-0.00280
-0.00792
-0.01098
-0.01249
-0.01364
-0.01469
-0.01501
-0.01467
-0.01461
-0.01431
-0.01134
-0.00431
0.00495
0.01314
0.01832
0.02048
0.02054
0.01966
0.01894
0.01869
0.01756
0.01330
0.00531
-0.00382
-0.01057
-0.01406
-0.01606
-0.01768
-0.01802
-0.01650
-0.01443
-0.01296
-0.01152
-0.00941
-0.00754
-0.00727
-0.00815
-0.00821
-0.00604
-0.00182
0.00378
0.01052
0.01784
0.02429
0.02893
0.03274
0.03714
0.04157
0.04349
0.04076
0.03301
0.02127
0.00705
-0.00879
-0.02693
-0.04874
-0.07389
-0.09938
-0.12049
-0.13216
-0.12985
-0.11175
-0.08080
-0.04123
0.01055
0.08733
0.19333
0.30205
0.36213
0.33512
0.22687
0.07958
-0.06079
-0.16709
-0.23259
-0.26297
-0.26738
-0.25101
-0.21296
-0.15082
-0.06777
0.02278
0.10032
0.14846
0.16484
0.15836
0.13850
0.11096
0.08079
0.05277
0.02781
0.00395
-0.01854
-0.03641
-0.04794
-0.05451
-0.05755
-0.05691
-0.05232
-0.04447
-0.03444
-0.02350
-0.01307
-0.00391
0.00442
0.01238
0.01929
0.02388
0.02544
0.02432
0.02173
0.01906
0.01689
0.01443
0.01065
0.00577
0.00101
-0.00287
-0.00602
-0.00872
-0.01077
-0.01186
-0.01219
-0.01224
-0.01196
-0.01064
-0.00784
-0.00414
-0.00044
0.00318
0.00682
0.00954
0.00984
0.00764
0.00479
0.00302
0.00226
0.00127
-0.00047
-0.00229
-0.00325
-0.00302
-0.00196
-0.00071
-0.00007
-0.00070
-0.00226
-0.00294
-0.00098
0.00300
0.00596
0.00553
0.00252
-0.00035
-0.00154
-0.00161
-0.00167
-0.00215
-0.00298
-0.00364
-0.00333
-0.00189
-0.00017
0.00062
0.00002
-0.00131
-0.00155
0.00098
0.00531
0.00781
0.00622
0.00243
-0.00019
-0.00078
-0.00074
-0.00102
-0.00152
-0.00199
-0.00231
-0.00219
-0.00162
-0.00123
-0.00159
-0.00215
-0.00168
0.00013
0.00196
0.00240
0.00156
0.00061
0.00025
0.00021
0.00002
-0.00018
0.00029
0.00151
0.00216
0.00079
-0.00187
-0.00302
-0.00113
0.00189
0.00295
0.00140
-0.00078
-0.00189
-0.00194
-0.00130
0.00027
0.00232
0.00295
0.00094
-0.00213
-0.00337
-0.00187
0.00042
0.00119
0.00015
-0.00117
-0.00143
-0.00077
-0.00007
0.00028
0.00051
0.00091
0.00155
0.00223
0.00248
0.00178
0.00008
-0.00186
-0.00285
-0.00228
-0.00080
0.00015
-0.00032
-0.00154
-0.00190
-0.00023
0.00298
0.00581
0.00670
0.00576
0.00367
0.00056
-0.00305
-0.00541
-0.00562
-0.00526
-0.00608
-0.00729
-0.00701
-0.00524
-0.00313
-0.00080
0.00196
0.00410
0.00485
0.00553
0.00743
0.00916
0.00888
0.00785
0.00853
0.01006
0.00908
0.00475
-0.00013
-0.00372
-0.00742
-0.01245
-0.01701
-0.01885
-0.01865
-0.01848
-0.01822
-0.01579
-0.00986
-0.00074
0.01009
0.01973
0.02460
0.02366
0.01983
0.01688
0.01575
0.01485
0.01264
0.00874
0.00344
-0.00256
-0.00816
-0.01215
-0.01411
-0.01485
-0.01543
-0.01582
-0.01520
-0.01347
-0.01175
-0.01090
-0.01064
-0.01018
-0.00917
-0.00749
-0.00493
-0.00126
0.00354
0.00933
0.01586
0.02273
0.02945
0.03550
0.04025
0.04286
0.04265
0.03966
0.03428
0.02609
0.01382
-0.00339
-0.02475
-0.04853
-0.07359
-0.09914
-0.12259
-0.13835
-0.14012
-0.12522
-0.09607
-0.05493
0.00343
0.08924
0.20136
0.31208
0.37450
0.35251
0.24731
0.09617
-0.05294
-0.16735
-0.23833
-0.27267
-0.27912
-0.26111
-0.21859
-0.15336
-0.07194
0.01404
0.08956
0.14119
0.16374
0.16203
0.14518
0.12008
0.09055
0.05986
0.03102
0.00522
-0.01787
-0.03757
-0.05151
-0.05781
-0.05741
-0.05361
-0.04916
-0.04401
-0.03627
-0.02541
-0.01380
-0.00425
0.00301
0.00969
0.01620
0.02106
0.02355
0.02459
0.02452
0.02217
0.01742
0.01245
0.00906
0.00621
0.00195
-0.00326
-0.00701
-0.00826
-0.00843
-0.00901
-0.00992
-0.01039
-0.01004
-0.00852
-0.00556
-0.00187
0.00088
0.00163
0.00088
-0.00027
-0.00096
-0.00039
0.00205
0.00555
0.00788
0.00767
0.00585
0.00416
0.00288
0.00117
-0.00094
-0.00221
-0.00196
-0.00122
-0.00154
-0.00310
-0.00472
-0.00517
-0.00417
-0.00214
0.00016
0.00183
0.00235
0.00197
0.00149
0.00129
0.00120
0.00103
0.00091
0.00090
0.00082
0.00069
0.00081
0.00105
0.00061
-0.00103
-0.00318
-0.00446
-0.00399
-0.00197
0.00045
0.00191
0.00190
0.00143
0.00184
0.00277
0.00226
-0.00007
-0.00165
-0.00046
0.00163
0.00146
-0.00075
-0.00218
-0.00180
-0.00113
-0.00115
-0.00118
-0.00077
-0.00040
-0.00014
0.00061
0.00165
0.00185
0.00097
0.00009
-0.00015
-0.00008
0.00026
0.00109
0.00155
0.00039
-0.00192
-0.00353
-0.00343
-0.00206
-0.00008
0.00208
0.00371
0.00387
0.00250
0.00089
0.00032
0.00043
-0.00009
-0.00134
-0.00211
-0.00179
-0.00110
-0.00100
-0.00169
-0.00252
-0.00241
-0.00092
0.00095
0.00169
0.00109
0.00029
0.00010
0.00027
0.00034
0.00040
0.00079
0.00150
0.00213
0.00253
0.00318
0.00432
0.00482
0.00302
-0.00078
-0.00407
-0.00494
-0.00414
-0.00363
-0.00387
-0.00375
-0.00278
-0.00219
-0.00312
-0.00452
-0.00414
-0.00166
0.00072
0.00144
0.00179
0.00377
0.00688
0.00878
0.00862
0.00772
0.00722
0.00680
0.00599
0.00508
0.00393
0.00142
-0.00285
-0.00743
-0.01058
-0.01190
-0.01225
-0.01346
-0.01694
-0.02099
-0.02113
-0.01489
-0.00449
0.00648
0.01581
0.02171
0.02321
0.02224
0.02172
0.02154
0.01964
0.01574
0.01078
0.00453
-0.00288
-0.00939
-0.01374
-0.01699
-0.01947
-0.01976
-0.01816
-0.01703
-0.01638
-0.01373
-0.00918
-0.00613
-0.00613
-0.00697
-0.00638
-0.00416
-0.00034
0.00546
0.01243
0.01895
0.02481
0.03073
0.03610
0.03923
0.04022
0.04091
0.04097
0.03638
0.02369
0.00465
-0.01570
-0.03522
-0.05669
-0.08258
-0.10949
-0.12949
-0.13630
-0.12852
-0.10778
-0.07592
-0.03197
0.03162
0.12449
0.23943
0.33822
0.36925
0.30807
0.17781
0.02836
-0.09920
-0.18846
-0.24130
-0.26581
-0.26765
-0.24633
-0.19839
-0.12515
-0.03711
0.04847
0.11453
0.15161
0.16142
0.15274
0.13350
0.10759
0.07778
0.04770
0.02005
-0.00467
-0.02629
-0.04331
-0.05397
-0.05832
-0.05813
-0.05499
-0.04896
-0.03972
-0.02832
-0.01699
-0.00728
0.00085
0.00779
0.01334
0.01708
0.01936
0.02093
0.02211
0.02247
0.02109
0.01733
0.01183
0.00660
0.00317
0.00089
-0.00201
-0.00578
-0.00887
-0.01038
-0.01121
-0.01208
-0.01174
-0.00886
-0.00488
-0.00270
-0.00266
-0.00210
0.00047
0.00333
0.00444
0.00429
0.00444
0.00476
0.00404
0.00249
0.00180
0.00243
0.00263
0.00103
-0.00138
-0.00269
-0.00237
-0.00114
-0.00005
-0.00009
-0.00133
-0.00217
-0.00107
0.00109
0.00199
0.00122
0.00070
0.00123
0.00087
-0.00162
-0.00402
-0.00368
-0.00165
-0.00079
-0.00113
-0.00043
0.00156
0.00269
0.00213
0.00134
0.00126
0.00128
0.00104
0.00120
0.00172
0.00153
0.00032
-0.00099
-0.00211
-0.00357
-0.00463
-0.00368
-0.00103
0.00109
0.00158
0.00141
0.00143
0.00159
0.00210
0.00319
0.00394
0.00281
-0.00040
-0.00389
-0.00523
-0.00350
-0.00051
0.00067
-0.00090
-0.00305
-0.00341
-0.00216
-0.00061
0.00110
0.00339
0.00554
0.00640
0.00566
0.00323
-0.00079
-0.00446
-0.00482
-0.00204
0.00013
-0.00031
-0.00079
0.00108
0.00311
0.00183
-0.00203
-0.00440
-0.00342
-0.00134
-0.00082
-0.00155
-0.00151
-0.00007
0.00180
0.00303
0.00298
0.00122
-0.00146
-0.00295
-0.00168
0.00169
0.00488
0.00585
0.00421
0.00135
-0.00097
-0.00198
-0.00197
-0.00149
-0.00089
-0.00044
-0.00028
-0.00031
-0.00023
0.00002
-0.00004
-0.00116
-0.00340
-0.00570
-0.00682
-0.00642
-0.00488
-0.00249
0.00041
0.00286
0.00409
0.00494
0.00690
0.00972
0.01129
0.01046
0.00838
0.00659
0.00492
0.00232
-0.00112
-0.00440
-0.00715
-0.00932
-0.01030
-0.01030
-0.01160
-0.01569
-0.01972
-0.01898
-0.01262
-0.00423
0.00325
0.01012
0.01684
0.02137
0.02158
0.01854
0.01566
0.01494
0.01511
0.01326
0.00804
0.00116
-0.00454
-0.00815
-0.01083
-0.01344
-0.01538
-0.01597
-0.01550
-0.01467
-0.01381
-0.01295
-0.01211
-0.01138
-0.01072
-0.00960
-0.00710
-0.00307
0.00115
0.00474
0.00930
0.01693
0.02673
0.03542
0.04124
0.04494
0.04704
0.04632
0.04152
0.03279
0.02048
0.00387
-0.01736
-0.04138
-0.06575
-0.09001
-0.11417
-0.13432
-0.14269
-0.13392
-0.10959
-0.07467
-0.02842
0.03974
0.13959
0.25919
0.35683
0.38314
0.31707
0.18065
0.02134
-0.11673
-0.21047
-0.25986
-0.27786
-0.27500
-0.25116
-0.20102
-0.12482
-0.03320
0.05564
0.12322
0.15956
0.16735
0.15699
0.13729
0.11181
0.08196
0.05015
0.01949
-0.00763
-0.02990
-0.04662
-0.05751
-0.06271
-0.06250
-0.05732
-0.04829
-0.03755
-0.02725
-0.01825
-0.01003
-0.00163
0.00731
0.01564
0.02111
0.02284
0.02269
0.02297
0.02326
0.02111
0.01597
0.01042
0.00690
0.00462
0.00137
-0.00304
-0.00681
-0.00916
-0.01100
-0.01262
-0.01280
-0.01106
-0.00851
-0.00582
-0.00249
0.00075
0.00163
-0.00002
-0.00103
0.00090
0.00404
0.00531
0.00418
0.00253
0.00200
0.00262
0.00331
0.00317
0.00201
0.00027
-0.00127
-0.00171
-0.00079
0.00063
0.00151
0.00168
0.00122
-0.00019
-0.00232
-0.00384
-0.00375
-0.00283
-0.00263
-0.00327
-0.00312
-0.00114
0.00127
0.00203
0.00141
0.00161
0.00310
0.00388
0.00269
0.00092
0.00033
0.00098
0.00176
0.00168
0.00035
-0.00168
-0.00297
-0.00275
-0.00190
-0.00174
-0.00223
-0.00202
-0.00037
0.00173
0.00267
0.00208
0.00101
0.00045
0.00016
-0.00071
-0.00204
-0.00244
-0.00102
0.00113
0.00223
0.00208
0.00186
0.00192
0.00134
-0.00051
-0.00276
-0.00375
-0.00265
-0.00059
0.00055
0.00042
0.00041
0.00116
0.00155
0.00081
0.00006
0.00052
0.00151
0.00158
0.00057
-0.00077
-0.00182
-0.00199
-0.00090
0.00054
0.00062
-0.00069
-0.00156
-0.00100
-0.00003
0.00025
0.00008
0.00009
0.00022
0.00017
-0.00002
-0.00008
-0.00000
0.00005
0.00006
0.00022
0.00059
0.00090
0.00104
0.00139
0.00219
0.00266
0.00169
-0.00041
-0.00174
-0.00109
0.00043
0.00078
-0.00034
-0.00141
-0.00161
-0.00198
-0.00348
-0.00556
-0.00700
-0.00690
-0.00489
-0.00184
0.00056
0.00211
0.00453
0.00813
0.01055
0.01040
0.00955
0.00978
0.00992
0.00813
0.00475
0.00095
-0.00340
-0.00826
-0.01171
-0.01247
-0.01262
-0.01516
-0.01930
-0.02106
-0.01803
-0.01136
-0.00309
0.00589
0.01439
0.02002
0.02149
0.02031
0.01897
0.01850
0.01842
0.01748
0.01380
0.00647
-0.00256
-0.00991
-0.01418
-0.01649
-0.01812
-0.01879
-0.01746
-0.01414
-0.01100
-0.01063
-0.01256
-0.01307
-0.00990
-0.00546
-0.00318
-0.00269
-0.00072
0.00429
0.01107
0.01788
0.02396
0.02914
0.03321
0.03565
0.03608
0.03511
0.03385
0.03202
0.02738
0.01726
0.00027
-0.02284
-0.04923
-0.07573
-0.10067
-0.12213
-0.13470
-0.13169
-0.11221
-0.08268
-0.04709
0.00329
0.08456
0.19806
0.31242
0.37401
0.34373
0.22761
0.07183
-0.07128
-0.17320
-0.23356
-0.26417
-0.27251
-0.25723
-0.21431
-0.14448
-0.05661
0.03298
0.10545
0.14825
0.16141
0.15447
0.13709
0.11353
0.08486
0.05334
0.02304
-0.00291
-0.02384
-0.03991
-0.05062
-0.05593
-0.05731
-0.05593
-0.05120
-0.04243
-0.03090
-0.01919
-0.00897
-0.00025
0.00748
0.01413
0.01908
0.02205
0.02343
0.02341
0.02152
0.01783
0.01377
0.01058
0.00757
0.00341
-0.00158
-0.00585
-0.00844
-0.00901
-0.00784
-0.00654
-0.00704
-0.00847
-0.00767
-0.00421
-0.00179
-0.00293
-0.00490
-0.00371
0.00019
0.00321
0.00390
0.00388
0.00439
0.00486
0.00472
0.00428
0.00370
0.00286
0.00195
0.00109
-0.00028
-0.00221
-0.00341
-0.00310
-0.00264
-0.00315
-0.00318
-0.00110
0.00155
0.00213
0.00070
-0.00095
-0.00238
-0.00373
-0.00354
-0.00068
0.00292
0.00431
0.00346
0.00275
0.00324
0.00370
0.00286
0.00088
-0.00147
-0.00329
-0.00358
-0.00226
-0.00098
-0.00148
-0.00316
-0.00379
-0.00264
-0.00122
-0.00078
-0.00042
0.00140
0.00443
0.00679
0.00719
0.00588
0.00364
0.00080
-0.00216
-0.00407
-0.00431
-0.00404
-0.00472
-0.00554
-0.00405
0.00003
0.00352
0.00344
0.00068
-0.00138
-0.00102
0.00061
0.00186
0.00251
0.00282
0.00245
0.00120
-0.00017
-0.00085
-0.00110
-0.00150
-0.00191
-0.00153
0.00011
0.00248
0.00407
0.00353
0.00134
-0.00047
-0.00094
-0.00155
-0.00365
-0.00585
-0.00580
-0.00358
-0.00125
0.00025
0.00164
0.00305
0.00344
0.00243
0.00110
0.00054
0.00055
0.00041
0.00023
0.00080
0.00210
0.00288
0.00247
0.00188
0.00191
0.00145
-0.00072
-0.00338
-0.00414
-0.00257
-0.00049
0.00028
-0.00048
-0.00176
-0.00287
-0.00420
-0.00591
-0.00648
-0.00438
-0.00086
0.00117
0.00116
0.00136
0.00302
0.00487
0.00582
0.00674
0.00846
0.01018
0.01084
0.01023
0.00831
0.00485
0.00031
-0.00433
-0.00858
-0.01226
-0.01499
-0.01692
-0.01879
-0.01992
-0.01811
-0.01276
-0.00606
0.00028
0.00681
0.01372
0.01869
0.01967
0.01818
0.01749
0.01805
0.01714
0.01320
0.00811
0.00415
0.00101
-0.00286
-0.00760
-0.01210
-0.01562
-0.01757
-0.01692
-0.01379
-0.01070
-0.01026
-0.01196
-0.01313
-0.01257
-0.01132
-0.01011
-0.00815
-0.00466
-0.00001
0.00528
0.01166
0.01984
0.02931
0.03819
0.04428
0.04639
0.04502
0.04191
0.03797
0.03168
0.02018
0.00238
-0.01967
-0.04300
-0.06670
-0.09170
-0.11711
-0.13750
-0.14483
-0.13435
-0.10850
-0.07234
-0.02327
0.05115
0.15792
0.27835
0.36757
0.38056
0.30308
0.16066
0.00121
-0.13213
-0.21934
-0.26419
-0.28011
-0.27485
-0.24666
-0.19172
-0.11227
-0.01979
0.06726
0.13079
0.16264
0.16734
0.15484
0.13211
0.10285
0.07126
0.04152
0.01513
-0.00828
-0.02816
-0.04304
-0.05240
-0.05681
-0.05714
-0.05433
-0.04926
-0.04222
-0.03328
-0.02306
-0.01246
-0.00156
0.00936
0.01825
0.02296
0.02430
0.02497
0.02542
0.02373
0.01960
0.01533
0.01219
0.00882
0.00395
-0.00141
-0.00556
-0.00830
-0.01057
-0.01263
-0.01343
-0.01197
-0.00893
-0.00611
-0.00441
-0.00311
-0.00144
0.00028
0.00151
0.00238
0.00314
0.00335
0.00266
0.00190
0.00210
0.00282
0.00279
0.00199
0.00183
0.00278
0.00354
0.00284
0.00115
-0.00041
-0.00177
-0.00330
-0.00422
-0.00344
-0.00155
-0.00033
-0.00046
-0.00105
-0.00124
-0.00100
-0.00068
-0.00076
-0.00131
-0.00134
0.00024
0.00276
0.00426
0.00427
0.00395
0.00349
0.00175
-0.00124
-0.00380
-0.00486
-0.00486
-0.00414
-0.00231
0.00037
0.00257
0.00328
0.00286
0.00221
0.00170
0.00120
0.00070
0.00026
-0.00026
-0.00090
-0.00130
-0.00141
-0.00190
-0.00281
-0.00285
-0.00128
0.00051
0.00101
0.00095
0.00160
0.00236
0.00206
0.00121
0.00090
0.00082
0.00001
-0.00134
-0.00213
-0.00179
-0.00075
0.00038
0.00131
0.00161
0.00053
-0.00177
-0.00347
-0.00268
0.00018
0.00278
0.00357
0.00311
0.00238
0.00130
-0.00021
-0.00127
-0.00148
-0.00214
-0.00414
-0.00578
-0.00468
-0.00126
0.00154
0.00184
0.00080
0.00100
0.00326
0.00563
0.00592
0.00446
0.00295
0.00160
-0.00035
-0.00214
-0.00223
-0.00132
-0.00174
-0.00375
-0.00491
-0.00374
-0.00185
-0.00143
-0.00228
-0.00261
-0.00205
-0.00188
-0.00246
-0.00238
-0.00070
0.00180
0.00405
0.00590
0.00739
0.00831
0.00889
0.00961
0.01020
0.00971
0.00755
0.00405
-0.00025
-0.00552
-0.01239
-0.02001
-0.02526
-0.02541
-0.02133
-0.01594
-0.00997
-0.00202
0.00693
0.01272
0.01313
0.01134
0.01252
0.01818
0.02498
0.02824
0.02544
0.01722
0.00659
-0.00268
-0.00833
-0.01105
-0.01317
-0.01586
-0.01814
-0.01871
-0.01790
-0.01730
-0.01753
-0.01709
-0.01423
-0.00944
-0.00525
-0.00336
-0.00265
-0.00035
0.00512
0.01271
0.02002
0.02568
0.03018
0.03444
0.03829
0.04080
0.04137
0.03968
0.03462
0.02432
0.00833
-0.01112
-0.03155
-0.05343
-0.07849
-0.10449
-0.12455
-0.13256
-0.12709
-0.10970
-0.08165
-0.04160
0.01685
0.10246
0.21179
0.31483
0.36427
0.32814
0.21441
0.06394
-0.07697
-0.17903
-0.23668
-0.26087
-0.26449
-0.25051
-0.21259
-0.14601
-0.05764
0.03376
0.10692
0.14960
0.16308
0.15638
0.13775
0.11175
0.08169
0.05108
0.02258
-0.00244
-0.02293
-0.03806
-0.04797
-0.05362
-0.05577
-0.05474
-0.05076
-0.04382
-0.03389
-0.02217
-0.01100
-0.00181
0.00587
0.01255
0.01754
0.02030
0.02170
0.02267
0.02271
0.02126
0.01900
0.01631
0.01201
0.00527
-0.00209
-0.00696
-0.00848
-0.00889
-0.01026
-0.01169
-0.01102
-0.00873
-0.00750
-0.00781
-0.00671
-0.00255
0.00206
0.00374
0.00281
0.00192
0.00201
0.00238
0.00300
0.00408
0.00447
0.00331
0.00211
0.00247
0.00324
0.00253
0.00078
-0.00046
-0.00133
-0.00277
-0.00397
-0.00343
-0.00186
-0.00123
-0.00146
-0.00092
0.00015
-0.00029
-0.00245
-0.00371
-0.00222
0.00072
0.00274
0.00323
0.00307
0.00296
0.00316
0.00368
0.00385
0.00258
0.00002
-0.00211
-0.00274
-0.00264
-0.00285
-0.00326
-0.00356
-0.00420
-0.00503
-0.00449
-0.00154
0.00234
0.00453
0.00415
0.00298
0.00354
0.00638
0.00886
0.00736
0.00148
-0.00476
-0.00698
-0.00501
-0.00239
-0.00202
-0.00351
-0.00457
-0.00374
-0.00180
-0.00058
-0.00075
-0.00112
-0.00019
0.00226
0.00515
0.00688
0.00635
0.00419
0.00234
0.00158
0.00057
-0.00176
-0.00422
-0.00496
-0.00393
-0.00259
-0.00190
-0.00161
-0.00121
-0.00043
0.00087
0.00244
0.00315
0.00192
-0.00030
-0.00106
0.00032
0.00178
0.00154
0.00035
-0.00033
-0.00050
-0.00088
-0.00126
-0.00095
-0.00037
-0.00070
-0.00200
-0.00282
-0.00194
0.00024
0.00228
0.00324
0.00321
0.00274
0.00222
0.00179
0.00135
0.00060
-0.00053
-0.00121
-0.00029
0.00156
0.00158
-0.00171
-0.00567
-0.00628
-0.00332
-0.00041
-0.00016
-0.00181
-0.00357
-0.00461
-0.00419
-0.00188
0.00083
0.00172
0.00133
0.00275
0.00693
0.01109
0.01264
0.01217
0.01131
0.00979
0.00650
0.00178
-0.00304
-0.00736
-0.01114
-0.01394
-0.01561
-0.01712
-0.01917
-0.02061
-0.01945
-0.01492
-0.00747
0.00236
0.01357
0.02328
0.02781
0.02636
0.02242
0.01990
0.01864
0.01551
0.00921
0.00188
-0.00409
-0.00845
-0.01198
-0.01463
-0.01595
-0.01609
-0.01531
-0.01343
-0.01081
-0.00905
-0.00946
-0.01137
-0.01299
-0.01329
-0.01201
-0.00881
-0.00367
0.00245
0.00849
0.01458
0.02133
0.02855
0.03528
0.04080
0.04461
0.04603
0.04435
0.03918
0.03017
0.01683
-0.00068
-0.02103
-0.04293
-0.06658
-0.09247
-0.11826
-0.13791
-0.14474
-0.13520
-0.10966
-0.06988
-0.01430
0.06386
0.16813
0.28240
0.36588
0.37440
0.29316
0.14899
-0.00832
-0.13673
-0.21989
-0.26389
-0.28088
-0.27568
-0.24554
-0.18803
-0.10694
-0.01386
0.07281
0.13471
0.16427
0.16751
0.15471
0.13180
0.10196
0.06973
0.03948
0.01248
-0.01141
-0.03092
-0.04443
-0.05225
-0.05623
-0.05748
-0.05585
-0.05098
-0.04290
-0.03218
-0.02018
-0.00882
0.00092
0.00946
0.01710
0.02287
0.02575
0.02608
0.02498
0.02292
0.01977
0.01572
0.01133
0.00689
0.00245
-0.00165
-0.00503
-0.00786
-0.01038
-0.01205
-0.01190
-0.01009
-0.00805
-0.00692
-0.00647
-0.00592
-0.00492
-0.00334
-0.00096
0.00214
0.00504
0.00641
0.00585
0.00467
0.00457
0.00557
0.00607
0.00505
0.00324
0.00173
0.00052
-0.00081
-0.00208
-0.00296
-0.00379
-0.00491
-0.00563
-0.00506
-0.00358
-0.00231
-0.00125
0.00047
0.00254
0.00331
0.00233
0.00148
0.00247
0.00433
0.00473
0.00320
0.00113
-0.00091
-0.00346
-0.00589
-0.00640
-0.00439
-0.00128
0.00127
0.00258
0.00281
0.00266
0.00275
0.00272
0.00163
-0.00043
-0.00225
-0.00306
-0.00302
-0.00216
-0.00044
0.00134
0.00204
0.00165
0.00109
0.00088
0.00074
0.00039
-0.00006
-0.00037
-0.00052
-0.00067
-0.00091
-0.00096
-0.00051
0.00005
-0.00027
-0.00165
-0.00263
-0.00165
0.00076
0.00213
0.00101
-0.00106
-0.00112
0.00166
0.00482
0.00533
0.00299
0.00042
-0.00027
0.00015
-0.00048
-0.00263
-0.00473
-0.00533
-0.00408
-0.00135
0.00172
0.00321
0.00230
0.00049
-0.00028
-0.00002
0.00006
-0.00040
-0.00076
-0.00075
-0.00071
-0.00073
-0.00046
0.00017
0.00076
0.00134
0.00248
0.00404
0.00448
0.00262
-0.00038
-0.00196
-0.00105
0.00087
0.00162
0.00055
-0.00128
-0.00252
-0.00306
-0.00368
-0.00455
-0.00474
-0.00374
-0.00250
-0.00228
-0.00303
-0.00342
-0.00230
0.00032
0.00332
0.00582
0.00811
0.01070
0.01254
0.01198
0.00951
0.00757
0.00679
0.00469
-0.00067
-0.00762
-0.01262
-0.01406
-0.01341
-0.01334
-0.01530
-0.01833
-0.01991
-0.01774
-0.01109
-0.00106
0.00959
0.01789
0.02261
0.02463
0.02497
0.02364
0.02074
0.01711
0.01290
0.00692
-0.00111
-0.00905
-0.01424
-0.01635
-0.01704
-0.01720
-0.01610
-0.01324
-0.01006
-0.00865
-0.00923
-0.01020
-0.01058
-0.01074
-0.01070
-0.00925
-0.00537
0.00064
0.00755
0.01436
0.02090
0.02746
0.03358
0.03792
0.03974
0.03958
0.03777
0.03353
0.02619
0.01589
0.00262
-0.01402
-0.03379
-0.05561
-0.07849
-0.10077
-0.11890
-0.12801
-0.12399
-0.10541
-0.07404
-0.03116
0.02925
0.11778
0.22915
0.32585
0.35650
0.29843
0.17637
0.03709
-0.08521
-0.17767
-0.23826
-0.26832
-0.27103
-0.24840
-0.19917
-0.12397
-0.03327
0.05300
0.11651
0.15102
0.16124
0.15397
0.13350
0.10438
0.07312
0.04448
0.01860
-0.00576
-0.02717
-0.04284
-0.05224
-0.05699
-0.05799
-0.05500
-0.04830
-0.03914
-0.02885
-0.01852
-0.00879
0.00035
0.00877
0.01539
0.01938
0.02172
0.02368
0.02445
0.02240
0.01815
0.01416
0.01135
0.00834
0.00405
-0.00076
-0.00505
-0.00861
-0.01125
-0.01238
-0.01199
-0.01061
-0.00852
-0.00591
-0.00354
-0.00182
-0.00026
0.00115
0.00134
0.00032
0.00011
0.00191
0.00411
0.00472
0.00398
0.00307
0.00216
0.00116
0.00087
0.00173
0.00264
0.00220
0.00063
-0.00057
-0.00070
-0.00089
-0.00253
-0.00497
-0.00598
-0.00474
-0.00274
-0.00116
0.00078
0.00353
0.00514
0.00361
0.00061
-0.00012
0.00199
0.00342
0.00180
-0.00098
-0.00217
-0.00194
-0.00185
-0.00217
-0.00242
-0.00279
-0.00308
-0.00208
0.00038
0.00261
0.00346
0.00377
0.00417
0.00362
0.00170
0.00009
0.00002
0.00016
-0.00103
-0.00271
-0.00316
-0.00240
-0.00171
-0.00153
-0.00138
-0.00101
-0.00062
-0.00029
0.00007
0.00047
0.00108
0.00203
0.00300
0.00338
0.00303
0.00215
0.00058
-0.00190
-0.00440
-0.00507
-0.00299
0.00039
0.00240
0.00187
0.00036
0.00017
0.00141
0.00209
0.00093
-0.00094
-0.00171
-0.00113
-0.00034
-0.00001
0.00011
0.00003
-0.00064
-0.00151
-0.00128
0.00032
0.00173
0.00160
0.00048
-0.00030
-0.00055
-0.00082
-0.00094
-0.00037
0.00046
0.00051
-0.00025
-0.00094
-0.00115
-0.00105
-0.00043
0.00094
0.00234
0.00299
0.00314
0.00342
0.00359
0.00297
0.00149
-0.00027
-0.00163
-0.00250
-0.00343
-0.00485
-0.00621
-0.00657
-0.00587
-0.00484
-0.00393
-0.00287
-0.00137
0.00047
0.00240
0.00436
0.00642
0.00859
0.01046
0.01120
0.01019
0.00789
0.00580
0.00501
0.00447
0.00168
-0.00392
-0.00962
-0.01263
-0.01331
-0.01394
-0.01547
-0.01723
-0.01817
-0.01690
-0.01175
-0.00269
0.00753
0.01552
0.01992
0.02119
0.02014
0.01792
0.01632
0.01596
0.01525
0.01237
0.00734
0.00124
-0.00514
-0.01084
-0.01482
-0.01728
-0.01913
-0.01975
-0.01771
-0.01395
-0.01122
-0.01044
-0.01015
-0.00957
-0.00927
-0.00878
-0.00650
-0.00193
0.00385
0.00999
0.01667
0.02394
0.03108
0.03721
0.04184
0.04460
0.04473
0.04134
0.03408
0.02320
0.00889
-0.00873
-0.02878
-0.05017
-0.07304
-0.09769
-0.12100
-0.13591
-0.13622
-0.12097
-0.09330
-0.05448
0.00181
0.08652
0.19916
0.31158
0.37504
0.35265
0.24705
0.09665
-0.05172
-0.16652
-0.23823
-0.27303
-0.28094
-0.26596
-0.22549
-0.15827
-0.07130
0.02015
0.09781
0.14788
0.16723
0.16282
0.14427
0.11801
0.08808
0.05777
0.02887
0.00190
-0.02156
-0.03889
-0.04923
-0.05411
-0.05548
-0.05431
-0.05060
-0.04389
-0.03443
-0.02394
-0.01415
-0.00500
0.00415
0.01233
0.01768
0.01999
0.02091
0.02181
0.02250
0.02166
0.01835
0.01334
0.00859
0.00501
0.00152
-0.00261
-0.00612
-0.00758
-0.00778
-0.00831
-0.00921
-0.00936
-0.00842
-0.00704
-0.00558
-0.00389
-0.00208
-0.00051
0.00080
0.00196
0.00268
0.00260
0.00224
0.00249
0.00325
0.00364
0.00353
0.00368
0.00401
0.00335
0.00119
-0.00126
-0.00241
-0.00193
-0.00101
-0.00099
-0.00214
-0.00336
-0.00324
-0.00158
0.00034
0.00119
0.00101
0.00071
0.00072
0.00075
0.00060
0.00038
0.00011
-0.00024
-0.00056
-0.00086
-0.00141
-0.00210
-0.00203
-0.00060
0.00133
0.00227
0.00190
0.00139
0.00180
0.00253
0.00203
0.00011
-0.00148
-0.00135
-0.00058
-0.00100
-0.00220
-0.00213
-0.00045
0.00107
0.00117
0.00058
0.00040
0.00053
0.00027
-0.00036
-0.00070
-0.00051
-0.00059
-0.00167
-0.00299
-0.00285
-0.00086
0.00152
0.00287
0.00321
0.00333
0.00328
0.00237
0.00044
-0.00144
-0.00196
-0.00109
-0.00011
-0.00012
-0.00101
-0.00176
-0.00163
-0.00086
-0.00033
-0.00051
-0.00085
-0.00051
0.00056
0.00148
0.00163
0.00140
0.00158
0.00184
0.00075
-0.00193
-0.00395
-0.00306
-0.00029
0.00099
-0.00029
-0.00157
-0.00066
0.00107
0.00121
0.00027
0.00063
0.00260
0.00399
0.00354
0.00231
0.00143
0.00043
-0.00101
-0.00168
-0.00062
0.00062
-0.00031
-0.00303
-0.00484
-0.00458
-0.00400
-0.00476
-0.00604
-0.00594
-0.00406
-0.00147
0.00111
0.00395
0.00697
0.00902
0.00941
0.00908
0.00925
0.00974
0.00948
0.00793
0.00507
0.00085
-0.00422
-0.00872
-0.01147
-0.01282
-0.01393
-0.01551
-0.01733
-0.01831
-0.01680
-0.01180
-0.00394
0.00496
0.01313
0.01916
0.02192
0.02117
0.01842
0.01611
0.01529
0.01461
0.01182
0.00626
-0.00056
-0.00633
-0.00995
-0.01205
-0.01369
-0.01482
-0.01481
-0.01399
-0.01349
-0.01361
-0.01360
-0.01290
-0.01180
-0.01078
-0.00967
-0.00750
-0.00334
0.00277
0.00995
0.01745
0.02457
0.03015
0.03398
0.03771
0.04220
0.04480
0.04214
0.03444
0.02408
0.01127
-0.00543
-0.02533
-0.04620
-0.06761
-0.09009
-0.11103
-0.12484
-0.12721
-0.11686
-0.09401
-0.05912
-0.01059
0.05841
0.15404
0.26339
0.34554
0.35398
0.27414
0.13563
-0.01197
-0.13142
-0.21017
-0.25312
-0.26994
-0.26551
-0.23710
-0.17992
-0.09688
-0.00310
0.07997
0.13583
0.16046
0.16070
0.14620
0.12342
0.09563
0.06553
0.03576
0.00838
-0.01495
-0.03315
-0.04624
-0.05474
-0.05844
-0.05705
-0.05176
-0.04453
-0.03606
-0.02597
-0.01491
-0.00484
0.00296
0.00913
0.01501
0.02068
0.02475
0.02594
0.02442
0.02143
0.01789
0.01368
0.00850
0.00304
-0.00137
-0.00424
-0.00643
-0.00859
-0.01000
-0.00967
-0.00801
-0.00646
-0.00578
-0.00544
-0.00467
-0.00343
-0.00208
-0.00081
0.00041
0.00155
0.00247
0.00308
0.00343
0.00358
0.00346
0.00303
0.00242
0.00179
0.00103
-0.00003
-0.00111
-0.00152
-0.00092
0.00062
0.00288
0.00505
0.00523
0.00191
-0.00360
-0.00775
-0.00852
-0.00715
-0.00542
-0.00305
0.00049
0.00352
0.00386
0.00244
0.00228
0.00409
0.00536
0.00428
0.00199
0.00015
-0.00135
-0.00290
-0.00376
-0.00332
-0.00240
-0.00181
-0.00125
-0.00033
0.00048
0.00101
0.00194
0.00327
0.00341
0.00163
-0.00023
-0.00046
-0.00033
-0.00173
-0.00337
-0.00273
-0.00037
0.00105
0.00100
0.00099
0.00109
-0.00001
-0.00192
-0.00266
-0.00167
-0.00025
0.00096
0.00255
0.00422
0.00436
0.00226
-0.00073
-0.00282
-0.00344
-0.00299
-0.00191
-0.00070
0.00026
0.00101
0.00180
0.00228
0.00175
0.00016
-0.00159
-0.00232
-0.00134
0.00082
0.00268
0.00305
0.00192
0.00006
-0.00181
-0.00312
-0.00348
-0.00302
-0.00211
-0.00082
0.00064
0.00154
0.00149
0.00120
0.00128
0.00116
0.00025
-0.00057
-0.00011
0.00139
0.00257
0.00240
0.00100
-0.00051
-0.00090
-0.00019
0.00052
0.00073
0.00094
0.00103
0.00009
-0.00179
-0.00322
-0.00339
-0.00283
-0.00196
-0.00077
-0.00017
-0.00157
-0.00429
-0.00574
-0.00474
-0.00265
-0.00039
0.00273
0.00634
0.00829
0.00788
0.00742
0.00895
0.01139
0.01209
0.00979
0.00524
-0.00012
-0.00543
-0.01033
-0.01410
-0.01564
-0.01510
-0.01463
-0.01613
-0.01833
-0.01749
-0.01135
-0.00156
0.00799
0.01474
0.01879
0.02119
0.02207
0.02126
0.01964
0.01794
0.01517
0.00990
0.00294
-0.00325
-0.00747
-0.01060
-0.01365
-0.01623
-0.01722
-0.01632
-0.01457
-0.01374
-0.01472
-0.01643
-0.01674
-0.01460
-0.01062
-0.00567
-0.00032
0.00455
0.00833
0.01218
0.01813
0.02623
0.03384
0.03860
0.04091
0.04245
0.04293
0.03983
0.03171
0.02019
0.00718
-0.00842
-0.02909
-0.05424
-0.08028
-0.10481
-0.12671
-0.14142
-0.14098
-0.12186
-0.08876
-0.04562
0.01540
0.10784
0.22755
0.33802
0.38741
0.34537
0.22415
0.06676
-0.08063
-0.18880
-0.25105
-0.27713
-0.27942
-0.26122
-0.21782
-0.14743
-0.05866
0.03153
0.10520
0.15112
0.16850
0.16401
0.14520
0.11755
0.08599
0.05520
0.02734
0.00191
-0.02117
-0.03965
-0.05137
-0.05687
-0.05857
-0.05799
-0.05486
-0.04822
-0.03791
-0.02527
-0.01245
-0.00100
0.00853
0.01576
0.02020
0.02226
0.02337
0.02433
0.02431
0.02214
0.01791
0.01258
0.00714
0.00255
-0.00052
-0.00252
-0.00468
-0.00738
-0.00972
-0.01086
-0.01092
-0.01049
-0.00994
-0.00900
-0.00700
-0.00376
-0.00020
0.00227
0.00307
0.00301
0.00359
0.00551
0.00745
0.00707
0.00381
-0.00003
-0.00166
-0.00071
0.00083
0.00103
-0.00031
-0.00191
-0.00243
-0.00144
0.00039
0.00176
0.00173
0.00077
0.00030
0.00060
-0.00003
-0.00247
-0.00457
-0.00375
-0.00107
0.00020
-0.00043
-0.00040
0.00113
0.00179
0.00025
-0.00127
-0.00025
0.00248
0.00417
0.00347
0.00125
-0.00084
-0.00177
-0.00163
-0.00118
-0.00093
-0.00073
-0.00040
-0.00012
0.00003
0.00030
0.00057
0.00040
-0.00002
0.00030
0.00146
0.00185
0.00023
-0.00214
-0.00288
-0.00145
0.00034
0.00077
-0.00000
-0.00073
-0.00086
-0.00078
-0.00076
-0.00045
0.00047
0.00167
0.00258
0.00301
0.00283
0.00166
-0.00046
-0.00248
-0.00347
-0.00346
-0.00248
-0.00019
0.00254
0.00362
0.00244
0.00086
0.00038
0.00020
-0.00086
-0.00211
-0.00222
-0.00131
-0.00051
-0.00033
-0.00037
-0.00032
-0.00028
-0.00038
-0.00052
-0.00054
-0.00036
-0.00008
0.00018
0.00060
0.00147
0.00255
0.00307
0.00269
0.00186
0.00120
0.00089
0.00073
0.00023
-0.00080
-0.00154
-0.00120
-0.00071
-0.00157
-0.00313
-0.00348
-0.00265
-0.00240
-0.00305
-0.00313
-0.00229
-0.00187
-0.00241
-0.00234
-0.00009
0.00356
0.00640
0.00747
0.00789
0.00860
0.00870
0.00716
0.00498
0.00392
0.00359
0.00164
-0.00264
-0.00708
-0.00954
-0.01033
-0.01078
-0.01137
-0.01235
-0.01434
-0.01650
-0.01561
-0.00902
0.00173
0.01168
0.01721
0.01889
0.01918
0.01910
0.01832
0.01713
0.01607
0.01401
0.00883
0.00024
-0.00901
-0.01533
-0.01716
-0.01580
-0.01368
-0.01230
-0.01180
-0.01167
-0.01113
-0.00959
-0.00795
-0.00812
-0.01019
-0.01142
-0.00944
-0.00480
0.00059
0.00625
0.01269
0.01969
0.02639
0.03261
0.03881
0.04444
0.04714
0.04436
0.03605
0.02487
0.01265
-0.00202
-0.02110
-0.04355
-0.06711
-0.09115
-0.11426
-0.13031
-0.13172
-0.11671
-0.09039
-0.05725
-0.01300
0.05531
0.15564
0.27070
0.35399
0.35730
0.26937
0.12537
-0.02194
-0.13693
-0.21135
-0.25262
-0.26926
-0.26392
-0.23353
-0.17478
-0.09148
0.00187
0.08439
0.13931
0.16232
0.16063
0.14472
0.12131
0.09262
0.06002
0.02733
-0.00028
-0.02035
-0.03468
-0.04544
-0.05195
-0.05288
-0.04971
-0.04525
-0.04008
-0.03302
-0.02404
-0.01471
-0.00613
0.00169
0.00857
0.01368
0.01667
0.01835
0.01963
0.02037
0.01989
0.01815
0.01574
0.01274
0.00860
0.00322
-0.00227
-0.00614
-0.00773
-0.00802
-0.00848
-0.00936
-0.00983
-0.00922
-0.00776
-0.00612
-0.00453
-0.00267
-0.00034
0.00175
0.00272
0.00294
0.00350
0.00434
0.00445
0.00388
0.00359
0.00359
0.00299
0.00151
-0.00043
-0.00240
-0.00373
-0.00354
-0.00167
0.00098
0.00320
0.00373
0.00196
-0.00093
-0.00289
-0.00345
-0.00380
-0.00401
-0.00282
-0.00038
0.00137
0.00146
0.00110
0.00140
0.00189
0.00196
0.00210
0.00267
0.00271
0.00125
-0.00100
-0.00234
-0.00217
-0.00158
-0.00176
-0.00252
-0.00260
-0.00124
0.00081
0.00210
0.00199
0.00099
0.00022
0.00051
0.00148
0.00177
0.00072
-0.00064
-0.00114
-0.00096
-0.00078
-0.00061
-0.00034
-0.00018
0.00027
0.00160
0.00273
0.00157
-0.00143
-0.00333
-0.00299
-0.00240
-0.00250
-0.00147
0.00119
0.00279
0.00184
0.00050
0.00075
0.00141
0.00124
0.00162
0.00349
0.00451
0.00238
-0.00110
-0.00264
-0.00250
-0.00333
-0.00516
-0.00526
-0.00261
0.00068
0.00247
0.00258
0.00179
0.00071
-0.00011
-0.00051
-0.00109
-0.00202
-0.00201
0.00003
0.00274
0.00363
0.00253
0.00171
0.00235
0.00279
0.00122
-0.00137
-0.00242
-0.00154
-0.00092
-0.00160
-0.00166
0.00022
0.00194
0.00120
-0.00064
-0.00095
-0.00021
-0.00078
-0.00252
-0.00316
-0.00233
-0.00185
-0.00245
-0.00290
-0.00230
-0.00119
-0.00060
-0.00059
0.00020
0.00306
0.00729
0.01067
0.01195
0.01157
0.01032
0.00861
0.00627
0.00201
-0.00489
-0.01185
-0.01468
-0.01331
-0.01221
-0.01388
-0.01592
-0.01561
-0.01348
-0.01054
-0.00548
0.00303
0.01301
0.02017
0.02193
0.01960
0.01681
0.01627
0.01737
0.01662
0.01110
0.00199
-0.00607
-0.00955
-0.00943
-0.00947
-0.01144
-0.01340
-0.01309
-0.01153
-0.01148
-0.01355
-0.01557
-0.01526
-0.01241
-0.00870
-0.00623
-0.00521
-0.00333
0.00140
0.00773
0.01321
0.01831
0.02544
0.03441
0.04199
0.04570
0.04559
0.04261
0.03725
0.02901
0.01667
-0.00019
-0.02010
-0.04208
-0.06748
-0.09647
-0.12378
-0.14130
-0.14370
-0.12981
-0.10129
-0.06119
-0.00826
0.06841
0.17706
0.29733
0.37722
0.36968
0.27141
0.12149
-0.03077
-0.15152
-0.22843
-0.26628
-0.27702
-0.26759
-0.23536
-0.17572
-0.09218
0.00106
0.08457
0.14216
0.16763
0.16576
0.14723
0.12160
0.09364
0.06449
0.03491
0.00693
-0.01683
-0.03477
-0.04680
-0.05388
-0.05708
-0.05659
-0.05201
-0.04395
-0.03456
-0.02544
-0.01638
-0.00692
0.00185
0.00863
0.01398
0.01930
0.02400
0.02574
0.02378
0.02040
0.01792
0.01584
0.01218
0.00653
0.00047
-0.00437
-0.00751
-0.00899
-0.00901
-0.00845
-0.00869
-0.00983
-0.01010
-0.00803
-0.00455
-0.00184
-0.00060
0.00023
0.00139
0.00260
0.00338
0.00367
0.00361
0.00341
0.00313
0.00231
0.00074
-0.00053
-0.00021
0.00098
0.00090
-0.00067
-0.00120
0.00098
0.00375
0.00380
0.00111
-0.00106
-0.00097
-0.00085
-0.00321
-0.00659
-0.00730
-0.00440
-0.00061
0.00147
0.00191
0.00195
0.00182
0.00112
0.00058
0.00175
0.00441
0.00582
0.00394
0.00041
-0.00139
-0.00084
-0.00070
-0.00293
-0.00580
-0.00639
-0.00422
-0.00109
0.00128
0.00207
0.00131
0.00055
0.00188
0.00477
0.00591
0.00373
0.00083
-0.00019
-0.00054
-0.00213
-0.00384
-0.00399
-0.00348
-0.00333
-0.00229
0.00002
0.00139
0.00071
0.00005
0.00115
0.00288
0.00331
0.00201
0.00010
-0.00061
0.00077
0.00279
0.00279
0.00028
-0.00232
-0.00279
-0.00176
-0.00133
-0.00196
-0.00199
-0.00048
0.00119
0.00154
0.00103
0.00063
-0.00005
-0.00141
-0.00251
-0.00260
-0.00224
-0.00169
-0.00018
0.00230
0.00446
0.00533
0.00488
0.00326
0.00088
-0.00103
-0.00151
-0.00103
-0.00075
-0.00103
-0.00123
-0.00085
-0.00022
-0.00017
-0.00090
-0.00185
-0.00265
-0.00325
-0.00315
-0.00219
-0.00175
-0.00298
-0.00406
-0.00210
0.00211
0.00463
0.00393
0.00285
0.00424
0.00738
0.00975
0.01032
0.00992
0.00935
0.00798
0.00441
-0.00164
-0.00879
-0.01558
-0.02124
-0.02450
-0.02364
-0.01852
-0.01098
-0.00308
0.00381
0.00837
0.00974
0.00843
0.00692
0.00904
0.01677
0.02634
0.03018
0.02468
0.01384
0.00394
-0.00261
-0.00709
-0.01120
-0.01536
-0.01824
-0.01785
-0.01468
-0.01242
-0.01353
-0.01601
-0.01638
-0.01435
-0.01197
-0.00998
-0.00732
-0.00334
0.00155
0.00704
0.01327
0.02003
0.02669
0.03283
0.03813
0.04173
0.04266
0.04101
0.03756
0.03182
0.02153
0.00526
-0.01523
-0.03697
-0.05955
-0.08422
-0.10873
-0.12654
-0.13254
-0.12598
-0.10680
-0.07395
-0.02743
0.03489
0.12063
0.22898
0.32936
0.36930
0.31597
0.18603
0.03071
-0.10243
-0.19230
-0.24219
-0.26530
-0.26946
-0.25112
-0.20316
-0.12708
-0.03589
0.05193
0.11930
0.15642
0.16473
0.15409
0.13403
0.10860
0.07906
0.04769
0.01752
-0.00915
-0.03070
-0.04581
-0.05426
-0.05720
-0.05640
-0.05322
-0.04825
-0.04132
-0.03198
-0.02046
-0.00825
0.00262
0.01102
0.01716
0.02134
0.02328
0.02329
0.02269
0.02165
0.01836
0.01242
0.00708
0.00520
0.00471
0.00156
-0.00416
-0.00849
-0.00954
-0.00948
-0.00997
-0.00942
-0.00673
-0.00445
-0.00515
-0.00679
-0.00547
-0.00138
0.00187
0.00293
0.00375
0.00496
0.00455
0.00199
0.00009
0.00109
0.00340
0.00426
0.00329
0.00180
0.00050
-0.00035
-0.00009
0.00126
0.00218
0.00131
-0.00108
-0.00388
-0.00639
-0.00773
-0.00656
-0.00285
0.00089
0.00215
0.00153
0.00173
0.00378
0.00582
0.00565
0.00319
0.00031
-0.00127
-0.00154
-0.00161
-0.00202
-0.00231
-0.00237
-0.00276
-0.00323
-0.00238
0.00030
0.00307
0.00401
0.00333
0.00222
0.00070
-0.00148
-0.00291
-0.00176
0.00130
0.00362
0.00369
0.00232
0.00051
-0.00199
-0.00502
-0.00651
-0.00472
-0.00110
0.00119
0.00162
0.00233
0.00379
0.00360
0.00069
-0.00215
-0.00210
-0.00006
0.00140
0.00167
0.00138
0.00034
-0.00156
-0.00275
-0.00170
0.00072
0.00219
0.00170
0.00033
-0.00044
-0.00041
-0.00051
-0.00132
-0.00215
-0.00200
-0.00086
0.00037
0.00110
0.00143
0.00164
0.00171
0.00152
0.00115
0.00071
0.00021
-0.00033
-0.00086
-0.00134
-0.00174
-0.00201
-0.00210
-0.00207
-0.00190
-0.00147
-0.00078
-0.00003
0.00074
0.00187
0.00341
0.00462
0.00475
0.00411
0.00361
0.00358
0.00337
0.00206
-0.00078
-0.00449
-0.00747
-0.00839
-0.00724
-0.00526
-0.00402
-0.00421
-0.00494
-0.00467
-0.00309
-0.00115
0.00090
0.00395
0.00804
0.01157
0.01312
0.01314
0.01290
0.01262
0.01093
0.00642
-0.00036
-0.00681
-0.01065
-0.01188
-0.01218
-0.01294
-0.01447
-0.01652
-0.01855
-0.01926
-0.01676
-0.00981
0.00070
0.01141
0.01827
0.02009
0.01973
0.02055
0.02266
0.02360
0.02156
0.01667
0.01005
0.00245
-0.00586
-0.01400
-0.01966
-0.02072
-0.01793
-0.01477
-0.01390
-0.01453
-0.01446
-0.01327
-0.01212
-0.01149
-0.01083
-0.00967
-0.00748
-0.00317
0.00361
0.01123
0.01763
0.02285
0.02826
0.03364
0.03735
0.03932
0.04096
0.04166
0.03850
0.03032
0.01861
0.00399
-0.01486
-0.03799
-0.06332
-0.08930
-0.11482
-0.13571
-0.14458
-0.13591
-0.11047
-0.07263
-0.02198
0.05074
0.15314
0.27093
0.36149
0.37725
0.30149
0.16122
0.00556
-0.12555
-0.21525
-0.26435
-0.28063
-0.27149
-0.24029
-0.18665
-0.11141
-0.02316
0.06130
0.12495
0.15957
0.16726
0.15556
0.13262
0.10444
0.07378
0.04215
0.01273
-0.01081
-0.02796
-0.04115
-0.05185
-0.05886
-0.06064
-0.05722
-0.04998
-0.04049
-0.02973
-0.01817
-0.00674
0.00286
0.00954
0.01436
0.01915
0.02365
0.02551
0.02368
0.02031
0.01781
0.01567
0.01187
0.00667
0.00240
-0.00004
-0.00222
-0.00538
-0.00862
-0.01053
-0.01110
-0.01132
-0.01151
-0.01076
-0.00822
-0.00447
-0.00124
0.00051
0.00138
0.00239
0.00358
0.00413
0.00377
0.00343
0.00418
0.00562
0.00620
0.00510
0.00315
0.00148
0.00018
-0.00142
-0.00343
-0.00500
-0.00528
-0.00426
-0.00253
-0.00074
0.00017
-0.00056
-0.00200
-0.00154
0.00172
0.00478
0.00415
0.00065
-0.00158
-0.00066
0.00118
0.00157
0.00109
0.00118
0.00137
0.00021
-0.00213
-0.00407
-0.00453
-0.00341
-0.00102
0.00171
0.00319
0.00268
0.00133
0.00085
0.00157
0.00214
0.00114
-0.00128
-0.00314
-0.00268
-0.00079
-0.00000
-0.00078
-0.00065
0.00168
0.00389
0.00347
0.00137
-0.00017
-0.00115
-0.00258
-0.00384
-0.00366
-0.00250
-0.00160
-0.00079
0.00070
0.00224
0.00258
0.00198
0.00181
0.00252
0.00326
0.00328
0.00224
-0.00011
-0.00329
-0.00546
-0.00480
-0.00185
0.00067
0.00093
0.00013
0.00042
0.00160
0.00165
0.00014
-0.00110
-0.00096
-0.00039
-0.00037
-0.00060
-0.00076
-0.00125
-0.00185
-0.00133
0.00051
0.00201
0.00187
0.00113
0.00163
0.00356
0.00556
0.00637
0.00524
0.00194
-0.00263
-0.00632
-0.00732
-0.00580
-0.00366
-0.00305
-0.00460
-0.00663
-0.00636
-0.00281
0.00157
0.00320
0.00150
-0.00035
0.00096
0.00524
0.00949
0.01126
0.01096
0.01071
0.01131
0.01108
0.00808
0.00277
-0.00296
-0.00855
-0.01483
-0.02147
-0.02622
-0.02690
-0.02317
-0.01605
-0.00692
0.00261
0.01034
0.01403
0.01329
0.01107
0.01213
0.01853
0.02652
0.02954
0.02441
0.01387
0.00307
-0.00490
-0.01008
-0.01368
-0.01601
-0.01653
-0.01548
-0.01426
-0.01352
-0.01239
-0.01077
-0.01045
-0.01262
-0.01562
-0.01666
-0.01446
-0.00934
-0.00186
0.00731
0.01660
0.02385
0.02831
0.03201
0.03757
0.04402
0.04710
0.04452
0.03817
0.03003
0.01910
0.00403
-0.01418
-0.03392
-0.05532
-0.07866
-0.10179
-0.12047
-0.13035
-0.12803
-0.11229
-0.08470
-0.04497
0.01542
0.10679
0.22054
0.31947
0.35864
0.31779
0.21143
0.07323
-0.06249
-0.17028
-0.23888
-0.27152
-0.27637
-0.25601
-0.20891
-0.13856
-0.05572
0.02688
0.09741
0.14545
0.16597
0.16272
0.14413
0.11636
0.08328
0.05002
0.02159
-0.00147
-0.02185
-0.03981
-0.05201
-0.05643
-0.05526
-0.05209
-0.04815
-0.04263
-0.03486
-0.02521
-0.01462
-0.00413
0.00551
0.01381
0.02022
0.02413
0.02535
0.02424
0.02147
0.01802
0.01494
0.01238
0.00939
0.00529
0.00072
-0.00317
-0.00601
-0.00809
-0.00954
-0.01022
-0.01006
-0.00925
-0.00808
-0.00672
-0.00510
-0.00326
-0.00170
-0.00086
-0.00009
0.00165
0.00405
0.00531
0.00449
0.00273
0.00189
0.00253
0.00374
0.00415
0.00304
0.00111
-0.00008
0.00002
0.00030
-0.00054
-0.00224
-0.00345
-0.00319
-0.00152
0.00043
0.00102
-0.00058
-0.00292
-0.00347
-0.00161
0.00063
0.00139
0.00103
0.00082
0.00101
0.00104
0.00078
0.00055
0.00045
0.00032
0.00011
-0.00005
-0.00011
-0.00015
-0.00018
-0.00016
-0.00005
0.00006
0.00013
0.00022
0.00037
0.00045
0.00031
0.00015
0.00015
-0.00006
-0.00084
-0.00155
-0.00104
0.00045
0.00137
0.00100
0.00017
-0.00061
-0.00167
-0.00243
-0.00145
0.00070
0.00146
0.00010
-0.00106
-0.00053
0.00020
-0.00011
-0.00001
0.00191
0.00425
0.00465
0.00280
0.00017
-0.00187
-0.00271
-0.00238
-0.00151
-0.00086
-0.00060
-0.00046
-0.00053
-0.00110
-0.00190
-0.00209
-0.00132
-0.00009
0.00086
0.00132
0.00161
0.00210
0.00277
0.00305
0.00247
0.00122
-0.00008
-0.00100
-0.00148
-0.00182
-0.00247
-0.00310
-0.00268
-0.00126
-0.00044
-0.00080
-0.00080
0.00052
0.00187
0.00210
0.00209
0.00276
0.00343
0.00330
0.00261
0.00164
0.00046
-0.00030
-0.00038
-0.00091
-0.00275
-0.00449
-0.00447
-0.00358
-0.00391
-0.00536
-0.00607
-0.00531
-0.00379
-0.00167
0.00130
0.00417
0.00582
0.00715
0.00979
0.01309
0.01442
0.01245
0.00845
0.00431
0.00068
-0.00238
-0.00470
-0.00657
-0.00903
-0.01252
-0.01635
-0.01982
-0.02241
-0.02261
-0.01854
-0.00998
0.00123
0.01235
0.02036
0.02307
0.02164
0.02013
0.02075
0.02136
0.01918
0.01444
0.00852
0.00130
-0.00692
-0.01342
-0.01579
-0.01514
-0.01444
-0.01496
-0.01589
-0.01622
-0.01561
-0.01421
-0.01251
-0.01096
-0.00949
-0.00759
-0.00487
-0.00126
0.00321
0.00854
0.01460
0.02111
0.02761
0.03353
0.03833
0.04152
0.04243
0.04029
0.03464
0.02562
0.01349
-0.00158
-0.01911
-0.03853
-0.05995
-0.08360
-0.10766
-0.12719
-0.13579
-0.12854
-0.10487
-0.06801
-0.01823
0.05326
0.15422
0.26818
0.34929
0.35314
0.27308
0.14139
0.00049
-0.11947
-0.20398
-0.25160
-0.26996
-0.26578
-0.23707
-0.17925
-0.09731
-0.00787
0.07038
0.12559
0.15455
0.16000
0.14749
0.12329
0.09348
0.06308
0.03485
0.00949
-0.01226
-0.02891
-0.04012
-0.04735
-0.05181
-0.05306
-0.05068
-0.04546
-0.03814
-0.02871
-0.01773
-0.00709
0.00153
0.00795
0.01270
0.01622
0.01886
0.02078
0.02168
0.02134
0.01997
0.01771
0.01426
0.00956
0.00431
-0.00053
-0.00447
-0.00754
-0.01001
-0.01199
-0.01293
-0.01205
-0.00946
-0.00656
-0.00464
-0.00355
-0.00225
-0.00034
0.00129
0.00180
0.00207
0.00377
0.00645
0.00726
0.00463
0.00080
-0.00085
0.00022
0.00195
0.00262
0.00215
0.00115
-0.00024
-0.00218
-0.00412
-0.00457
-0.00273
0.00012
0.00204
0.00250
0.00189
0.00017
-0.00222
-0.00340
-0.00217
0.00001
0.00092
0.00047
0.00003
0.00016
0.00026
0.00010
-0.00001
0.00006
0.00012
0.00018
0.00037
0.00060
0.00072
0.00100
0.00163
0.00202
0.00138
-0.00018
-0.00173
-0.00238
-0.00178
-0.00032
0.00063
0.00001
-0.00118
-0.00098
0.00062
0.00163
0.00097
-0.00050
-0.00181
-0.00265
-0.00251
-0.00079
0.00185
0.00366
0.00325
0.00086
-0.00177
-0.00261
-0.00099
0.00181
0.00353
0.00287
0.00061
-0.00123
-0.00138
-0.00046
0.00003
-0.00049
-0.00139
-0.00207
-0.00242
-0.00208
-0.00058
0.00139
0.00210
0.00104
-0.00022
-0.00031
0.00011
0.00004
0.00030
0.00200
0.00395
0.00352
0.00032
-0.00290
-0.00346
-0.00177
-0.00025
-0.00018
-0.00087
-0.00129
-0.00129
-0.00112
-0.00090
-0.00062
-0.00013
0.00083
0.00196
0.00225
0.00133
0.00046
0.00111
0.00287
0.00391
0.00328
0.00177
0.00047
-0.00051
-0.00156
-0.00273
-0.00373
-0.00439
-0.00481
-0.00527
-0.00575
-0.00543
-0.00326
0.00026
0.00279
0.00281
0.00188
0.00239
0.00405
0.00467
0.00412
0.00487
0.00810
0.01163
0.01259
0.01021
0.00539
-0.00065
-0.00622
-0.00965
-0.01112
-0.01258
-0.01507
-0.01739
-0.01812
-0.01729
-0.01509
-0.01042
-0.00235
0.00759
0.01572
0.01936
0.01935
0.01884
0.01963
0.02059
0.02000
0.01776
0.01416
0.00814
-0.00116
-0.01174
-0.01950
-0.02207
-0.02065
-0.01807
-0.01599
-0.01439
-0.01284
-0.01144
-0.01041
-0.00966
-0.00884
-0.00750
-0.00505
-0.00133
0.00269
0.00572
0.00814
0.01217
0.01964
0.02982
0.03999
0.04738
0.05033
0.04842
0.04225
0.03263
0.01965
0.00313
-0.01624
-0.03754
-0.06115
-0.08736
-0.11285
-0.13121
-0.13741
-0.13016
-0.11035
-0.07894
-0.03398
0.03298
0.13050
0.24742
0.34309
0.36995
0.31020
0.18662
0.04107
-0.09109
-0.19046
-0.25175
-0.27897
-0.27844
-0.25273
-0.20113
-0.12588
-0.03704
0.04873
0.11493
0.15294
0.16447
0.15687
0.13678
0.10889
0.07785
0.04794
0.02074
-0.00432
-0.02677
-0.04405
-0.05440
-0.05885
-0.05924
-0.05574
-0.04786
-0.03725
-0.02700
-0.01800
-0.00857
0.00171
0.01031
0.01493
0.01653
0.01751
0.01884
0.01993
0.02000
0.01848
0.01543
0.01176
0.00825
0.00455
0.00028
-0.00357
-0.00566
-0.00635
-0.00724
-0.00892
-0.01002
-0.00880
-0.00552
-0.00273
-0.00263
-0.00436
-0.00491
-0.00306
-0.00066
0.00056
0.00144
0.00325
0.00488
0.00455
0.00291
0.00204
0.00228
0.00234
0.00199
0.00215
0.00272
0.00244
0.00101
-0.00047
-0.00125
-0.00161
-0.00200
-0.00236
-0.00247
-0.00230
-0.00210
-0.00217
-0.00236
-0.00188
-0.00025
0.00174
0.00257
0.00171
0.00038
0.00020
0.00134
0.00238
0.00219
0.00110
-0.00011
-0.00132
-0.00236
-0.00246
-0.00126
0.00018
0.00060
0.00012
-0.00027
-0.00013
0.00025
0.00055
0.00074
0.00109
0.00183
0.00251
0.00215
0.00051
-0.00122
-0.00178
-0.00141
-0.00123
-0.00153
-0.00173
-0.00174
-0.00209
-0.00263
-0.00226
-0.00048
0.00171
0.00314
0.00369
0.00364
0.00291
0.00168
0.00083
0.00064
0.00001
-0.00200
-0.00425
-0.00435
-0.00160
0.00196
0.00346
0.00196
-0.00087
-0.00247
-0.00174
0.00017
0.00119
0.00057
-0.00042
-0.00021
0.00095
0.00144
0.00057
-0.00061
-0.00094
-0.00037
0.00055
0.00114
0.00059
-0.00120
-0.00296
-0.00330
-0.00241
-0.00128
-0.00010
0.00130
0.00221
0.00196
0.00144
0.00206
0.00357
0.00420
0.00297
0.00106
0.00055
0.00175
0.00247
0.00073
-0.00245
-0.00460
-0.00530
-0.00607
-0.00730
-0.00760
-0.00632
-0.00467
-0.00360
-0.00228
0.00039
0.00374
0.00610
0.00714
0.00827
0.01036
0.01228
0.01237
0.01048
0.00776
0.00501
0.00215
-0.00115
-0.00516
-0.00979
-0.01388
-0.01579
-0.01547
-0.01504
-0.01626
-0.01825
-0.01797
-0.01273
-0.00243
0.00989
0.01969
0.02414
0.02381
0.02134
0.01899
0.01749
0.01627
0.01375
0.00835
0.00053
-0.00686
-0.01125
-0.01293
-0.01388
-0.01492
-0.01535
-0.01471
-0.01338
-0.01166
-0.00967
-0.00802
-0.00768
-0.00871
-0.00968
-0.00892
-0.00602
-0.00196
0.00238
0.00733
0.01392
0.02219
0.03047
0.03683
0.04077
0.04277
0.04262
0.03936
0.03258
0.02246
0.00869
-0.00913
-0.02994
-0.05182
-0.07438
-0.09788
-0.11903
-0.13032
-0.12600
-0.10726
-0.07923
-0.04299
0.00917
0.08871
0.19493
0.29992
0.35565
0.32669
0.21901
0.07444
-0.06114
-0.16218
-0.22465
-0.25553
-0.26309
-0.25051
-0.21426
-0.15052
-0.06469
0.02603
0.10082
0.14652
0.16247
0.15646
0.13733
0.11114
0.08186
0.05265
0.02523
-0.00017
-0.02292
-0.04070
-0.05132
-0.05512
-0.05463
-0.05204
-0.04746
-0.03990
-0.02987
-0.02026
-0.01309
-0.00667
0.00197
0.01223
0.02026
0.02379
0.02421
0.02353
0.02198
0.01897
0.01473
0.01001
0.00550
0.00198
-0.00003
-0.00125
-0.00319
-0.00601
-0.00782
-0.00751
-0.00676
-0.00780
-0.01008
-0.01108
-0.00966
-0.00667
-0.00313
0.00044
0.00333
0.00482
0.00510
0.00502
0.00500
0.00482
0.00428
0.00358
0.00288
0.00210
0.00123
0.00042
-0.00025
-0.00095
-0.00166
-0.00209
-0.00229
-0.00278
-0.00345
-0.00307
-0.00104
0.00096
0.00095
-0.00011
0.00048
0.00268
0.00341
0.00144
-0.00083
-0.00158
-0.00203
-0.00319
-0.00350
-0.00162
0.00105
0.00246
0.00249
0.00209
0.00168
0.00145
0.00180
0.00230
0.00161
-0.00026
-0.00147
-0.00134
-0.00170
-0.00359
-0.00491
-0.00357
-0.00085
0.00095
0.00210
0.00389
0.00526
0.00404
0.00096
-0.00096
-0.00090
-0.00120
-0.00308
-0.00432
-0.00302
-0.00063
0.00052
0.00058
0.00104
0.00187
0.00185
0.00077
-0.00038
-0.00069
0.00001
0.00108
0.00139
0.00056
-0.00020
0.00041
0.00164
0.00155
-0.00011
-0.00149
-0.00140
-0.00077
-0.00100
-0.00190
-0.00219
-0.00139
-0.00023
0.00047
0.00073
0.00079
0.00050
-0.00018
-0.00046
0.00055
0.00228
0.00286
0.00130
-0.00097
-0.00161
-0.00017
0.00130
0.00101
-0.00044
-0.00148
-0.00188
-0.00241
-0.00294
-0.00253
-0.00108
0.00071
0.00249
0.00407
0.00482
0.00450
0.00391
0.00354
0.00252
0.00007
-0.00300
-0.00517
-0.00586
-0.00566
-0.00508
-0.00387
-0.00189
-0.00043
-0.00106
-0.00303
-0.00350
-0.00134
0.00134
0.00257
0.00329
0.00500
0.00694
0.00765
0.00771
0.00901
0.01163
0.01300
0.01022
0.00324
-0.00468
-0.01011
-0.01270
-0.01466
-0.01751
-0.02056
-0.02210
-0.02088
-0.01659
-0.00952
-0.00003
0.01077
0.01990
0.02394
0.02245
0.01878
0.01684
0.01751
0.01832
0.01604
0.00979
0.00136
-0.00690
-0.01328
-0.01589
-0.01383
-0.00984
-0.00860
-0.01112
-0.01356
-0.01309
-0.01168
-0.01242
-0.01484
-0.01595
-0.01409
-0.01005
-0.00532
-0.00058
0.00448
0.01041
0.01731
0.02468
0.03181
0.03814
0.04316
0.04616
0.04633
0.04310
0.03621
0.02537
0.01012
-0.00938
-0.03183
-0.05551
-0.07933
-0.10264
-0.12364
-0.13802
-0.13945
-0.12349
-0.09182
-0.04901
0.00841
0.09364
0.20925
0.32438
0.38410
0.35094
0.23504
0.08212
-0.06164
-0.17070
-0.23925
-0.27290
-0.28045
-0.26563
-0.22497
-0.15622
-0.06778
0.02248
0.09704
0.14604
0.16759
0.16517
0.14586
0.11842
0.08950
0.06095
0.03199
0.00344
-0.02155
-0.04028
-0.05220
-0.05811
-0.05925
-0.05703
-0.05235
-0.04507
-0.03506
-0.02339
-0.01199
-0.00235
0.00515
0.01097
0.01601
0.02074
0.02439
0.02546
0.02347
0.01980
0.01641
0.01390
0.01123
0.00733
0.00250
-0.00203
-0.00550
-0.00821
-0.01063
-0.01244
-0.01273
-0.01122
-0.00886
-0.00701
-0.00634
-0.00618
-0.00499
-0.00165
0.00294
0.00641
0.00743
0.00685
0.00614
0.00563
0.00486
0.00373
0.00247
0.00125
0.00012
-0.00094
-0.00212
-0.00331
-0.00368
-0.00255
-0.00071
0.00012
-0.00059
-0.00128
-0.00036
0.00144
0.00192
0.00052
-0.00101
-0.00119
-0.00074
-0.00106
-0.00194
-0.00188
-0.00028
0.00171
0.00255
0.00176
0.00025
-0.00026
0.00115
0.00319
0.00331
0.00084
-0.00198
-0.00306
-0.00303
-0.00326
-0.00319
-0.00160
0.00083
0.00225
0.00229
0.00202
0.00205
0.00218
0.00235
0.00243
0.00169
-0.00024
-0.00245
-0.00391
-0.00446
-0.00413
-0.00276
-0.00086
0.00038
0.00057
0.00047
0.00079
0.00170
0.00309
0.00424
0.00381
0.00140
-0.00139
-0.00255
-0.00192
-0.00091
-0.00057
-0.00088
-0.00130
-0.00093
0.00098
0.00354
0.00425
0.00187
-0.00165
-0.00359
-0.00345
-0.00235
-0.00084
0.00087
0.00174
0.00088
-0.00085
-0.00169
-0.00124
-0.00055
-0.00035
-0.00034
-0.00009
0.00039
0.00082
0.00113
0.00155
0.00236
0.00332
0.00365
0.00296
0.00177
0.00083
0.00028
-0.00031
-0.00122
-0.00218
-0.00261
-0.00268
-0.00355
-0.00573
-0.00775
-0.00761
-0.00516
-0.00210
-0.00015
0.00044
0.00091
0.00258
0.00536
0.00806
0.01014
0.01201
0.01347
0.01330
0.01111
0.00788
0.00406
-0.00116
-0.00781
-0.01424
-0.01905
-0.02238
-0.02431
-0.02356
-0.01884
-0.01062
-0.00126
0.00620
0.01006
0.01121
0.01187
0.01335
0.01619
0.02101
0.02636
0.02748
0.02082
0.00942
0.00006
-0.00490
-0.00900
-0.01476
-0.01959
-0.02037
-0.01830
-0.01656
-0.01563
-0.01402
-0.01194
-0.01109
-0.01145
-0.01075
-0.00757
-0.00292
0.00127
0.00460
0.00838
0.01382
0.02046
0.02690
0.03252
0.03772
0.04240
0.04506
0.04375
0.03757
0.02699
0.01269
-0.00523
-0.02649
-0.04976
-0.07326
-0.09571
-0.11537
-0.12864
-0.13061
-0.11789
-0.09099
-0.05268
-0.00124
0.07303
0.17588
0.28741
0.35960
0.34821
0.25012
0.10491
-0.03783
-0.14776
-0.21821
-0.25606
-0.27058
-0.26449
-0.23235
-0.16950
-0.08219
0.01193
0.09220
0.14415
0.16476
0.16125
0.14397
0.11954
0.09048
0.05914
0.02924
0.00345
-0.01791
-0.03499
-0.04703
-0.05383
-0.05650
-0.05577
-0.05124
-0.04347
-0.03480
-0.02664
-0.01791
-0.00776
0.00223
0.01005
0.01602
0.02149
0.02606
0.02816
0.02748
0.02500
0.02097
0.01501
0.00806
0.00220
-0.00199
-0.00573
-0.00949
-0.01194
-0.01225
-0.01141
-0.01037
-0.00870
-0.00614
-0.00374
-0.00236
-0.00142
-0.00008
0.00142
0.00246
0.00306
0.00354
0.00372
0.00331
0.00257
0.00188
0.00087
-0.00092
-0.00250
-0.00202
0.00068
0.00337
0.00386
0.00234
0.00071
0.00043
0.00102
0.00048
-0.00209
-0.00445
-0.00359
-0.00014
0.00197
0.00053
-0.00253
-0.00427
-0.00361
-0.00124
0.00133
0.00232
0.00136
0.00037
0.00119
0.00293
0.00336
0.00221
0.00093
-0.00010
-0.00150
-0.00260
-0.00204
-0.00044
0.00008
-0.00078
-0.00132
-0.00082
-0.00020
0.00016
0.00083
0.00160
0.00174
0.00157
0.00183
0.00179
0.00033
-0.00178
-0.00273
-0.00226
-0.00158
-0.00105
-0.00020
0.00042
-0.00025
-0.00159
-0.00164
0.00015
0.00203
0.00246
0.00178
0.00112
0.00097
0.00120
0.00165
0.00185
0.00090
-0.00152
-0.00409
-0.00454
-0.00210
0.00105
0.00182
-0.00010
-0.00181
-0.00101
0.00128
0.00245
0.00166
0.00001
-0.00125
-0.00131
0.00040
0.00300
0.00372
0.00101
-0.00262
-0.00330
-0.00098
0.00050
-0.00091
-0.00238
-0.00057
0.00282
0.00275
-0.00171
-0.00510
-0.00288
0.00196
0.00324
0.00043
-0.00154
-0.00037
0.00111
0.00106
0.00173
0.00446
0.00626
0.00420
0.00015
-0.00196
-0.00168
-0.00162
-0.00294
-0.00391
-0.00314
-0.00165
-0.00141
-0.00277
-0.00428
-0.00452
-0.00341
-0.00166
0.00016
0.00169
0.00250
0.00231
0.00157
0.00126
0.00227
0.00483
0.00841
0.01177
0.01337
0.01246
0.00964
0.00565
0.00008
-0.00718
-0.01377
-0.01676
-0.01668
-0.01711
-0.01954
-0.02112
-0.01862
-0.01236
-0.00454
0.00407
0.01350
0.02151
0.02449
0.02206
0.01855
0.01812
0.01955
0.01821
0.01252
0.00557
-0.00010
-0.00555
-0.01185
-0.01685
-0.01843
-0.01786
-0.01728
-0.01627
-0.01411
-0.01255
-0.01295
-0.01304
-0.01028
-0.00633
-0.00424
-0.00346
-0.00130
0.00261
0.00703
0.01237
0.01964
0.02756
0.03393
0.03884
0.04358
0.04702
0.04593
0.03899
0.02806
0.01484
-0.00126
-0.02108
-0.04390
-0.06899
-0.09634
-0.12342
-0.14301
-0.14736
-0.13406
-0.10641
-0.06675
-0.00939
0.07707
0.19332
0.31233
0.38504
0.37160
0.27016
0.11689
-0.03884
-0.16056
-0.23621
-0.27294
-0.28243
-0.26937
-0.23177
-0.16881
-0.08612
0.00406
0.08514
0.14130
0.16530
0.16258
0.14556
0.12312
0.09687
0.06679
0.03610
0.00879
-0.01409
-0.03287
-0.04676
-0.05516
-0.05909
-0.05931
-0.05544
-0.04785
-0.03811
-0.02729
-0.01583
-0.00487
0.00420
0.01125
0.01696
0.02141
0.02404
0.02460
0.02353
0.02140
0.01835
0.01414
0.00906
0.00442
0.00127
-0.00085
-0.00318
-0.00614
-0.00925
-0.01175
-0.01265
-0.01144
-0.00931
-0.00789
-0.00693
-0.00504
-0.00223
0.00031
0.00249
0.00477
0.00645
0.00650
0.00545
0.00455
0.00381
0.00237
0.00043
-0.00082
-0.00099
-0.00084
-0.00082
-0.00069
-0.00035
-0.00003
0.00037
0.00104
0.00163
0.00154
0.00034
-0.00200
-0.00469
-0.00617
-0.00536
-0.00278
0.00020
0.00239
0.00328
0.00311
0.00272
0.00261
0.00242
0.00189
0.00162
0.00185
0.00142
-0.00059
-0.00314
-0.00476
-0.00553
-0.00584
-0.00455
-0.00098
0.00280
0.00421
0.00358
0.00300
0.00303
0.00291
0.00266
0.00276
0.00246
0.00073
-0.00186
-0.00382
-0.00464
-0.00451
-0.00339
-0.00158
-0.00029
-0.00030
-0.00093
-0.00104
-0.00043
0.00027
0.00066
0.00133
0.00306
0.00517
0.00558
0.00347
0.00075
-0.00060
-0.00114
-0.00217
-0.00292
-0.00195
0.00008
0.00109
0.00036
-0.00106
-0.00224
-0.00312
-0.00353
-0.00300
-0.00152
0.00012
0.00138
0.00248
0.00359
0.00384
0.00227
-0.00037
-0.00165
-0.00021
0.00215
0.00242
0.00023
-0.00193
-0.00211
-0.00099
-0.00014
0.00022
0.00076
0.00141
0.00155
0.00151
0.00221
0.00298
0.00161
-0.00244
-0.00629
-0.00693
-0.00486
-0.00303
-0.00278
-0.00304
-0.00282
-0.00243
-0.00182
-0.00013
0.00243
0.00447
0.00590
0.00815
0.01104
0.01220
0.01094
0.00958
0.00944
0.00819
0.00341
-0.00365
-0.01041
-0.01679
-0.02360
-0.02852
-0.02775
-0.02119
-0.01243
-0.00390
0.00450
0.01180
0.01518
0.01382
0.01143
0.01329
0.02072
0.02843
0.02882
0.02000
0.00798
-0.00072
-0.00555
-0.00932
-0.01269
-0.01471
-0.01583
-0.01687
-0.01705
-0.01547
-0.01311
-0.01126
-0.00996
-0.00913
-0.00940
-0.01025
-0.00954
-0.00614
-0.00143
0.00327
0.00894
0.01693
0.02614
0.03396
0.03928
0.04273
0.04457
0.04390
0.03990
0.03231
0.02101
0.00598
-0.01236
-0.03360
-0.05761
-0.08335
-0.10790
-0.12699
-0.13586
-0.13026
-0.10939
-0.07714
-0.03517
0.02557
0.11728
0.23239
0.33274
0.36986
0.31916
0.19586
0.04284
-0.09506
-0.19202
-0.24671
-0.27066
-0.27143
-0.24758
-0.19743
-0.12591
-0.04251
0.04113
0.11053
0.15283
0.16525
0.15605
0.13578
0.10999
0.08017
0.04815
0.01756
-0.00815
-0.02778
-0.04197
-0.05115
-0.05516
-0.05481
-0.05212
-0.04805
-0.04157
-0.03213
-0.02142
-0.01125
-0.00144
0.00808
0.01519
0.01850
0.02023
0.02291
0.02468
0.02195
0.01580
0.01115
0.01007
0.01009
0.00880
0.00618
0.00255
-0.00241
-0.00795
-0.01213
-0.01382
-0.01366
-0.01293
-0.01218
-0.01107
-0.00874
-0.00472
-0.00002
0.00330
0.00455
0.00540
0.00709
0.00796
0.00619
0.00350
0.00298
0.00437
0.00470
0.00279
0.00035
-0.00113
-0.00220
-0.00378
-0.00539
-0.00543
-0.00320
-0.00037
0.00038
-0.00141
-0.00297
-0.00177
0.00141
0.00403
0.00498
0.00474
0.00371
0.00209
0.00035
-0.00112
-0.00249
-0.00392
-0.00500
-0.00483
-0.00306
-0.00089
-0.00003
-0.00029
0.00039
0.00292
0.00541
0.00555
0.00339
0.00089
-0.00061
-0.00109
-0.00062
0.00050
0.00071
-0.00115
-0.00318
-0.00252
-0.00017
0.00012
-0.00203
-0.00294
-0.00091
0.00141
0.00152
0.00040
0.00023
0.00122
0.00175
0.00061
-0.00138
-0.00206
-0.00067
0.00096
0.00111
0.00077
0.00168
0.00295
0.00231
-0.00004
-0.00160
-0.00144
-0.00119
-0.00201
-0.00266
-0.00150
0.00082
0.00176
0.00019
-0.00196
-0.00219
-0.00055
0.00106
0.00171
0.00199
0.00231
0.00234
0.00189
0.00133
0.00078
-0.00013
-0.00131
-0.00208
-0.00259
-0.00386
-0.00538
-0.00452
-0.00030
0.00386
0.00418
0.00170
0.00031
0.00100
0.00158
0.00103
0.00049
0.00061
0.00086
0.00104
0.00129
0.00108
-0.00011
-0.00151
-0.00185
-0.00101
0.00001
0.00048
0.00055
0.00069
0.00102
0.00107
0.00017
-0.00190
-0.00453
-0.00653
-0.00703
-0.00606
-0.00438
-0.00256
-0.00065
0.00153
0.00392
0.00623
0.00820
0.00985
0.01117
0.01175
0.01113
0.00951
0.00732
0.00387
-0.00191
-0.00886
-0.01367
-0.01500
-0.01521
-0.01677
-0.01888
-0.01929
-0.01715
-0.01236
-0.00450
0.00562
0.01484
0.02011
0.02128
0.02033
0.01889
0.01750
0.01618
0.01449
0.01135
0.00588
-0.00121
-0.00757
-0.01123
-0.01229
-0.01219
-0.01165
-0.01080
-0.01078
-0.01282
-0.01588
-0.01715
-0.01539
-0.01226
-0.01007
-0.00911
-0.00773
-0.00449
0.00049
0.00634
0.01262
0.01931
0.02621
0.03320
0.04035
0.04684
0.05025
0.04849
0.04236
0.03394
0.02244
0.00465
-0.01971
-0.04656
-0.07285
-0.09929
-0.12517
-0.14411
-0.14818
-0.13456
-0.10588
-0.06531
-0.01146
0.06332
0.16532
0.28158
0.37050
0.38281
0.30028
0.15186
-0.00946
-0.14138
-0.22736
-0.27083
-0.28332
-0.27390
-0.24339
-0.18770
-0.10758
-0.01457
0.07243
0.13576
0.16689
0.16913
0.15332
0.12943
0.10175
0.07134
0.04069
0.01343
-0.00914
-0.02816
-0.04382
-0.05465
-0.06007
-0.06112
-0.05851
-0.05196
-0.04197
-0.03031
-0.01837
-0.00657
0.00434
0.01292
0.01859
0.02203
0.02380
0.02369
0.02193
0.01967
0.01772
0.01561
0.01250
0.00829
0.00322
-0.00247
-0.00759
-0.01008
-0.00934
-0.00758
-0.00716
-0.00773
-0.00768
-0.00716
-0.00722
-0.00716
-0.00533
-0.00218
-0.00007
0.00016
0.00046
0.00260
0.00538
0.00636
0.00567
0.00580
0.00755
0.00850
0.00627
0.00164
-0.00267
-0.00467
-0.00427
-0.00317
-0.00341
-0.00486
-0.00510
-0.00299
-0.00050
0.00034
0.00042
0.00128
0.00231
0.00214
0.00107
0.00034
0.00019
0.00007
-0.00020
-0.00036
-0.00029
-0.00005
0.00025
0.00045
0.00066
0.00124
0.00206
0.00227
0.00144
0.00017
-0.00114
-0.00280
-0.00436
-0.00450
-0.00299
-0.00106
0.00050
0.00197
0.00317
0.00330
0.00243
0.00159
0.00124
0.00079
-0.00010
-0.00084
-0.00102
-0.00135
-0.00238
-0.00286
-0.00126
0.00128
0.00182
-0.00006
-0.00145
-0.00058
0.00085
0.00089
0.00020
0.00011
0.00041
0.00068
0.00145
0.00248
0.00194
-0.00075
-0.00315
-0.00255
0.00040
0.00239
0.00127
-0.00185
-0.00401
-0.00336
-0.00074
0.00141
0.00168
0.00104
0.00120
0.00235
0.00320
0.00276
0.00102
-0.00146
-0.00360
-0.00421
-0.00296
-0.00084
0.00078
0.00116
0.00036
-0.00096
-0.00189
-0.00171
-0.00036
0.00161
0.00342
0.00434
0.00382
0.00204
0.00030
0.00005
0.00122
0.00212
0.00156
0.00010
-0.00125
-0.00233
-0.00337
-0.00441
-0.00549
-0.00656
-0.00699
-0.00611
-0.00426
-0.00224
-0.00029
0.00182
0.00412
0.00642
0.00856
0.01030
0.01141
0.01203
0.01221
0.01110
0.00759
0.00195
-0.00391
-0.00822
-0.01083
-0.01280
-0.01475
-0.01615
-0.01656
-0.01679
-0.01729
-0.01616
-0.01076
-0.00125
0.00942
0.01845
0.02430
0.02591
0.02344
0.01931
0.01623
0.01434
0.01139
0.00591
-0.00105
-0.00719
-0.01115
-0.01320
-0.01415
-0.01416
-0.01273
-0.01000
-0.00775
-0.00804
-0.01063
-0.01287
-0.01285
-0.01159
-0.01099
-0.01087
-0.00936
-0.00521
0.00127
0.00916
0.01756
0.02542
0.03187
0.03687
0.04115
0.04467
0.04588
0.04322
0.03650
0.02582
0.01066
-0.00851
-0.02949
-0.05103
-0.07444
-0.10013
-0.12364
-0.13754
-0.13700
-0.12209
-0.09504
-0.05538
0.00325
0.08956
0.20147
0.31233
0.37579
0.35453
0.24921
0.09839
-0.04966
-0.16446
-0.23867
-0.27718
-0.28609
-0.26852
-0.22534
-0.15824
-0.07346
0.01628
0.09426
0.14644
0.16829
0.16555
0.14820
0.12354
0.09438
0.06210
0.02948
0.00028
-0.02299
-0.03995
-0.05119
-0.05720
-0.05858
-0.05639
-0.05147
-0.04409
-0.03476
-0.02453
-0.01411
-0.00379
0.00552
0.01237
0.01640
0.01895
0.02122
0.02277
0.02252
0.02058
0.01826
0.01642
0.01462
0.01167
0.00640
-0.00117
-0.00895
-0.01393
-0.01507
-0.01406
-0.01278
-0.01119
-0.00862
-0.00581
-0.00420
-0.00372
-0.00270
-0.00014
0.00303
0.00514
0.00567
0.00522
0.00440
0.00368
0.00367
0.00453
0.00517
0.00397
0.00067
-0.00304
-0.00521
-0.00523
-0.00351
-0.00066
0.00228
0.00388
0.00356
0.00203
-0.00024
-0.00351
-0.00683
-0.00750
-0.00435
0.00017
0.00269
0.00275
0.00218
0.00209
0.00222
0.00215
0.00180
0.00125
0.00100
0.00129
0.00104
-0.00095
-0.00357
-0.00429
-0.00275
-0.00099
-0.00018
0.00043
0.00109
0.00105
0.00032
-0.00008
0.00023
0.00093
0.00174
0.00216
0.00137
-0.00032
-0.00140
-0.00113
-0.00040
0.00012
0.00078
0.00139
0.00070
-0.00141
-0.00310
-0.00296
-0.00187
-0.00118
-0.00061
0.00070
0.00210
0.00233
0.00179
0.00201
0.00290
0.00260
0.00029
-0.00253
-0.00403
-0.00393
-0.00298
-0.00174
-0.00033
0.00108
0.00211
0.00264
0.00307
0.00374
0.00408
0.00310
0.00097
-0.00108
-0.00243
-0.00340
-0.00392
-0.00333
-0.00211
-0.00189
-0.00301
-0.00374
-0.00261
-0.00037
0.00137
0.00214
0.00237
0.00237
0.00244
0.00334
0.00512
0.00600
0.00419
0.00069
-0.00158
-0.00153
-0.00063
-0.00006
0.00040
0.00050
-0.00063
-0.00254
-0.00376
-0.00398
-0.00409
-0.00458
-0.00524
-0.00586
-0.00597
-0.00497
-0.00292
-0.00063
0.00152
0.00392
0.00660
0.00899
0.01096
0.01308
0.01496
0.01467
0.01115
0.00594
0.00120
-0.00296
-0.00726
-0.01078
-0.01235
-0.01344
-0.01634
-0.02018
-0.02152
-0.01914
-0.01511
-0.01050
-0.00334
0.00756
0.01878
0.02497
0.02479
0.02196
0.02011
0.01886
0.01613
0.01178
0.00710
0.00240
-0.00277
-0.00792
-0.01182
-0.01381
-0.01412
-0.01366
-0.01344
-0.01359
-0.01332
-0.01232
-0.01135
-0.01105
-0.01104
-0.01055
-0.00929
-0.00712
-0.00381
0.00071
0.00625
0.01275
0.02013
0.02756
0.03400
0.03955
0.04487
0.04880
0.04824
0.04151
0.03020
0.01645
-0.00004
-0.02093
-0.04592
-0.07200
-0.09620
-0.11723
-0.13351
-0.14046
-0.13236
-0.10769
-0.06987
-0.01870
0.05634
0.16396
0.28595
0.37267
0.37612
0.28907
0.14694
-0.00374
-0.13111
-0.22043
-0.26887
-0.28331
-0.27407
-0.24449
-0.18947
-0.10756
-0.01210
0.07360
0.13198
0.16017
0.16494
0.15395
0.13291
0.10612
0.07606
0.04414
0.01322
-0.01256
-0.03134
-0.04479
-0.05484
-0.06113
-0.06244
-0.05903
-0.05204
-0.04209
-0.02980
-0.01701
-0.00571
0.00378
0.01218
0.01917
0.02333
0.02430
0.02361
0.02292
0.02209
0.01964
0.01492
0.00912
0.00413
0.00086
-0.00117
-0.00299
-0.00525
-0.00774
-0.00984
-0.01122
-0.01199
-0.01190
-0.01044
-0.00767
-0.00447
-0.00175
0.00030
0.00207
0.00379
0.00517
0.00574
0.00561
0.00516
0.00428
0.00279
0.00137
0.00087
0.00093
0.00061
0.00015
0.00034
0.00058
-0.00056
-0.00279
-0.00419
-0.00379
-0.00255
-0.00143
-0.00027
0.00115
0.00212
0.00185
0.00072
-0.00022
-0.00060
-0.00100
-0.00182
-0.00238
-0.00165
0.00027
0.00204
0.00255
0.00211
0.00190
0.00242
0.00286
0.00197
-0.00022
-0.00204
-0.00220
-0.00164
-0.00198
-0.00270
-0.00180
0.00039
0.00082
-0.00162
-0.00365
-0.00208
0.00169
0.00391
0.00327
0.00147
0.00044
0.00089
0.00243
0.00357
0.00271
0.00001
-0.00257
-0.00354
-0.00330
-0.00293
-0.00276
-0.00241
-0.00156
-0.00022
0.00114
0.00185
0.00171
0.00122
0.00098
0.00115
0.00166
0.00231
0.00236
0.00102
-0.00121
-0.00236
-0.00116
0.00124
0.00233
0.00091
-0.00201
-0.00431
-0.00425
-0.00169
0.00121
0.00171
-0.00018
-0.00152
-0.00045
0.00141
0.00189
0.00115
0.00027
-0.00056
-0.00107
-0.00043
0.00097
0.00132
0.00002
-0.00127
-0.00100
0.00044
0.00176
0.00251
0.00310
0.00395
0.00464
0.00367
0.00001
-0.00458
-0.00654
-0.00475
-0.00229
-0.00243
-0.00474
-0.00647
-0.00622
-0.00474
-0.00279
-0.00011
0.00316
0.00554
0.00575
0.00472
0.00468
0.00647
0.00879
0.01010
0.01003
0.00901
0.00726
0.00435
-0.00044
-0.00680
-0.01255
-0.01529
-0.01493
-0.01372
-0.01363
-0.01454
-0.01507
-0.01385
-0.00957
-0.00153
0.00874
0.01742
0.02153
0.02148
0.01944
0.01672
0.01403
0.01215
0.01076
0.00806
0.00327
-0.00202
-0.00613
-0.00931
-0.01221
-0.01424
-0.01470
-0.01404
-0.01305
-0.01183
-0.01036
-0.00943
-0.00992
-0.01158
-0.01288
-0.01216
-0.00868
-0.00283
0.00422
0.01109
0.01695
0.02209
0.02744
0.03331
0.03891
0.04276
0.04364
0.04104
0.03522
0.02644
0.01430
-0.00170
-0.02125
-0.04368
-0.06864
-0.09486
-0.11866
-0.13456
-0.13731
-0.12410
-0.09651
-0.05877
-0.00960
0.06284
0.16744
0.28551
0.36756
0.36617
0.27416
0.12791
-0.02276
-0.14353
-0.22260
-0.26358
-0.27633
-0.26818
-0.23834
-0.18163
-0.09919
-0.00476
0.08068
0.14022
0.16817
0.16917
0.15281
0.12780
0.09887
0.06766
0.03598
0.00698
-0.01692
-0.03552
-0.04918
-0.05723
-0.05931
-0.05706
-0.05275
-0.04686
-0.03851
-0.02800
-0.01706
-0.00671
0.00316
0.01189
0.01785
0.02089
0.02296
0.02521
0.02601
0.02356
0.01903
0.01521
0.01257
0.00880
0.00259
-0.00432
-0.00950
-0.01247
-0.01412
-0.01468
-0.01344
-0.01025
-0.00630
-0.00330
-0.00182
-0.00106
-0.00010
0.00112
0.00220
0.00290
0.00327
0.00346
0.00352
0.00319
0.00222
0.00115
0.00093
0.00162
0.00221
0.00182
0.00050
-0.00127
-0.00272
-0.00278
-0.00135
-0.00000
0.00003
-0.00012
0.00119
0.00299
0.00274
0.00001
-0.00300
-0.00432
-0.00395
-0.00272
-0.00102
0.00083
0.00201
0.00175
0.00039
-0.00072
-0.00053
0.00066
0.00188
0.00259
0.00247
0.00117
-0.00072
-0.00140
-0.00018
0.00100
0.00008
-0.00209
-0.00301
-0.00209
-0.00078
0.00018
0.00152
0.00300
0.00301
0.00147
0.00051
0.00085
0.00028
-0.00212
-0.00351
-0.00195
-0.00027
-0.00157
-0.00382
-0.00310
0.00002
0.00182
0.00148
0.00166
0.00347
0.00450
0.00276
0.00004
-0.00058
0.00097
0.00181
0.00009
-0.00285
-0.00432
-0.00329
-0.00113
0.00015
0.00008
-0.00002
0.00089
0.00199
0.00186
0.00069
-0.00003
0.00010
0.00004
-0.00070
-0.00153
-0.00201
-0.00222
-0.00174
-0.00018
0.00159
0.00222
0.00155
0.00058
0.00010
0.00012
0.00007
-0.00050
-0.00103
-0.00012
0.00218
0.00362
0.00272
0.00109
0.00077
0.00081
-0.00066
-0.00277
-0.00308
-0.00165
-0.00087
-0.00160
-0.00228
-0.00190
-0.00141
-0.00161
-0.00190
-0.00171
-0.00150
-0.00174
-0.00196
-0.00133
0.00044
0.00289
0.00519
0.00698
0.00877
0.01087
0.01213
0.01081
0.00686
0.00228
-0.00108
-0.00352
-0.00677
-0.01144
-0.01604
-0.01890
-0.01999
-0.02000
-0.01838
-0.01349
-0.00500
0.00495
0.01323
0.01820
0.02054
0.02169
0.02198
0.02052
0.01695
0.01236
0.00781
0.00318
-0.00159
-0.00554
-0.00810
-0.01030
-0.01290
-0.01493
-0.01514
-0.01393
-0.01255
-0.01142
-0.01051
-0.00992
-0.00935
-0.00821
-0.00703
-0.00715
-0.00810
-0.00685
-0.00102
0.00828
0.01785
0.02584
0.03270
0.03904
0.04403
0.04622
0.04524
0.04185
0.03595
0.02583
0.00997
-0.01082
-0.03423
-0.05887
-0.08467
-0.11051
-0.13217
-0.14335
-0.13921
-0.11937
-0.08669
-0.04126
0.02459
0.12008
0.23798
0.34303
0.38636
0.33915
0.21414
0.05534
-0.09093
-0.19733
-0.25849
-0.28204
-0.27808
-0.25264
-0.20671
-0.13974
-0.05573
0.03268
0.10739
0.15432
0.17054
0.16302
0.14201
0.11531
0.08636
0.05590
0.02543
-0.00172
-0.02304
-0.03879
-0.05037
-0.05804
-0.06127
-0.06017
-0.05523
-0.04669
-0.03535
-0.02340
-0.01288
-0.00356
0.00606
0.01574
0.02302
0.02621
0.02618
0.02464
0.02237
0.01990
0.01791
0.01575
0.01143
0.00455
-0.00233
-0.00668
-0.00874
-0.00991
-0.01056
-0.01076
-0.01113
-0.01153
-0.01073
-0.00833
-0.00544
-0.00277
0.00002
0.00285
0.00473
0.00525
0.00524
0.00541
0.00543
0.00477
0.00372
0.00284
0.00189
0.00021
-0.00172
-0.00234
-0.00134
-0.00058
-0.00134
-0.00225
-0.00172
-0.00066
-0.00071
-0.00121
-0.00050
0.00112
0.00183
0.00116
0.00022
-0.00018
-0.00029
-0.00062
-0.00132
-0.00201
-0.00184
-0.00042
0.00128
0.00194
0.00145
0.00080
0.00057
0.00050
0.00027
0.00003
-0.00006
-0.00005
-0.00006
-0.00011
-0.00011
-0.00005
-0.00001
-0.00010
-0.00025
-0.00029
-0.00034
-0.00075
-0.00136
-0.00124
0.00011
0.00180
0.00241
0.00168
0.00069
0.00041
0.00054
-0.00020
-0.00235
-0.00466
-0.00503
-0.00276
0.00064
0.00291
0.00312
0.00246
0.00263
0.00364
0.00366
0.00163
-0.00126
-0.00315
-0.00356
-0.00288
-0.00133
0.00046
0.00131
0.00091
0.00029
0.00004
-0.00050
-0.00156
-0.00198
-0.00105
-0.00001
-0.00012
-0.00034
0.00093
0.00247
0.00134
-0.00206
-0.00346
-0.00046
0.00382
0.00509
0.00335
0.00162
0.00103
0.00028
-0.00110
-0.00192
-0.00142
-0.00030
0.00043
0.00039
-0.00039
-0.00171
-0.00321
-0.00445
-0.00501
-0.00476
-0.00398
-0.00295
-0.00170
-0.00030
0.00099
0.00227
0.00414
0.00669
0.00921
0.01090
0.01156
0.01135
0.01045
0.00866
0.00535
0.00023
-0.00610
-0.01283
-0.01959
-0.02535
-0.02773
-0.02484
-0.01728
-0.00741
0.00229
0.00945
0.01229
0.01126
0.00946
0.01054
0.01583
0.02302
0.02743
0.02532
0.01728
0.00772
0.00050
-0.00458
-0.00985
-0.01519
-0.01788
-0.01705
-0.01536
-0.01504
-0.01528
-0.01502
-0.01519
-0.01611
-0.01566
-0.01227
-0.00741
-0.00326
0.00037
0.00503
0.01103
0.01756
0.02408
0.03043
0.03602
0.04009
0.04253
0.04354
0.04259
0.03819
0.02898
0.01467
-0.00410
-0.02648
-0.05150
-0.07771
-0.10327
-0.12570
-0.14078
-0.14252
-0.12679
-0.09508
-0.05122
0.00830
0.09491
0.20897
0.31969
0.37553
0.34345
0.23478
0.09063
-0.04944
-0.16146
-0.23499
-0.27120
-0.27928
-0.26542
-0.22661
-0.15945
-0.07177
0.01850
0.09364
0.14340
0.16572
0.16472
0.14742
0.12067
0.08988
0.05891
0.02965
0.00259
-0.02084
-0.03794
-0.04776
-0.05264
-0.05524
-0.05555
-0.05218
-0.04535
-0.03692
-0.02809
-0.01857
-0.00794
0.00303
0.01279
0.02000
0.02413
0.02534
0.02462
0.02337
0.02216
0.02015
0.01634
0.01107
0.00557
0.00057
-0.00386
-0.00774
-0.01102
-0.01362
-0.01496
-0.01415
-0.01134
-0.00816
-0.00569
-0.00305
0.00062
0.00379
0.00441
0.00337
0.00338
0.00475
0.00506
0.00320
0.00084
-0.00063
-0.00168
-0.00237
-0.00135
0.00128
0.00294
0.00210
0.00066
0.00087
0.00204
0.00208
0.00080
-0.00041
-0.00096
-0.00136
-0.00189
-0.00233
-0.00264
-0.00297
-0.00320
-0.00307
-0.00217
0.00015
0.00354
0.00548
0.00365
-0.00015
-0.00125
0.00135
0.00321
0.00131
-0.00125
-0.00064
0.00138
0.00089
-0.00187
-0.00383
-0.00401
-0.00303
-0.00066
0.00242
0.00329
0.00096
-0.00095
0.00062
0.00333
0.00333
0.00113
-0.00036
-0.00106
-0.00256
-0.00388
-0.00272
0.00008
0.00121
0.00004
-0.00066
0.00055
0.00158
0.00069
-0.00054
-0.00020
0.00088
0.00111
0.00090
0.00102
0.00061
-0.00080
-0.00162
-0.00078
0.00027
0.00018
-0.00017
-0.00001
-0.00073
-0.00302
-0.00426
-0.00157
0.00361
0.00663
0.00515
0.00136
-0.00120
-0.00141
-0.00067
-0.00033
-0.00046
-0.00062
-0.00074
-0.00099
-0.00133
-0.00163
-0.00181
-0.00190
-0.00187
-0.00169
-0.00132
-0.00070
0.00011
0.00104
0.00211
0.00346
0.00499
0.00614
0.00630
0.00528
0.00336
0.00098
-0.00149
-0.00372
-0.00522
-0.00566
-0.00536
-0.00516
-0.00526
-0.00489
-0.00334
-0.00082
0.00165
0.00260
0.00106
-0.00182
-0.00303
-0.00134
0.00089
0.00139
0.00175
0.00468
0.00934
0.01240
0.01287
0.01244
0.01170
0.00907
0.00374
-0.00302
-0.00935
-0.01397
-0.01614
-0.01643
-0.01708
-0.01958
-0.02230
-0.02165
-0.01529
-0.00399
0.00897
0.01970
0.02535
0.02501
0.02033
0.01536
0.01394
0.01609
0.01790
0.01562
0.00904
0.00085
-0.00621
-0.01105
-0.01433
-0.01722
-0.01979
-0.02086
-0.01964
-0.01686
-0.01370
-0.01076
-0.00844
-0.00736
-0.00739
-0.00704
-0.00496
-0.00118
0.00349
0.00871
0.01463
0.02129
0.02808
0.03389
0.03800
0.04088
0.04312
0.04383
0.04090
0.03254
0.01773
-0.00320
-0.02736
-0.05084
-0.07300
-0.09627
-0.11979
-0.13656
-0.13915
-0.12589
-0.09951
-0.06149
-0.00765
0.07144
0.17964
0.29709
0.37677
0.37187
0.27350
0.11910
-0.03638
-0.15555
-0.23001
-0.26870
-0.28140
-0.27107
-0.23577
-0.17425
-0.09073
0.00249
0.08658
0.14425
0.16949
0.16866
0.15196
0.12603
0.09464
0.06189
0.03149
0.00494
-0.01745
-0.03487
-0.04648
-0.05284
-0.05547
-0.05534
-0.05252
-0.04725
-0.04019
-0.03161
-0.02114
-0.00888
0.00359
0.01371
0.01967
0.02217
0.02379
0.02579
0.02653
0.02422
0.01982
0.01543
0.01106
0.00523
-0.00185
-0.00735
-0.00869
-0.00695
-0.00622
-0.00872
-0.01181
-0.01163
-0.00847
-0.00572
-0.00473
-0.00385
-0.00209
-0.00077
-0.00096
-0.00144
-0.00009
0.00369
0.00810
0.01044
0.00943
0.00597
0.00175
-0.00204
-0.00417
-0.00343
-0.00046
0.00208
0.00232
0.00103
-0.00001
-0.00034
-0.00061
-0.00113
-0.00162
-0.00190
-0.00209
-0.00247
-0.00315
-0.00362
-0.00288
-0.00063
0.00195
0.00339
0.00347
0.00282
0.00159
0.00004
-0.00038
0.00112
0.00243
0.00105
-0.00165
-0.00193
0.00052
0.00207
0.00042
-0.00263
-0.00414
-0.00330
-0.00110
0.00106
0.00222
0.00227
0.00191
0.00168
0.00146
0.00103
0.00051
-0.00007
-0.00088
-0.00173
-0.00228
-0.00288
-0.00408
-0.00493
-0.00342
0.00041
0.00378
0.00485
0.00500
0.00569
0.00538
0.00225
-0.00174
-0.00295
-0.00153
-0.00101
-0.00272
-0.00400
-0.00273
-0.00038
0.00056
-0.00011
-0.00096
-0.00125
-0.00130
-0.00106
0.00035
0.00313
0.00558
0.00563
0.00345
0.00125
0.00031
-0.00047
-0.00226
-0.00420
-0.00460
-0.00344
-0.00227
-0.00182
-0.00122
0.00015
0.00116
0.00052
-0.00101
-0.00140
-0.00011
0.00155
0.00269
0.00390
0.00554
0.00670
0.00654
0.00542
0.00381
0.00120
-0.00287
-0.00717
-0.00957
-0.00936
-0.00786
-0.00663
-0.00571
-0.00420
-0.00206
-0.00046
-0.00005
0.00007
0.00124
0.00372
0.00676
0.00952
0.01114
0.01115
0.01010
0.00902
0.00817
0.00683
0.00417
-0.00040
-0.00656
-0.01217
-0.01448
-0.01335
-0.01209
-0.01372
-0.01715
-0.01845
-0.01540
-0.00915
-0.00141
0.00734
0.01580
0.02066
0.01995
0.01626
0.01378
0.01373
0.01450
0.01450
0.01270
0.00846
0.00245
-0.00340
-0.00795
-0.01160
-0.01473
-0.01688
-0.01742
-0.01640
-0.01453
-0.01276
-0.01172
-0.01132
-0.01100
-0.01026
-0.00886
-0.00663
-0.00333
0.00116
0.00675
0.01320
0.02019
0.02735
0.03408
0.03968
0.04351
0.04502
0.04359
0.03844
0.02926
0.01646
0.00074
-0.01759
-0.03869
-0.06254
-0.08812
-0.11265
-0.13155
-0.13979
-0.13378
-0.11262
-0.07744
-0.02702
0.04623
0.14925
0.26887
0.36264
0.38139
0.30726
0.16708
0.00957
-0.12472
-0.21578
-0.26237
-0.27609
-0.27034
-0.24773
-0.19991
-0.12233
-0.02659
0.06404
0.12983
0.16411
0.17097
0.15831
0.13393
0.10456
0.07448
0.04481
0.01580
-0.01041
-0.03088
-0.04514
-0.05496
-0.06095
-0.06174
-0.05668
-0.04772
-0.03761
-0.02752
-0.01746
-0.00795
0.00027
0.00794
0.01602
0.02284
0.02511
0.02286
0.02014
0.01948
0.01873
0.01522
0.01007
0.00586
0.00277
-0.00034
-0.00317
-0.00497
-0.00639
-0.00815
-0.00968
-0.01041
-0.01059
-0.00993
-0.00753
-0.00396
-0.00122
-0.00007
0.00061
0.00140
0.00163
0.00154
0.00251
0.00447
0.00514
0.00331
0.00105
0.00121
0.00357
0.00525
0.00447
0.00217
0.00013
-0.00108
-0.00209
-0.00340
-0.00469
-0.00501
-0.00382
-0.00187
-0.00060
-0.00062
-0.00116
-0.00106
-0.00004
0.00133
0.00260
0.00388
0.00499
0.00491
0.00286
-0.00037
-0.00289
-0.00363
-0.00324
-0.00308
-0.00336
-0.00293
-0.00107
0.00129
0.00283
0.00333
0.00311
0.00210
0.00028
-0.00138
-0.00156
-0.00002
0.00183
0.00232
0.00138
0.00021
-0.00062
-0.00149
-0.00230
-0.00223
-0.00129
-0.00068
-0.00137
-0.00256
-0.00224
0.00026
0.00266
0.00244
0.00062
0.00015
0.00128
0.00175
0.00118
0.00152
0.00289
0.00259
-0.00051
-0.00362
-0.00364
-0.00140
-0.00018
-0.00093
-0.00150
-0.00034
0.00128
0.00143
0.00013
-0.00091
-0.00031
0.00151
0.00255
0.00149
-0.00059
-0.00175
-0.00184
-0.00199
-0.00206
-0.00098
0.00088
0.00181
0.00130
0.00051
0.00022
0.00014
0.00002
0.00004
0.00009
0.00002
0.00035
0.00127
0.00151
0.00011
-0.00147
-0.00096
0.00167
0.00434
0.00539
0.00431
0.00121
-0.00276
-0.00564
-0.00664
-0.00698
-0.00781
-0.00845
-0.00741
-0.00457
-0.00127
0.00142
0.00392
0.00710
0.01040
0.01219
0.01219
0.01164
0.01057
0.00747
0.00299
0.00022
-0.00045
-0.00255
-0.00723
-0.01068
-0.01053
-0.01032
-0.01384
-0.01896
-0.02087
-0.01814
-0.01226
-0.00381
0.00680
0.01635
0.02046
0.01852
0.01478
0.01384
0.01618
0.01840
0.01742
0.01341
0.00822
0.00203
-0.00609
-0.01417
-0.01761
-0.01490
-0.01044
-0.00929
-0.01128
-0.01276
-0.01219
-0.01117
-0.01110
-0.01150
-0.01150
-0.01086
-0.00932
-0.00656
-0.00278
0.00185
0.00804
0.01646
0.02603
0.03469
0.04129
0.04566
0.04712
0.04478
0.03916
0.03174
0.02258
0.00955
-0.00902
-0.03192
-0.05657
-0.08188
-0.10768
-0.13121
-0.14573
-0.14345
-0.12129
-0.08423
-0.03853
0.02177
0.11358
0.23635
0.34823
0.38899
0.33265
0.20632
0.05771
-0.07915
-0.18631
-0.25399
-0.28330
-0.28495
-0.26530
-0.21939
-0.14332
-0.04813
0.04402
0.11471
0.15715
0.17261
0.16543
0.14235
0.11210
0.08150
0.05226
0.02344
-0.00362
-0.02541
-0.04058
-0.05125
-0.05908
-0.06261
-0.06004
-0.05255
-0.04302
-0.03266
-0.02113
-0.00926
0.00063
0.00756
0.01318
0.01912
0.02438
0.02672
0.02572
0.02298
0.01968
0.01556
0.01036
0.00504
0.00099
-0.00135
-0.00266
-0.00399
-0.00589
-0.00808
-0.00980
-0.01055
-0.01045
-0.00997
-0.00936
-0.00830
-0.00606
-0.00232
0.00203
0.00527
0.00668
0.00716
0.00738
0.00654
0.00417
0.00202
0.00170
0.00185
0.00012
-0.00269
-0.00340
-0.00114
0.00134
0.00147
-0.00039
-0.00248
-0.00375
-0.00380
-0.00245
-0.00025
0.00166
0.00262
0.00258
0.00148
-0.00024
-0.00116
-0.00047
0.00078
0.00108
0.00051
0.00000
-0.00022
-0.00042
-0.00067
-0.00116
-0.00199
-0.00237
-0.00128
0.00075
0.00194
0.00163
0.00087
0.00063
0.00067
0.00055
0.00036
0.00031
0.00028
0.00025
0.00029
0.00023
-0.00005
-0.00020
-0.00004
-0.00027
-0.00128
-0.00163
0.00004
0.00217
0.00183
-0.00095
-0.00311
-0.00305
-0.00225
-0.00208
-0.00179
-0.00067
0.00053
0.00146
0.00337
0.00635
0.00751
0.00448
-0.00055
-0.00327
-0.00270
-0.00138
-0.00076
-0.00016
0.00030
-0.00081
-0.00334
-0.00495
-0.00405
-0.00153
0.00090
0.00224
0.00210
0.00088
0.00005
0.00101
0.00294
0.00348
0.00210
0.00094
0.00107
0.00035
-0.00273
-0.00550
-0.00486
-0.00214
-0.00082
-0.00123
-0.00090
0.00119
0.00355
0.00474
0.00476
0.00432
0.00390
0.00370
0.00340
0.00204
-0.00117
-0.00541
-0.00846
-0.00885
-0.00716
-0.00502
-0.00367
-0.00347
-0.00377
-0.00320
-0.00081
0.00269
0.00539
0.00629
0.00633
0.00709
0.00878
0.01029
0.01069
0.00986
0.00800
0.00517
0.00130
-0.00356
-0.00855
-0.01204
-0.01336
-0.01405
-0.01576
-0.01764
-0.01755
-0.01521
-0.01169
-0.00632
0.00249
0.01316
0.02086
0.02299
0.02165
0.01969
0.01741
0.01436
0.01133
0.00862
0.00498
-0.00005
-0.00489
-0.00824
-0.01060
-0.01232
-0.01258
-0.01175
-0.01223
-0.01496
-0.01728
-0.01640
-0.01310
-0.01016
-0.00875
-0.00814
-0.00730
-0.00500
0.00001
0.00736
0.01464
0.01985
0.02384
0.02936
0.03739
0.04511
0.04848
0.04658
0.04135
0.03321
0.02006
0.00149
-0.01955
-0.04106
-0.06447
-0.09072
-0.11611
-0.13415
-0.13983
-0.13068
-0.10624
-0.06867
-0.02012
0.04456
0.13602
0.24996
0.34917
0.38000
0.31536
0.17790
0.01986
-0.11414
-0.20582
-0.25808
-0.28102
-0.28080
-0.25600
-0.20269
-0.12301
-0.02886
0.06136
0.12961
0.16563
0.17130
0.15756
0.13515
0.10832
0.07753
0.04539
0.01633
-0.00794
-0.02861
-0.04569
-0.05725
-0.06223
-0.06143
-0.05606
-0.04769
-0.03870
-0.03052
-0.02192
-0.01130
-0.00001
0.00888
0.01485
0.02019
0.02570
0.02882
0.02738
0.02288
0.01840
0.01487
0.01126
0.00711
0.00297
-0.00081
-0.00415
-0.00665
-0.00830
-0.00995
-0.01192
-0.01299
-0.01209
-0.01008
-0.00839
-0.00682
-0.00403
0.00014
0.00392
0.00540
0.00501
0.00508
0.00646
0.00698
0.00480
0.00182
0.00110
0.00244
0.00301
0.00172
0.00001
-0.00106
-0.00186
-0.00263
-0.00309
-0.00345
-0.00408
-0.00409
-0.00240
0.00023
0.00190
0.00229
0.00249
0.00268
0.00195
0.00016
-0.00167
-0.00259
-0.00210
-0.00042
0.00119
0.00166
0.00171
0.00236
0.00261
0.00113
-0.00108
-0.00237
-0.00322
-0.00424
-0.00363
-0.00007
0.00370
0.00389
0.00082
-0.00184
-0.00198
-0.00031
0.00185
0.00358
0.00383
0.00220
-0.00013
-0.00158
-0.00172
-0.00110
-0.00047
-0.00079
-0.00237
-0.00358
-0.00246
0.00009
0.00088
-0.00078
-0.00170
0.00049
0.00360
0.00412
0.00221
0.00085
0.00098
0.00068
-0.00097
-0.00211
-0.00117
0.00054
0.00067
-0.00087
-0.00197
-0.00103
0.00092
0.00129
-0.00048
-0.00152
0.00072
0.00424
0.00464
0.00104
-0.00306
-0.00480
-0.00475
-0.00435
-0.00341
-0.00126
0.00173
0.00459
0.00624
0.00549
0.00211
-0.00180
-0.00340
-0.00225
-0.00071
-0.00070
-0.00169
-0.00199
-0.00085
0.00130
0.00336
0.00427
0.00412
0.00403
0.00386
0.00178
-0.00212
-0.00438
-0.00287
-0.00044
-0.00099
-0.00426
-0.00712
-0.00800
-0.00754
-0.00634
-0.00437
-0.00184
0.00076
0.00328
0.00602
0.00906
0.01176
0.01305
0.01242
0.01044
0.00813
0.00583
0.00314
-0.00015
-0.00372
-0.00714
-0.00989
-0.01152
-0.01258
-0.01436
-0.01686
-0.01840
-0.01775
-0.01479
-0.00882
0.00093
0.01235
0.02052
0.02241
0.01976
0.01684
0.01628
0.01721
0.01686
0.01348
0.00762
0.00072
-0.00591
-0.01056
-0.01192
-0.01116
-0.01123
-0.01281
-0.01355
-0.01223
-0.01092
-0.01153
-0.01293
-0.01313
-0.01220
-0.01115
-0.00981
-0.00723
-0.00321
0.00186
0.00789
0.01492
0.02247
0.02977
0.03645
0.04216
0.04573
0.04601
0.04328
0.03840
0.03044
0.01708
-0.00183
-0.02361
-0.04663
-0.07258
-0.10237
-0.13101
-0.14905
-0.14903
-0.13028
-0.09806
-0.05691
-0.00216
0.07971
0.19333
0.31304
0.38723
0.37352
0.27084
0.11692
-0.03996
-0.16493
-0.24391
-0.28035
-0.28615
-0.27026
-0.23284
-0.17026
-0.08544
0.00718
0.08727
0.14037
0.16428
0.16537
0.15147
0.12865
0.10082
0.06979
0.03721
0.00669
-0.01793
-0.03593
-0.04885
-0.05701
-0.05960
-0.05757
-0.05349
-0.04831
-0.04068
-0.03007
-0.01859
-0.00838
0.00110
0.01114
0.02036
0.02592
0.02732
0.02661
0.02493
0.02171
0.01727
0.01343
0.01069
0.00721
0.00186
-0.00349
-0.00634
-0.00712
-0.00815
-0.01009
-0.01141
-0.01151
-0.01159
-0.01167
-0.00957
-0.00455
0.00044
0.00237
0.00227
0.00300
0.00485
0.00589
0.00548
0.00479
0.00448
0.00398
0.00290
0.00177
0.00100
0.00010
-0.00133
-0.00243
-0.00202
-0.00043
0.00057
0.00007
-0.00095
-0.00138
-0.00162
-0.00246
-0.00324
-0.00258
-0.00056
0.00103
0.00087
-0.00047
-0.00146
-0.00121
0.00011
0.00191
0.00373
0.00500
0.00485
0.00283
-0.00014
-0.00223
-0.00266
-0.00248
-0.00288
-0.00340
-0.00261
-0.00036
0.00161
0.00182
0.00100
0.00098
0.00204
0.00256
0.00158
0.00004
-0.00095
-0.00161
-0.00221
-0.00202
-0.00068
0.00062
0.00064
-0.00027
-0.00087
-0.00077
-0.00054
-0.00052
-0.00020
0.00103
0.00257
0.00286
0.00130
-0.00068
-0.00124
-0.00039
0.00019
-0.00047
-0.00142
-0.00114
0.00034
0.00144
0.00112
0.00034
0.00064
0.00158
0.00134
-0.00037
-0.00172
-0.00160
-0.00121
-0.00174
-0.00242
-0.00205
-0.00091
-0.00009
0.00008
0.00011
0.00045
0.00096
0.00105
0.00060
0.00069
0.00230
0.00441
0.00500
0.00379
0.00208
0.00044
-0.00142
-0.00308
-0.00367
-0.00328
-0.00257
-0.00184
-0.00132
-0.00147
-0.00204
-0.00222
-0.00199
-0.00224
-0.00332
-0.00427
-0.00371
-0.00122
0.00205
0.00439
0.00568
0.00733
0.00971
0.01113
0.01048
0.00903
0.00810
0.00684
0.00396
-0.00010
-0.00475
-0.01099
-0.01905
-0.02558
-0.02659
-0.02237
-0.01634
-0.00974
-0.00127
0.00817
0.01439
0.01472
0.01179
0.01112
0.01549
0.02217
0.02553
0.02235
0.01454
0.00647
0.00051
-0.00400
-0.00833
-0.01232
-0.01482
-0.01542
-0.01526
-0.01589
-0.01727
-0.01758
-0.01585
-0.01375
-0.01337
-0.01376
-0.01183
-0.00645
0.00035
0.00659
0.01252
0.01918
0.02657
0.03377
0.03973
0.04340
0.04397
0.04160
0.03733
0.03165
0.02325
0.00993
-0.00871
-0.03010
-0.05136
-0.07237
-0.09453
-0.11633
-0.13197
-0.13502
-0.12290
-0.09663
-0.05629
0.00323
0.08905
0.19756
0.30275
0.36257
0.34458
0.24865
0.10616
-0.04018
-0.15738
-0.23228
-0.26921
-0.27857
-0.26515
-0.22695
-0.16330
-0.08060
0.00858
0.08862
0.14462
0.16898
0.16597
0.14721
0.12214
0.09401
0.06344
0.03224
0.00348
-0.02029
-0.03806
-0.05001
-0.05667
-0.05848
-0.05620
-0.05108
-0.04419
-0.03613
-0.02723
-0.01753
-0.00702
0.00359
0.01267
0.01894
0.02256
0.02448
0.02513
0.02429
0.02184
0.01826
0.01443
0.01051
0.00588
0.00044
-0.00443
-0.00731
-0.00862
-0.00964
-0.01069
-0.01126
-0.01122
-0.01043
-0.00828
-0.00480
-0.00138
0.00067
0.00165
0.00261
0.00365
0.00412
0.00395
0.00368
0.00324
0.00198
0.00021
-0.00044
0.00099
0.00317
0.00389
0.00242
-0.00002
-0.00174
-0.00186
-0.00087
-0.00013
-0.00052
-0.00145
-0.00194
-0.00211
-0.00259
-0.00298
-0.00210
-0.00002
0.00177
0.00217
0.00172
0.00136
0.00127
0.00112
0.00073
0.00022
-0.00021
-0.00047
-0.00084
-0.00165
-0.00234
-0.00175
0.00020
0.00201
0.00238
0.00173
0.00112
0.00088
0.00068
0.00039
0.00002
-0.00041
-0.00065
-0.00057
-0.00086
-0.00222
-0.00390
-0.00412
-0.00210
0.00101
0.00341
0.00411
0.00325
0.00187
0.00099
0.00062
-0.00010
-0.00153
-0.00287
-0.00291
-0.00125
0.00130
0.00314
0.00295
0.00067
-0.00217
-0.00343
-0.00233
-0.00031
0.00063
0.00034
0.00048
0.00182
0.00299
0.00240
0.00042
-0.00142
-0.00228
-0.00236
-0.00191
-0.00101
0.00004
0.00078
0.00106
0.00126
0.00183
0.00240
0.00187
-0.00000
-0.00175
-0.00187
-0.00097
-0.00089
-0.00210
-0.00325
-0.00308
-0.00160
0.00040
0.00185
0.00210
0.00170
0.00189
0.00283
0.00349
0.00333
0.00274
0.00193
0.00094
0.00028
0.00005
-0.00071
-0.00247
-0.00431
-0.00532
-0.00548
-0.00460
-0.00241
-0.00006
0.00048
-0.00084
-0.00223
-0.00287
-0.00347
-0.00381
-0.00218
0.00199
0.00689
0.01049
0.01232
0.01258
0.01136
0.00918
0.00708
0.00537
0.00324
-0.00022
-0.00488
-0.00973
-0.01366
-0.01650
-0.01920
-0.02218
-0.02366
-0.02104
-0.01390
-0.00425
0.00583
0.01500
0.02162
0.02404
0.02253
0.01960
0.01799
0.01831
0.01858
0.01584
0.00907
0.00044
-0.00690
-0.01182
-0.01501
-0.01694
-0.01770
-0.01780
-0.01762
-0.01681
-0.01544
-0.01439
-0.01372
-0.01226
-0.00950
-0.00625
-0.00303
0.00043
0.00396
0.00741
0.01213
0.01972
0.02916
0.03720
0.04210
0.04501
0.04744
0.04831
0.04421
0.03262
0.01470
-0.00574
-0.02635
-0.04821
-0.07317
-0.10014
-0.12463
-0.14101
-0.14455
-0.13263
-0.10554
-0.06484
-0.00821
0.07243
0.18014
0.29536
0.37442
0.37506
0.28762
0.14156
-0.01601
-0.14698
-0.23443
-0.27936
-0.29034
-0.27467
-0.23562
-0.17497
-0.09665
-0.00935
0.07292
0.13451
0.16611
0.16970
0.15471
0.12999
0.10034
0.06868
0.03799
0.01062
-0.01262
-0.03167
-0.04609
-0.05503
-0.05835
-0.05720
-0.05324
-0.04727
-0.03922
-0.02934
-0.01889
-0.00919
-0.00035
0.00827
0.01646
0.02269
0.02573
0.02594
0.02440
0.02156
0.01751
0.01298
0.00912
0.00631
0.00361
-0.00008
-0.00446
-0.00783
-0.00910
-0.00914
-0.00965
-0.01084
-0.01117
-0.00933
-0.00597
-0.00285
-0.00088
0.00039
0.00161
0.00281
0.00378
0.00432
0.00428
0.00382
0.00341
0.00281
0.00116
-0.00103
-0.00145
0.00055
0.00190
0.00005
-0.00258
-0.00198
0.00130
0.00321
0.00245
0.00136
0.00099
-0.00033
-0.00307
-0.00472
-0.00352
-0.00116
-0.00031
-0.00123
-0.00202
-0.00128
0.00056
0.00206
0.00237
0.00181
0.00122
0.00091
0.00066
0.00031
-0.00001
-0.00014
-0.00016
-0.00022
-0.00025
-0.00006
0.00026
0.00040
0.00044
0.00090
0.00156
0.00100
-0.00140
-0.00351
-0.00277
-0.00006
0.00103
-0.00064
-0.00219
-0.00123
0.00092
0.00197
0.00182
0.00146
0.00102
0.00050
0.00035
0.00037
-0.00050
-0.00227
-0.00316
-0.00176
0.00094
0.00232
0.00106
-0.00110
-0.00125
0.00121
0.00375
0.00377
0.00157
-0.00060
-0.00145
-0.00134
-0.00089
-0.00034
-0.00012
-0.00093
-0.00250
-0.00331
-0.00233
-0.00075
-0.00073
-0.00224
-0.00276
-0.00073
0.00226
0.00387
0.00408
0.00447
0.00542
0.00569
0.00429
0.00170
-0.00087
-0.00253
-0.00292
-0.00223
-0.00144
-0.00184
-0.00363
-0.00518
-0.00490
-0.00347
-0.00291
-0.00356
-0.00359
-0.00191
0.00028
0.00158
0.00215
0.00280
0.00370
0.00486
0.00639
0.00787
0.00844
0.00821
0.00811
0.00821
0.00724
0.00446
0.00063
-0.00367
-0.00945
-0.01720
-0.02422
-0.02646
-0.02324
-0.01745
-0.01082
-0.00250
0.00692
0.01341
0.01400
0.01129
0.01114
0.01622
0.02309
0.02609
0.02327
0.01716
0.01025
0.00246
-0.00603
-0.01276
-0.01580
-0.01636
-0.01669
-0.01714
-0.01669
-0.01522
-0.01382
-0.01339
-0.01357
-0.01311
-0.01142
-0.00889
-0.00545
-0.00007
0.00719
0.01426
0.01956
0.02394
0.02900
0.03463
0.03933
0.04160
0.04061
0.03681
0.03139
0.02366
0.01062
-0.00865
-0.03042
-0.05112
-0.07185
-0.09418
-0.11419
-0.12503
-0.12333
-0.10955
-0.08440
-0.04744
0.00495
0.08110
0.18327
0.28812
0.34816
0.32600
0.22653
0.08981
-0.04229
-0.14657
-0.21623
-0.25345
-0.26460
-0.25377
-0.21870
-0.15655
-0.07310
0.01592
0.09181
0.14113
0.16067
0.15686
0.13969
0.11582
0.08739
0.05594
0.02510
-0.00113
-0.02093
-0.03499
-0.04502
-0.05233
-0.05676
-0.05653
-0.05022
-0.03952
-0.02875
-0.02065
-0.01374
-0.00546
0.00354
0.01027
0.01395
0.01678
0.02026
0.02313
0.02396
0.02304
0.02055
0.01529
0.00745
0.00047
-0.00250
-0.00256
-0.00325
-0.00577
-0.00836
-0.00952
-0.00954
-0.00915
-0.00833
-0.00691
-0.00513
-0.00328
-0.00149
0.00010
0.00142
0.00251
0.00320
0.00313
0.00252
0.00244
0.00331
0.00391
0.00275
0.00027
-0.00149
-0.00140
-0.00042
0.00003
0.00015
0.00138
0.00405
0.00624
0.00549
0.00156
-0.00327
-0.00647
-0.00741
-0.00690
-0.00556
-0.00339
-0.00067
0.00145
0.00187
0.00105
0.00102
0.00289
0.00504
0.00495
0.00248
-0.00008
-0.00100
-0.00079
-0.00069
-0.00093
-0.00108
-0.00092
-0.00062
-0.00049
-0.00054
-0.00033
0.00034
0.00067
-0.00026
-0.00159
-0.00150
0.00010
0.00131
0.00127
0.00114
0.00145
0.00082
-0.00136
-0.00305
-0.00203
0.00086
0.00274
0.00207
0.00010
-0.00093
-0.00026
0.00069
0.00024
-0.00120
-0.00166
-0.00071
-0.00034
-0.00188
-0.00352
-0.00249
0.00122
0.00480
0.00581
0.00424
0.00176
-0.00000
-0.00056
-0.00047
-0.00045
-0.00090
-0.00196
-0.00341
-0.00437
-0.00393
-0.00205
0.00066
0.00348
0.00536
0.00495
0.00223
-0.00062
-0.00153
-0.00120
-0.00198
-0.00416
-0.00538
-0.00375
-0.00012
0.00302
0.00390
0.00258
0.00079
0.00045
0.00169
0.00294
0.00316
0.00288
0.00274
0.00248
0.00187
0.00120
0.00028
-0.00173
-0.00470
-0.00699
-0.00738
-0.00645
-0.00549
-0.00493
-0.00429
-0.00303
-0.00112
0.00082
0.00212
0.00292
0.00396
0.00535
0.00653
0.00750
0.00902
0.01116
0.01271
0.01237
0.00969
0.00488
-0.00148
-0.00808
-0.01304
-0.01524
-0.01552
-0.01603
-0.01776
-0.01941
-0.01894
-0.01544
-0.00889
0.00051
0.01121
0.01976
0.02323
0.02212
0.01955
0.01793
0.01710
0.01549
0.01193
0.00656
0.00090
-0.00348
-0.00638
-0.00867
-0.01095
-0.01326
-0.01524
-0.01591
-0.01447
-0.01212
-0.01150
-0.01331
-0.01509
-0.01441
-0.01163
-0.00846
-0.00529
-0.00102
0.00507
0.01196
0.01799
0.02298
0.02857
0.03573
0.04279
0.04680
0.04627
0.04189
0.03505
0.02593
0.01287
-0.00589
-0.02948
-0.05477
-0.07991
-0.10516
-0.12823
-0.14166
-0.13832
-0.11847
-0.08790
-0.04847
0.00831
0.09521
0.21073
0.32360
0.38252
0.35126
0.23641
0.08035
-0.06883
-0.18038
-0.24596
-0.27354
-0.27594
-0.25906
-0.21930
-0.15262
-0.06486
0.02724
0.10350
0.15012
0.16550
0.15824
0.13901
0.11431
0.08658
0.05717
0.02807
0.00181
-0.01947
-0.03530
-0.04660
-0.05401
-0.05725
-0.05614
-0.05149
-0.04457
-0.03630
-0.02710
-0.01707
-0.00643
0.00411
0.01338
0.02025
0.02407
0.02490
0.02364
0.02185
0.02051
0.01864
0.01449
0.00857
0.00381
0.00143
-0.00115
-0.00618
-0.01132
-0.01248
-0.00963
-0.00671
-0.00610
-0.00653
-0.00609
-0.00487
-0.00389
-0.00348
-0.00320
-0.00247
-0.00099
0.00101
0.00283
0.00400
0.00473
0.00555
0.00638
0.00647
0.00533
0.00340
0.00155
0.00017
-0.00090
-0.00179
-0.00241
-0.00269
-0.00268
-0.00250
-0.00215
-0.00167
-0.00114
-0.00060
-0.00014
0.00018
0.00036
0.00041
0.00021
-0.00035
-0.00111
-0.00160
-0.00131
-0.00000
0.00185
0.00290
0.00206
0.00024
-0.00012
0.00174
0.00328
0.00189
-0.00122
-0.00250
-0.00122
-0.00017
-0.00101
-0.00201
-0.00135
-0.00002
0.00028
-0.00016
-0.00010
0.00048
0.00074
0.00070
0.00108
0.00177
0.00158
-0.00003
-0.00188
-0.00254
-0.00198
-0.00124
-0.00081
-0.00034
0.00047
0.00147
0.00219
0.00197
0.00052
-0.00126
-0.00171
-0.00044
0.00109
0.00187
0.00255
0.00321
0.00215
-0.00145
-0.00521
-0.00595
-0.00324
0.00043
0.00250
0.00243
0.00149
0.00068
-0.00035
-0.00206
-0.00343
-0.00302
-0.00106
0.00089
0.00191
0.00249
0.00344
0.00451
0.00457
0.00296
0.00062
-0.00084
-0.00106
-0.00109
-0.00166
-0.00233
-0.00256
-0.00264
-0.00295
-0.00291
-0.00188
-0.00086
-0.00172
-0.00431
-0.00583
-0.00417
-0.00056
0.00215
0.00314
0.00398
0.00604
0.00887
0.01133
0.01288
0.01323
0.01169
0.00786
0.00263
-0.00255
-0.00741
-0.01290
-0.01901
-0.02373
-0.02496
-0.02252
-0.01724
-0.00941
0.00009
0.00838
0.01230
0.01178
0.01008
0.01106
0.01635
0.02387
0.02849
0.02584
0.01661
0.00608
-0.00161
-0.00702
-0.01224
-0.01639
-0.01720
-0.01539
-0.01407
-0.01419
-0.01380
-0.01186
-0.01000
-0.00997
-0.01130
-0.01208
-0.01109
-0.00832
-0.00419
0.00084
0.00634
0.01252
0.02021
0.02924
0.03728
0.04182
0.04282
0.04212
0.04069
0.03744
0.03031
0.01782
0.00021
-0.02049
-0.04221
-0.06498
-0.08992
-0.11512
-0.13397
-0.13900
-0.12735
-0.10172
-0.06533
-0.01501
0.05918
0.16125
0.27247
0.35142
0.35814
0.28147
0.14548
-0.00616
-0.13316
-0.21562
-0.25674
-0.26975
-0.26173
-0.23082
-0.17556
-0.10124
-0.01814
0.06095
0.12245
0.15697
0.16460
0.15290
0.13000
0.10117
0.07029
0.04052
0.01337
-0.01090
-0.03150
-0.04700
-0.05648
-0.05995
-0.05811
-0.05234
-0.04445
-0.03574
-0.02672
-0.01778
-0.00918
-0.00046
0.00847
0.01608
0.02066
0.02280
0.02435
0.02521
0.02377
0.01987
0.01500
0.00989
0.00446
-0.00031
-0.00323
-0.00506
-0.00741
-0.00983
-0.01038
-0.00899
-0.00767
-0.00746
-0.00727
-0.00600
-0.00415
-0.00285
-0.00207
-0.00063
0.00205
0.00485
0.00615
0.00582
0.00485
0.00373
0.00229
0.00090
0.00048
0.00109
0.00174
0.00151
0.00028
-0.00178
-0.00423
-0.00580
-0.00500
-0.00190
0.00181
0.00478
0.00666
0.00640
0.00261
-0.00326
-0.00671
-0.00522
-0.00177
-0.00089
-0.00281
-0.00394
-0.00205
0.00150
0.00426
0.00530
0.00498
0.00375
0.00168
-0.00104
-0.00342
-0.00399
-0.00246
-0.00040
0.00050
0.00050
0.00092
0.00188
0.00209
0.00072
-0.00146
-0.00259
-0.00164
0.00038
0.00155
0.00129
0.00062
0.00029
0.00007
-0.00030
-0.00067
-0.00099
-0.00126
-0.00115
-0.00061
-0.00045
-0.00133
-0.00253
-0.00253
-0.00083
0.00183
0.00429
0.00535
0.00430
0.00196
0.00043
0.00080
0.00179
0.00144
-0.00058
-0.00307
-0.00491
-0.00539
-0.00399
-0.00127
0.00068
0.00020
-0.00162
-0.00196
0.00023
0.00295
0.00395
0.00327
0.00237
0.00185
0.00131
0.00052
-0.00025
-0.00081
-0.00126
-0.00165
-0.00190
-0.00196
-0.00187
-0.00165
-0.00126
-0.00079
-0.00024
0.00046
0.00127
0.00200
0.00265
0.00358
0.00471
0.00526
0.00463
0.00323
0.00145
-0.00128
-0.00536
-0.00933
-0.01103
-0.01009
-0.00803
-0.00575
-0.00304
-0.00044
0.00066
0.00076
0.00265
0.00748
0.01251
0.01442
0.01319
0.01089
0.00855
0.00616
0.00420
0.00268
-0.00012
-0.00535
-0.01098
-0.01396
-0.01422
-0.01441
-0.01621
-0.01866
-0.01957
-0.01704
-0.01009
0.00059
0.01210
0.02031
0.02289
0.02135
0.01907
0.01767
0.01661
0.01523
0.01323
0.00968
0.00393
-0.00282
-0.00852
-0.01231
-0.01443
-0.01503
-0.01464
-0.01467
-0.01581
-0.01683
-0.01619
-0.01441
-0.01320
-0.01267
-0.01095
-0.00680
-0.00119
0.00423
0.00930
0.01495
0.02140
0.02800
0.03410
0.03917
0.04236
0.04311
0.04158
0.03780
0.03075
0.01939
0.00391
-0.01487
-0.03682
-0.06236
-0.09056
-0.11722
-0.13584
-0.14112
-0.13166
-0.10876
-0.07390
-0.02569
0.04322
0.14155
0.26074
0.36047
0.38667
0.31450
0.17043
0.00950
-0.12384
-0.21275
-0.26064
-0.27818
-0.27378
-0.24807
-0.19637
-0.11878
-0.02716
0.05902
0.12325
0.15889
0.16859
0.15931
0.13782
0.10913
0.07696
0.04457
0.01505
-0.00931
-0.02812
-0.04246
-0.05291
-0.05874
-0.05967
-0.05699
-0.05196
-0.04439
-0.03378
-0.02100
-0.00794
0.00364
0.01209
0.01649
0.01797
0.01907
0.02117
0.02346
0.02446
0.02322
0.01961
0.01439
0.00889
0.00394
-0.00044
-0.00428
-0.00738
-0.00968
-0.01124
-0.01190
-0.01168
-0.01123
-0.01077
-0.00931
-0.00611
-0.00253
-0.00050
0.00043
0.00228
0.00501
0.00629
0.00518
0.00385
0.00439
0.00569
0.00520
0.00276
0.00082
0.00093
0.00173
0.00125
-0.00038
-0.00177
-0.00273
-0.00386
-0.00456
-0.00353
-0.00143
-0.00059
-0.00161
-0.00220
-0.00051
0.00199
0.00283
0.00197
0.00110
0.00055
-0.00056
-0.00169
-0.00116
0.00073
0.00189
0.00179
0.00181
0.00191
0.00042
-0.00214
-0.00286
-0.00099
0.00084
0.00071
-0.00027
-0.00045
0.00002
0.00020
-0.00008
-0.00022
0.00017
0.00060
0.00000
-0.00179
-0.00313
-0.00221
0.00059
0.00298
0.00351
0.00271
0.00179
0.00111
0.00045
-0.00034
-0.00122
-0.00203
-0.00255
-0.00288
-0.00347
-0.00402
-0.00292
0.00067
0.00461
0.00564
0.00367
0.00189
0.00224
0.00312
0.00233
-0.00024
-0.00326
-0.00517
-0.00479
-0.00250
-0.00046
-0.00012
-0.00058
-0.00034
0.00059
0.00150
0.00192
0.00143
-0.00004
-0.00130
-0.00097
0.00065
0.00207
0.00264
0.00281
0.00296
0.00302
0.00290
0.00238
0.00085
-0.00202
-0.00539
-0.00782
-0.00859
-0.00802
-0.00658
-0.00455
-0.00270
-0.00177
-0.00128
0.00027
0.00342
0.00731
0.01091
0.01365
0.01512
0.01497
0.01322
0.01005
0.00559
0.00045
-0.00449
-0.00938
-0.01538
-0.02198
-0.02602
-0.02532
-0.02149
-0.01648
-0.00918
0.00123
0.01102
0.01537
0.01447
0.01247
0.01240
0.01514
0.02046
0.02521
0.02369
0.01432
0.00317
-0.00315
-0.00520
-0.00748
-0.01102
-0.01373
-0.01508
-0.01611
-0.01647
-0.01516
-0.01302
-0.01168
-0.01118
-0.01048
-0.00944
-0.00822
-0.00594
-0.00206
0.00204
0.00516
0.00893
0.01559
0.02407
0.03137
0.03664
0.04084
0.04361
0.04348
0.04005
0.03331
0.02206
0.00538
-0.01529
-0.03755
-0.06047
-0.08432
-0.10833
-0.12885
-0.13910
-0.13236
-0.10795
-0.07218
-0.02746
0.03818
