0.00029
0.00205
0.00187
0.00513
0.00573
0.00521
-0.00077
-0.00189
-0.00416
-0.00811
-0.00854
-0.00534
0.00298
0.00572
0.00784
0.00863
0.00866
0.00569
-0.00284
-0.01190
-0.01436
-0.01395
-0.01487
-0.00577
0.01295
0.02536
0.02658
0.03025
0.02053
-0.00459
-0.02865
-0.04563
-0.05411
-0.05131
-0.03333
0.00132
0.04900
0.09896
0.13681
0.14227
0.08488
-0.06844
-0.26245
-0.36863
-0.26979
0.02360
0.34686
0.45511
0.27618
-0.00628
-0.20824
-0.25623
-0.18736
-0.07770
0.01128
0.06281
0.08209
0.08006
0.06063
0.03223
0.00050
-0.02144
-0.02960
-0.03661
-0.03149
-0.01916
-0.00301
0.00748
0.01165
0.01635
0.01566
0.00980
0.00247
-0.00204
-0.00325
-0.00532
-0.00658
-0.00463
-0.00108
-0.00118
-0.00265
-0.00028
0.00257
0.00417
0.00282
0.00190
0.00227
0.00202
-0.00064
-0.00296
-0.00414
-0.00398
0.00001
0.00074
0.00256
0.00110
-0.00014
-0.00073
-0.00212
0.00178
0.00290
0.00160
-0.00051
0.00135
0.00008
-0.00084
-0.00185
-0.00285
-0.00367
-0.00384
-0.00284
0.00102
0.00808
0.00961
0.01033
0.00468
-0.00068
-0.00789
-0.01928
-0.02443
-0.01576
0.00245
0.01784
0.02669
0.03586
0.03424
0.01396
-0.01370
-0.03833
-0.05533
-0.06390
-0.05301
-0.01948
0.02337
0.06741
0.11589
0.15107
0.14565
0.05342
-0.13331
-0.33473
-0.39905
-0.22326
0.14230
0.46152
0.47459
0.20249
-0.10803
-0.26809
-0.26191
-0.16132
-0.04935
0.03645
0.08263
0.09335
0.08014
0.05184
0.02218
-0.00655
-0.02999
-0.04138
-0.03664
-0.02254
-0.01230
-0.00351
0.00853
0.01854
0.01719
0.00930
0.00819
0.00592
0.00051
-0.00784
-0.00858
-0.00504
-0.00500
-0.00476
-0.00330
0.00327
0.00411
0.00344
0.00222
0.00330
0.00287
0.00075
-0.00180
-0.00303
-0.00136
-0.00153
-0.00117
-0.00367
0.00181
-0.00054
0.00215
0.00252
-0.00011
0.00109
-0.00234
0.00042
0.00175
0.00545
0.00011
-0.00310
-0.00396
-0.00328
-0.00142
-0.00100
0.00052
-0.00159
-0.00004
0.00278
0.00827
0.01114
0.00918
-0.00186
-0.01375
-0.01547
-0.02175
-0.01593
0.00321
0.01937
0.02621
0.02856
0.02696
0.01337
-0.00634
-0.03134
-0.04934
-0.05596
-0.05157
-0.02849
0.01222
0.06154
0.10607
0.13501
0.13996
0.07620
-0.08862
-0.29649
-0.39982
-0.26268
0.09193
0.42657
0.47754
0.23052
-0.07549
-0.24922
-0.25863
-0.16657
-0.05397
0.03179
0.06913
0.08272
0.07516
0.05307
0.02719
-0.00001
-0.02003
-0.03255
-0.03886
-0.03036
-0.01420
-0.00198
0.00112
0.01032
0.01815
0.01847
0.01571
0.00457
-0.00169
-0.00668
-0.00940
-0.01094
-0.00612
-0.00163
-0.00231
0.00157
0.00693
0.00637
0.00477
-0.00272
-0.00239
0.00067
0.00255
0.00168
-0.00457
-0.00397
-0.00130
-0.00144
-0.00117
0.00503
0.00316
0.00013
-0.00321
-0.00147
0.00191
0.00316
0.00070
-0.00326
0.00308
0.00206
-0.00325
-0.00250
-0.00363
-0.00193
-0.00274
-0.00101
0.00511
0.00811
0.00919
0.00554
-0.00108
-0.00617
-0.00969
-0.01712
-0.01614
-0.00460
0.00601
0.01815
0.02820
0.03212
0.02513
-0.00104
-0.02527
-0.04123
-0.05282
-0.05269
-0.03455
-0.00427
0.03689
0.08226
0.12173
0.14487
0.11182
-0.02138
-0.21869
-0.35756
-0.31497
-0.06872
0.27719
0.47482
0.35265
0.05347
-0.19216
-0.26232
-0.20644
-0.10221
-0.00978
0.05548
0.08855
0.08706
0.06546
0.03085
0.00792
-0.01479
-0.03235
-0.03722
-0.03107
-0.02053
-0.00537
0.00116
0.01096
0.02021
0.01605
0.00745
0.00307
0.00547
-0.00298
-0.00871
-0.00372
-0.00464
-0.00731
-0.00785
-0.00262
0.00722
0.00757
0.00476
0.00288
0.00165
0.00043
-0.00417
-0.00270
-0.00146
-0.00074
0.00072
-0.00185
0.00070
0.00283
-0.00086
-0.00577
0.00152
0.00397
0.00102
-0.00022
0.00189
0.00357
0.00023
-0.00116
-0.00340
-0.00462
-0.00168
-0.00264
-0.00349
0.00247
0.00470
0.00417
0.00530
0.01184
0.00431
-0.00556
-0.01224
-0.01440
-0.01496
-0.01281
0.00068
0.01282
0.02513
0.03162
0.02750
0.01584
-0.00227
-0.03268
-0.05744
-0.06168
-0.04981
-0.02648
0.01193
0.06369
0.11498
0.14720
0.14281
0.06706
-0.10619
-0.31084
-0.40022
-0.25850
0.09531
0.44367
0.49624
0.23318
-0.08906
-0.26011
-0.26347
-0.17143
-0.05924
0.02942
0.08144
0.08960
0.08138
0.05678
0.02128
-0.00678
-0.02572
-0.03322
-0.03392
-0.02726
-0.01762
-0.00336
0.00805
0.01150
0.01217
0.01752
0.01462
0.00695
0.00030
-0.00871
-0.00802
-0.00952
-0.00850
-0.00349
0.00110
0.00338
0.00160
0.00200
0.00534
0.00709
0.00142
-0.00099
-0.00142
-0.00386
-0.00481
-0.00636
0.00256
0.00571
-0.00321
-0.00107
0.00065
0.00528
0.00443
-0.00004
-0.00111
-0.00605
-0.00346
-0.00075
0.00329
0.00524
0.00535
-0.00308
-0.00678
-0.00082
-0.00401
-0.00393
-0.00313
0.00271
0.01577
0.01446
0.00317
-0.00177
-0.00834
-0.01567
-0.01995
-0.01679
-0.00425
0.01428
0.02269
0.02752
0.03511
0.02410
-0.00195
-0.03146
-0.04977
-0.05827
-0.05231
-0.03106
0.00577
0.04736
0.08709
0.12783
0.14840
0.10501
-0.03891
-0.25177
-0.38838
-0.31876
-0.01753
0.35897
0.50202
0.31694
-0.01061
-0.22542
-0.26660
-0.19375
-0.08262
0.00693
0.06671
0.08679
0.08014
0.06143
0.03322
0.00640
-0.01614
-0.03955
-0.03999
-0.03010
-0.01638
-0.00412
0.00516
0.01314
0.01554
0.01165
0.00895
0.00777
0.00567
0.00098
-0.01104
-0.01090
-0.00664
-0.00576
-0.00741
0.00093
0.01093
0.00540
0.00178
0.00274
0.00114
0.00408
-0.00046
-0.00598
-0.00424
-0.00403
-0.00148
0.00090
0.00404
0.00303
0.00187
-0.00328
-0.00203
0.00125
0.00173
-0.00068
-0.00115
0.00473
0.00168
-0.00099
-0.00331
-0.00065
-0.00261
-0.00414
-0.00456
0.00132
0.00402
0.00347
0.00967
0.01212
0.00528
-0.00658
-0.01423
-0.01834
-0.01466
-0.01372
0.00368
0.02207
0.02572
0.02456
0.02370
0.01460
-0.00560
-0.03318
-0.04906
-0.05363
-0.04858
-0.02745
0.00788
0.05698
0.10596
0.14362
0.14245
0.07453
-0.09785
-0.30140
-0.39269
-0.25319
0.08740
0.42536
0.47914
0.22572
-0.07860
-0.24612
-0.24852
-0.16955
-0.06253
0.02425
0.07181
0.08870
0.08251
0.05965
0.02700
-0.00962
-0.02675
-0.03447
-0.03504
-0.02895
-0.02144
0.00047
0.01243
0.01414
0.01886
0.01345
0.00806
0.00525
-0.00477
-0.00512
-0.00667
-0.00853
-0.00756
-0.00327
0.00216
0.00460
0.00195
0.00577
0.00396
-0.00129
-0.00243
-0.00187
0.00242
-0.00150
-0.00212
-0.00066
0.00411
0.00188
-0.00628
-0.00478
0.00213
0.00568
0.00093
-0.00570
-0.00021
0.00375
0.00414
0.00227
0.00039
0.00019
-0.00120
-0.00631
-0.00776
-0.00227
-0.00229
0.00080
0.00424
0.01134
0.01366
0.00890
-0.00199
-0.00675
-0.01453
-0.02310
-0.02133
-0.00693
0.01661
0.02158
0.02507
0.02970
0.02902
0.00708
-0.02008
-0.04163
-0.05452
-0.05811
-0.05073
-0.01634
0.03095
0.08428
0.12792
0.15468
0.13853
0.02740
-0.19102
-0.38493
-0.40048
-0.15644
0.26019
0.53270
0.44045
0.10412
-0.18666
-0.29067
-0.24328
-0.12873
-0.01977
0.05344
0.09178
0.09366
0.07601
0.04374
0.01134
-0.01347
-0.03088
-0.03961
-0.04069
-0.02753
-0.00857
0.00744
0.01339
0.01795
0.01650
0.01005
0.00510
0.00329
0.00032
-0.00781
-0.01205
-0.00711
-0.00011
-0.00550
-0.00084
0.00551
0.00602
0.00350
-0.00483
-0.00038
0.00328
0.00513
0.00054
-0.00114
-0.00035
-0.00196
-0.00671
-0.00455
0.00132
0.00215
0.00215
-0.00053
0.00271
0.00503
0.00023
-0.00645
0.00145
0.00513
0.00177
-0.00474
-0.00334
-0.00069
-0.00016
-0.00268
-0.00616
-0.00127
0.00397
0.00854
0.00877
0.01288
0.00775
-0.01148
-0.01832
-0.02156
-0.01836
-0.00367
0.01067
0.02630
0.02448
0.02905
0.02269
0.00736
-0.01958
-0.04924
-0.06057
-0.05629
-0.03264
-0.00194
0.03829
0.08350
0.12995
0.14926
0.11450
-0.01624
-0.22467
-0.39119
-0.35009
-0.05870
0.33190
0.51853
0.34869
0.01890
-0.21613
-0.27002
-0.20734
-0.10149
-0.00054
0.06813
0.09241
0.08505
0.06625
0.03390
0.00104
-0.02113
-0.03296
-0.03453
-0.03134
-0.02266
-0.01068
0.01009
0.01911
0.01523
0.01281
0.01123
0.00725
-0.00329
-0.00788
-0.00534
-0.00551
-0.00551
-0.00467
-0.00012
0.00374
0.00040
0.00065
0.00364
0.00517
-0.00024
-0.00223
-0.00114
0.00164
0.00349
-0.00101
-0.00517
-0.00061
-0.00230
-0.00544
0.00067
0.00446
0.00439
0.00079
0.00061
0.00204
0.00293
-0.00174
-0.00417
-0.00211
0.00140
-0.00106
-0.00696
-0.00335
0.00266
0.00409
0.00360
0.00386
0.00694
0.00629
0.00087
-0.00599
-0.00823
-0.01849
-0.02214
-0.00514
0.01319
0.02379
0.02358
0.02717
0.01982
0.00461
-0.01789
-0.04095
-0.05459
-0.05433
-0.03918
-0.00852
0.03701
0.08660
0.12799
0.14337
0.10916
-0.01312
-0.21395
-0.37250
-0.33263
-0.06373
0.29687
0.47967
0.35079
0.04881
-0.19310
-0.26859
-0.21067
-0.09762
-0.00035
0.05639
0.07966
0.08263
0.06962
0.03814
0.00415
-0.01744
-0.03038
-0.03602
-0.03340
-0.01827
-0.00649
0.00207
0.00955
0.01559
0.01759
0.01442
0.00369
-0.00078
-0.00411
-0.00508
-0.00469
-0.00809
-0.00292
-0.00108
-0.00222
-0.00180
0.00270
0.00482
0.00523
0.00355
0.00435
0.00046
-0.00608
-0.00666
0.00099
0.00171
0.00090
-0.00255
-0.00624
0.00275
0.00228
0.00010
0.00141
0.00457
0.00300
-0.00322
-0.00123
0.00493
0.00051
-0.00585
-0.00605
-0.00338
-0.00179
-0.00160
0.00073
0.00368
0.01279
0.01624
0.00512
-0.00264
-0.01517
-0.02066
-0.01745
-0.01216
0.00543
0.01515
0.01705
0.02135
0.02601
0.02392
0.00589
-0.02276
-0.04423
-0.05527
-0.05314
-0.03515
-0.00169
0.03516
0.08028
0.12017
0.14293
0.11246
-0.01225
-0.20163
-0.35549
-0.33337
-0.08027
0.27540
0.46401
0.35655
0.06563
-0.17781
-0.25979
-0.20955
-0.10582
-0.01266
0.05300
0.08205
0.08539
0.06725
0.03695
0.00918
-0.01626
-0.03313
-0.03614
-0.02830
-0.01836
-0.01152
-0.00047
0.01211
0.02208
0.01656
0.00598
0.00357
0.00264
-0.00158
-0.00417
-0.00861
-0.00593
-0.00412
-0.00439
-0.00214
0.00435
0.00898
-0.00103
-0.00273
0.00499
0.00754
-0.00047
-0.00255
-0.00558
-0.00176
-0.00285
-0.00317
0.00462
0.00424
-0.00171
-0.00425
-0.00086
0.00226
0.00596
0.00359
-0.00205
-0.00302
0.00325
-0.00157
-0.00476
-0.00190
-0.00110
-0.00396
-0.00331
0.00038
0.00920
0.01347
0.00749
0.00106
-0.00169
-0.00748
-0.01953
-0.01846
-0.01229
0.00065
0.01484
0.02179
0.02627
0.02658
0.01895
0.00363
-0.02066
-0.04509
-0.06060
-0.05840
-0.03796
-0.00139
0.04384
0.09182
0.13311
0.15024
0.11386
-0.02419
-0.23052
-0.38954
-0.35010
-0.05990
0.32048
0.50945
0.36431
0.04453
-0.20789
-0.28018
-0.21595
-0.10577
-0.00493
0.05781
0.09054
0.08962
0.06931
0.04084
0.00726
-0.02017
-0.03382
-0.03743
-0.03313
-0.02136
-0.01274
0.00481
0.01594
0.01777
0.01501
0.01066
0.00939
0.00076
-0.00486
-0.00648
-0.00737
-0.00637
-0.00608
-0.00558
0.00154
0.00532
0.00033
0.00307
0.00473
0.00537
0.00359
0.00023
-0.00240
-0.00252
-0.00491
-0.01008
-0.00198
0.00428
0.00441
-0.00037
0.00229
0.00563
0.00182
-0.00061
-0.00364
-0.00217
-0.00086
-0.00004
0.00217
0.00048
-0.00130
-0.00326
-0.00346
-0.00320
-0.00040
0.00329
0.00967
0.01274
0.00765
0.00046
-0.01389
-0.01693
-0.01741
-0.01422
-0.00359
0.01320
0.02747
0.02837
0.02662
0.01776
-0.00193
-0.02591
-0.04468
-0.05415
-0.05271
-0.03359
0.00260
0.04506
0.08981
0.12612
0.14027
0.10350
-0.03471
-0.24178
-0.38024
-0.31445
-0.01149
0.34412
0.47308
0.30117
0.01185
-0.20190
-0.25828
-0.19480
-0.09093
0.00095
0.05920
0.08427
0.08482
0.06659
0.03330
0.00406
-0.01901
-0.03061
-0.03718
-0.03481
-0.02509
-0.00683
0.00966
0.01747
0.01717
0.01571
0.01019
0.00260
-0.00025
-0.00416
-0.00367
-0.00790
-0.01009
-0.00707
-0.00001
0.00359
0.00396
0.00310
0.00384
0.00491
0.00014
-0.00296
0.00024
0.00104
-0.00242
-0.00356
0.00093
-0.00056
-0.00306
-0.00391
-0.00173
0.00755
0.00755
-0.00052
-0.00243
0.00129
0.00183
-0.00036
-0.00419
-0.00272
-0.00083
-0.00103
-0.00284
-0.00215
-0.00096
0.00346
0.00868
0.00947
0.00774
0.00034
-0.00746
-0.01015
-0.01493
-0.01739
-0.01210
0.00550
0.02101
0.02550
0.02890
0.02454
0.01396
-0.01380
-0.04131
-0.05811
-0.05629
-0.03947
-0.01328
0.02915
0.07426
0.11217
0.13725
0.12084
0.01977
-0.16024
-0.32169
-0.33582
-0.14580
0.18180
0.42466
0.39094
0.13943
-0.11644
-0.24191
-0.22870
-0.13747
-0.03371
0.04003
0.07522
0.08337
0.07245
0.04820
0.01763
-0.01117
-0.02650
-0.03477
-0.03729
-0.02757
-0.01064
0.00550
0.00947
0.01269
0.01621
0.01597
0.00820
0.00049
-0.00368
-0.00378
-0.00743
-0.01000
-0.00610
-0.00255
0.00101
0.00199
0.00604
0.00489
0.00172
-0.00018
0.00202
0.00294
-0.00129
-0.00583
-0.00351
-0.00144
-0.00109
0.00120
0.00033
0.00182
0.00161
0.00171
-0.00006
-0.00063
0.00080
0.00078
-0.00297
0.00106
0.00419
-0.00047
-0.00389
-0.00496
-0.00186
-0.00318
-0.00208
0.00263
0.01250
0.01438
0.00566
-0.00492
-0.00887
-0.01154
-0.02046
-0.01489
-0.00070
0.01275
0.01890
0.02358
0.03138
0.02293
-0.00000
-0.02383
-0.04465
-0.05692
-0.05450
-0.03718
-0.00072
0.04972
0.09672
0.13151
0.14366
0.09656
-0.05040
-0.25742
-0.38089
-0.29187
0.00834
0.34810
0.47330
0.29622
-0.00727
-0.21739
-0.26110
-0.18844
-0.07996
0.01122
0.06352
0.08566
0.08093
0.06087
0.03089
-0.00027
-0.02037
-0.03305
-0.03596
-0.03025
-0.01502
-0.00411
0.00336
0.01163
0.01745
0.01637
0.00927
0.00165
0.00058
-0.00137
-0.00575
-0.00851
-0.00849
-0.00083
0.00043
-0.00202
0.00067
0.00430
0.00189
0.00073
0.00259
0.00455
0.00433
-0.00130
-0.00476
-0.00298
-0.00306
-0.00518
-0.00202
0.00303
0.00409
0.00164
-0.00025
0.00091
0.00113
0.00330
0.00153
-0.00194
-0.00074
-0.00148
-0.00359
-0.00206
0.00067
-0.00364
-0.00570
-0.00123
0.00901
0.01126
0.00802
0.00599
0.00100
-0.00575
-0.01722
-0.02228
-0.01490
-0.00257
0.01099
0.02093
0.02648
0.03085
0.02203
0.00105
-0.02206
-0.04063
-0.05332
-0.05482
-0.03703
-0.00378
0.03714
0.08010
0.12114
0.14579
0.11017
-0.01918
-0.21317
-0.35676
-0.31673
-0.05738
0.28390
0.45419
0.33283
0.04938
-0.17903
-0.25087
-0.19757
-0.10239
-0.01273
0.05366
0.08784
0.08586
0.06172
0.02965
0.00270
-0.01440
-0.02822
-0.03084
-0.02915
-0.02290
-0.01113
0.00374
0.01386
0.01897
0.01467
0.01018
0.00597
-0.00078
-0.00627
-0.01032
-0.00646
-0.00164
-0.00007
-0.00151
0.00233
0.00202
-0.00128
-0.00031
0.00014
0.00247
0.00440
0.00071
0.00023
0.00134
0.00046
-0.00262
-0.00732
-0.00346
0.00129
-0.00132
-0.00002
0.00422
0.00488
0.00408
-0.00038
-0.00087
0.00124
-0.00047
-0.00347
-0.00384
-0.00340
-0.00128
-0.00239
-0.00046
0.00472
0.00168
0.00263
0.00661
0.00882
0.00769
-0.00200
-0.01066
-0.01713
-0.02393
-0.01707
0.00130
0.02288
0.03454
0.03326
0.02282
0.00498
-0.01615
-0.03595
-0.04261
-0.04482
-0.04302
-0.02521
0.01081
0.05592
0.10368
0.13902
0.13154
0.04644
-0.11808
-0.28832
-0.34335
-0.19522
0.10998
0.37835
0.40982
0.20141
-0.06742
-0.22776
-0.23749
-0.15438
-0.04904
0.03155
0.06921
0.07728
0.06942
0.05047
0.02529
-0.00160
-0.02254
-0.03332
-0.03440
-0.03014
-0.01779
-0.00043
0.01160
0.01690
0.01621
0.01270
0.00751
0.00198
-0.00268
-0.00592
-0.00737
-0.00767
-0.00464
0.00042
0.00220
-0.00056
0.00108
0.00373
0.00440
0.00240
-0.00117
-0.00076
-0.00143
-0.00149
-0.00094
-0.00187
-0.00045
0.00007
0.00112
0.00201
0.00163
0.00180
-0.00257
-0.00351
-0.00273
0.00142
0.00186
0.00154
0.00817
0.00376
-0.00400
-0.00760
-0.00805
-0.00485
-0.00041
0.00097
0.00634
0.01373
0.01070
0.00505
-0.00128
-0.00790
-0.01687
-0.02494
-0.01922
0.00009
0.01832
0.02678
0.03214
0.02905
0.01531
-0.00503
-0.02832
-0.04466
-0.05417
-0.05479
-0.03527
0.00170
0.04844
0.09875
0.13753
0.14746
0.08939
-0.06712
-0.26199
-0.36401
-0.27206
0.01032
0.32554
0.44864
0.29885
0.01362
-0.20408
-0.26005
-0.19027
-0.08333
0.00515
0.05908
0.08337
0.08197
0.06028
0.03226
0.00439
-0.01716
-0.03086
-0.03650
-0.03284
-0.02103
-0.00663
0.00426
0.01508
0.02203
0.01711
0.00843
0.00154
-0.00137
-0.00530
-0.00882
-0.00687
-0.00253
-0.00151
-0.00200
0.00017
0.00225
0.00488
0.00206
-0.00047
0.00154
0.00370
0.00160
-0.00308
-0.00459
-0.00248
-0.00061
-0.00081
0.00099
0.00196
0.00139
-0.00109
-0.00131
0.00250
0.00288
0.00111
-0.00071
-0.00159
-0.00092
-0.00267
-0.00367
0.00110
0.00374
-0.00041
-0.00170
0.00164
0.00288
0.00135
0.00014
-0.00136
-0.00015
0.00087
-0.00275
-0.00361
-0.00111
-0.00265
-0.00273
0.00364
0.00912
0.01093
0.00502
-0.00165
-0.00599
-0.01116
-0.01796
-0.01839
-0.00465
0.01123
0.02216
0.03024
0.03303
0.02040
-0.00299
-0.02740
-0.04597
-0.05647
-0.05493
-0.03676
-0.00039
0.04945
0.09695
0.13588
0.15065
0.10090
-0.04663
-0.25784
-0.39739
-0.31621
0.00059
0.35707
0.48802
0.31857
0.00919
-0.21971
-0.27749
-0.20323
-0.08638
0.00824
0.06686
0.08936
0.08524
0.06256
0.03114
0.00245
-0.01912
-0.03246
-0.03692
-0.03201
-0.01861
-0.00560
0.00382
0.01241
0.01699
0.01538
0.01144
0.00665
0.00012
-0.00478
-0.00749
-0.00841
-0.00550
-0.00237
-0.00221
-0.00100
0.00358
0.00605
0.00180
-0.00184
0.00066
0.00401
0.00353
-0.00137
-0.00308
0.00022
-0.00120
-0.00772
-0.00613
0.00496
0.00795
0.00206
-0.00277
-0.00118
0.00271
0.00135
0.00007
0.00087
-0.00135
-0.00476
-0.00464
0.00093
0.00427
0.00254
0.00069
-0.00140
-0.00118
0.00138
0.00137
-0.00107
0.00171
0.00246
-0.00361
-0.00617
-0.00504
-0.00246
0.00409
0.01209
0.01376
0.00621
-0.00618
-0.01659
-0.01835
-0.01234
-0.00446
0.00439
0.01601
0.02745
0.03147
0.02150
0.00224
-0.02077
-0.04339
-0.05399
-0.04876
-0.03089
-0.00340
0.03445
0.08039
0.12177
0.14039
0.10161
-0.02888
-0.21627
-0.34893
-0.30196
-0.04366
0.29092
0.45542
0.32117
0.02916
-0.19249
-0.25039
-0.19045
-0.08972
-0.00076
0.05640
0.08022
0.07668
0.05811
0.03563
0.01023
-0.01692
-0.03210
-0.03479
-0.03142
-0.02017
-0.00677
0.00568
0.01297
0.01425
0.01511
0.01155
0.00516
-0.00041
-0.00419
-0.00603
-0.00616
-0.00540
-0.00460
-0.00225
0.00101
0.00225
0.00137
0.00102
0.00393
0.00539
0.00303
-0.00062
-0.00324
-0.00250
-0.00368
-0.00433
0.00051
0.00371
0.00064
-0.00043
0.00111
0.00113
0.00014
-0.00127
-0.00049
0.00263
0.00279
-0.00022
-0.00190
-0.00259
-0.00271
-0.00250
-0.00220
0.00057
0.00571
0.00562
0.00275
0.00198
-0.00165
-0.00570
-0.00491
-0.00164
-0.00036
-0.00335
-0.00252
0.00468
0.00857
0.00633
0.00538
0.00501
-0.00003
-0.00805
-0.01931
-0.02210
-0.00922
0.00591
0.01530
0.01787
0.02195
0.02834
0.01918
-0.00022
-0.02157
-0.04343
-0.05593
-0.05258
-0.03316
-0.00067
0.03863
0.08189
0.12367
0.14457
0.11051
-0.01522
-0.21176
-0.36771
-0.33853
-0.07659
0.28603
0.48933
0.37234
0.06028
-0.19736
-0.27812
-0.21527
-0.10496
-0.00728
0.05904
0.08698
0.08738
0.07052
0.04071
0.00728
-0.02280
-0.04023
-0.03911
-0.02587
-0.01378
-0.00655
0.00241
0.01076
0.01502
0.01284
0.01045
0.00679
0.00110
-0.00317
-0.00516
-0.00522
-0.00600
-0.00625
-0.00394
0.00215
0.00449
0.00228
0.00103
0.00031
0.00087
0.00222
0.00245
0.00078
0.00130
-0.00061
-0.00706
-0.00491
0.00038
0.00127
-0.00107
0.00125
0.00449
0.00280
-0.00041
-0.00009
0.00281
-0.00082
-0.00496
-0.00516
0.00064
0.00448
0.00099
-0.00252
-0.00131
0.00219
0.00283
0.00081
-0.00151
-0.00138
0.00110
0.00122
-0.00100
-0.00024
-0.00133
-0.00395
-0.00290
-0.00053
0.00329
0.00587
0.00721
0.00801
0.00324
-0.00668
-0.01670
-0.01915
-0.01022
0.00237
0.01233
0.01404
0.01390
0.02164
0.02244
0.01024
-0.01111
-0.03290
-0.04678
-0.04979
-0.03981
-0.01747
0.01886
0.06166
0.10585
0.13525
0.12203
0.03306
-0.13301
-0.30038
-0.34379
-0.17318
0.15049
0.41128
0.40488
0.15727
-0.10895
-0.23540
-0.22366
-0.13854
-0.03999
0.03617
0.07502
0.08107
0.06821
0.04442
0.01657
-0.00809
-0.02417
-0.02978
-0.02902
-0.02706
-0.01721
-0.00050
0.01174
0.01673
0.01426
0.01000
0.00661
0.00050
-0.00076
-0.00152
-0.00398
-0.00738
-0.00851
-0.00343
0.00105
0.00276
0.00043
0.00228
0.00502
0.00329
0.00020
-0.00106
-0.00002
-0.00124
-0.00179
-0.00250
-0.00148
0.00204
0.00039
-0.00148
0.00036
0.00115
-0.00017
0.00029
0.00110
0.00202
0.00225
-0.00134
-0.00267
-0.00256
-0.00148
-0.00016
0.00086
0.00127
0.00064
0.00167
0.00411
0.00368
-0.00225
-0.00755
-0.00741
-0.00302
0.00009
0.00313
0.00749
0.01158
0.01000
0.00346
-0.00497
-0.01579
-0.02222
-0.01966
-0.00392
0.01446
0.02069
0.01787
0.01644
0.02029
0.01777
-0.00005
-0.02588
-0.04514
-0.05160
-0.04868
-0.03532
-0.00405
0.04430
0.09806
0.13875
0.14849
0.10127
-0.04208
-0.25501
-0.40535
-0.33235
-0.00808
0.37205
0.51303
0.32647
0.00111
-0.23276
-0.28417
-0.20606
-0.08631
0.01294
0.06986
0.08868
0.08614
0.06241
0.02961
0.00377
-0.01486
-0.03207
-0.04034
-0.03253
-0.01896
-0.00684
0.00121
0.01227
0.01885
0.01822
0.01118
0.00493
0.00164
-0.00341
-0.00676
-0.00813
-0.00765
-0.00313
-0.00114
-0.00282
-0.00047
0.00298
0.00448
0.00521
0.00454
0.00467
0.00328
-0.00281
-0.00749
-0.00641
-0.00328
-0.00453
-0.00080
0.00701
0.00625
0.00121
0.00049
0.00184
0.00103
-0.00100
-0.00137
-0.00335
-0.00671
-0.00247
0.00098
0.00256
0.00662
0.00457
0.00231
0.00003
-0.00230
-0.00441
-0.00599
-0.00547
0.00014
0.00224
-0.00003
0.00426
0.00764
0.01180
0.00901
-0.00051
-0.01319
-0.02122
-0.02080
-0.01400
0.00420
0.02031
0.02292
0.02225
0.02350
0.01920
0.00134
-0.02529
-0.04267
-0.04929
-0.04811
-0.03563
-0.00640
0.03703
0.08179
0.11878
0.13463
0.10360
-0.00693
-0.19357
-0.34284
-0.31948
-0.08265
0.25033
0.44221
0.35525
0.08241
-0.16142
-0.25552
-0.21402
-0.11027
-0.01223
0.05084
0.07818
0.08449
0.06986
0.03743
0.00665
-0.01506
-0.02895
-0.03592
-0.03258
-0.01905
-0.00654
0.00192
0.01026
0.01500
0.01633
0.01143
0.00314
0.00137
-0.00125
-0.00466
-0.00722
-0.00879
-0.00336
-0.00122
0.00005
0.00169
0.00299
0.00438
0.00186
0.00104
0.00044
0.00178
0.00082
-0.00460
-0.00397
-0.00183
-0.00135
0.00082
0.00549
0.00530
-0.00128
-0.00493
-0.00356
0.00103
0.00051
0.00037
0.00028
0.00291
0.00221
-0.00315
-0.00094
0.00394
0.00251
-0.00209
-0.00463
-0.00501
0.00002
0.00104
-0.00104
-0.00075
0.00123
0.00604
0.00990
0.00824
0.00318
-0.00653
-0.01370
-0.01842
-0.01692
-0.00690
0.00686
0.01894
0.02357
0.02674
0.02385
0.01105
-0.00642
-0.02762
-0.05013
-0.06222
-0.05105
-0.02578
0.00965
0.06133
0.11285
0.15070
0.14970
0.06881
-0.11085
-0.31695
-0.40557
-0.25325
0.10571
0.43789
0.48501
0.23779
-0.07543
-0.25843
-0.26688
-0.17571
-0.06500
0.02426
0.07887
0.09582
0.08716
0.06227
0.02577
-0.00956
-0.03193
-0.03821
-0.03552
-0.02721
-0.01634
-0.00494
0.00969
0.01759
0.02045
0.01693
0.00693
-0.00015
-0.00556
-0.00459
-0.00322
-0.00565
-0.00741
-0.00481
0.00045
0.00326
0.00138
0.00246
0.00501
0.00425
-0.00090
-0.00301
-0.00178
0.00108
0.00100
-0.00270
-0.00047
-0.00047
-0.00136
-0.00240
0.00066
0.00236
0.00206
0.00152
0.00119
0.00360
0.00013
-0.00586
-0.00701
-0.00142
0.00194
0.00375
0.00255
0.00175
0.00376
0.00107
-0.00124
-0.00406
-0.00593
-0.00744
-0.00476
0.00535
0.01131
0.00994
0.00652
0.00269
-0.00428
-0.01026
-0.01329
-0.01530
-0.00963
0.00193
0.01200
0.01525
0.02065
0.02883
0.01997
0.00311
-0.02195
-0.04384
-0.05412
-0.05147
-0.02986
-0.00236
0.03814
0.08159
0.12500
0.14467
0.10050
-0.03348
-0.22514
-0.35285
-0.30008
-0.03845
0.29023
0.44882
0.32432
0.04401
-0.18115
-0.25714
-0.20357
-0.09738
-0.00339
0.05963
0.08210
0.08009
0.06349
0.03726
0.00918
-0.01846
-0.03735
-0.03755
-0.02695
-0.01860
-0.00700
0.00311
0.01271
0.01891
0.01534
0.00944
0.00628
-0.00163
-0.00562
-0.00681
-0.00734
-0.00567
-0.00447
-0.00135
0.00364
0.00687
0.00371
0.00099
-0.00071
-0.00174
-0.00164
-0.00065
0.00134
0.00299
0.00025
-0.00410
-0.00310
0.00167
0.00206
0.00101
0.00024
-0.00038
-0.00077
-0.00313
-0.00185
0.00345
0.00244
0.00042
-0.00013
0.00107
0.00093
-0.00119
-0.00096
0.00041
0.00131
-0.00369
-0.00585
-0.00518
-0.00041
0.00581
0.00810
0.00943
0.00895
0.00270
-0.00536
-0.01457
-0.01698
-0.01587
-0.01044
0.00450
0.01758
0.02371
0.02847
0.02605
0.01260
-0.00596
-0.03214
-0.04955
-0.05819
-0.04892
-0.02451
0.01132
0.06045
0.10817
0.13950
0.13590
0.06564
-0.10412
-0.29652
-0.37483
-0.23584
0.09641
0.40798
0.45188
0.21652
-0.07301
-0.23585
-0.24463
-0.16357
-0.05579
0.02601
0.07007
0.08275
0.07714
0.05620
0.02084
-0.00509
-0.02284
-0.03161
-0.03345
-0.02758
-0.01552
-0.00146
0.00496
0.01152
0.01467
0.01465
0.01198
0.00531
-0.00010
-0.00373
-0.00663
-0.01054
-0.00883
-0.00353
0.00053
0.00310
0.00350
0.00345
0.00386
0.00058
-0.00061
-0.00147
0.00463
0.00321
-0.00307
-0.00621
-0.00334
-0.00233
-0.00227
0.00189
0.00657
0.00448
-0.00159
-0.00050
-0.00218
0.00264
-0.00007
-0.00291
-0.00014
0.00147
-0.00351
-0.00581
0.00073
0.00786
0.00593
0.00050
-0.00135
-0.00275
-0.00113
-0.00340
-0.00413
-0.00423
-0.00195
0.00131
0.00835
0.01709
0.01271
0.00008
-0.01057
-0.01956
-0.02138
-0.01775
-0.00300
0.01579
0.02306
0.02154
0.02243
0.02686
0.01420
-0.01458
-0.04123
-0.05643
-0.05484
-0.04334
-0.02163
0.01860
0.06865
0.11560
0.14974
0.14892
0.06260
-0.13374
-0.35438
-0.42630
-0.22692
0.17622
0.49227
0.47668
0.18953
-0.11960
-0.27731
-0.26562
-0.16104
-0.04700
0.03786
0.08219
0.09487
0.08423
0.05663
0.02181
-0.00919
-0.02694
-0.03835
-0.04248
-0.03426
-0.01546
0.00790
0.01296
0.01209
0.01536
0.01624
0.00906
0.00530
0.00024
-0.00568
-0.01111
-0.01427
-0.00366
0.00100
0.00109
-0.00117
0.00474
0.00578
0.00270
-0.00192
-0.00148
0.00425
0.00111
-0.00312
0.00040
0.00113
-0.00364
-0.00237
-0.00270
0.00044
0.00193
-0.00362
-0.00301
0.00731
0.00974
0.00887
-0.00641
-0.00924
-0.00391
-0.00462
-0.00212
0.00111
0.00702
0.00493
0.00202
0.00172
0.00252
-0.00709
-0.01122
-0.01043
0.00346
0.01200
0.01315
0.01052
0.00584
-0.00249
-0.01749
-0.02585
-0.02156
-0.00149
0.01043
0.01943
0.02419
0.02997
0.02520
0.00775
-0.01427
-0.03457
-0.05175
-0.06134
-0.04667
-0.01415
0.02625
0.07000
0.11277
0.14364
0.13039
0.03015
-0.15395
-0.32184
-0.34833
-0.17122
0.15874
0.42892
0.42135
0.16224
-0.11494
-0.24841
-0.23282
-0.14105
-0.04200
0.03187
0.07600
0.08725
0.07653
0.05157
0.01875
-0.01029
-0.02955
-0.03558
-0.03564
-0.02715
-0.01138
0.00358
0.01239
0.01289
0.01087
0.01398
0.01183
0.00406
-0.00520
-0.00829
-0.00497
-0.00472
-0.00464
-0.00433
-0.00114
0.00104
0.00140
0.00444
0.00453
0.00423
0.00133
-0.00147
-0.00196
-0.00120
-0.00114
-0.00391
-0.00150
0.00069
-0.00028
0.00069
0.00220
0.00335
0.00536
-0.00162
-0.00652
-0.00478
-0.00435
0.00230
0.00582
0.00675
0.00592
-0.00157
-0.00672
-0.00580
0.00128
-0.00046
-0.00734
-0.00340
0.00199
0.00400
0.00840
0.01292
0.01078
0.00237
-0.01269
-0.01966
-0.01846
-0.01465
-0.00271
0.01154
0.01893
0.02113
0.02837
0.02337
0.01182
-0.01000
-0.03670
-0.05624
-0.06171
-0.04719
-0.01998
0.02529
0.07345
0.12317
0.15092
0.13578
0.03834
-0.15292
-0.34668
-0.39570
-0.19280
0.18944
0.47879
0.45416
0.16656
-0.13432
-0.27609
-0.25746
-0.14767
-0.03531
0.04988
0.08352
0.08843
0.07655
0.04837
0.01768
-0.01100
-0.02851
-0.03612
-0.03248
-0.02967
-0.01241
-0.00057
0.01021
0.01537
0.01490
0.01858
0.00718
0.00072
-0.00363
-0.00334
-0.00573
-0.00606
-0.00701
-0.00590
0.00015
-0.00128
0.00259
0.00676
0.00754
0.00433
-0.00214
-0.00242
-0.00146
0.00013
-0.00294
-0.00485
0.00185
0.00345
0.00061
-0.00624
-0.00077
0.00248
0.00517
0.00216
0.00004
0.00137
-0.00496
-0.00623
0.00016
0.00493
0.00361
0.00288
0.00040
-0.00209
-0.00588
-0.00407
-0.00211
0.00168
-0.00285
0.00029
0.00566
0.01704
0.01486
-0.00417
-0.00979
-0.01683
-0.01975
-0.01714
-0.00684
0.01256
0.02738
0.02672
0.02650
0.02186
0.00442
-0.01620
-0.04111
-0.06199
-0.05851
-0.03961
-0.00903
0.03770
0.08989
0.12507
0.14731
0.12243
-0.00027
-0.20554
-0.38579
-0.37100
-0.09303
0.30547
0.51194
0.37242
0.05731
-0.19211
-0.27576
-0.22179
-0.10912
-0.00543
0.05762
0.08299
0.08731
0.06997
0.03851
0.00927
-0.01781
-0.03106
-0.03205
-0.03450
-0.02466
-0.00802
-0.00137
0.01174
0.01652
0.01741
0.01631
0.00926
0.00181
-0.00647
-0.00894
-0.00948
-0.00901
-0.00317
0.00179
0.00051
0.00221
0.00213
0.00509
0.00160
0.00173
0.00067
-0.00159
-0.00044
-0.00089
-0.00378
0.00129
0.00347
-0.00103
-0.00286
-0.00491
-0.00272
0.00131
0.00628
0.00475
0.00501
-0.00087
-0.00543
-0.00706
0.00123
0.00601
-0.00054
-0.00154
0.00085
-0.00105
-0.00370
-0.00468
-0.00009
0.00203
0.00053
0.00641
0.01330
0.01133
-0.00083
-0.01363
-0.01790
-0.01432
-0.01808
-0.00516
0.01463
0.02497
0.02650
0.02804
0.02160
0.00244
-0.02006
-0.04367
-0.05729
-0.05371
-0.03859
-0.01403
0.03818
0.08874
0.12923
0.15112
0.11952
-0.00796
-0.21791
-0.38223
-0.35144
-0.07840
0.29621
0.49490
0.37078
0.06322
-0.19550
-0.27619
-0.21963
-0.10541
-0.00523
0.05617
0.08739
0.08580
0.06980
0.03786
0.00498
-0.01757
-0.02976
-0.03630
-0.03290
-0.02346
-0.00595
0.00561
0.00961
0.01440
0.01583
0.01442
0.00722
0.00021
-0.00510
-0.00357
-0.00999
-0.01012
-0.00469
0.00043
0.00437
0.00182
0.00215
0.00574
0.00211
-0.00294
-0.00016
0.00139
0.00057
-0.00156
-0.00144
-0.00266
-0.00163
-0.00141
0.00177
0.00539
0.00333
-0.00170
-0.00600
-0.00201
-0.00148
0.00266
0.00312
0.00145
0.00499
0.00006
-0.00088
-0.00137
-0.00333
-0.00485
-0.00717
-0.00310
0.00649
0.00353
0.00199
0.00800
0.01008
0.00858
-0.00325
-0.01048
-0.01469
-0.02094
-0.02051
-0.00339
0.01934
0.02774
0.03111
0.03018
0.02056
-0.00012
-0.02905
-0.05652
-0.06356
-0.05588
-0.03722
0.00676
0.05541
0.11575
0.14575
0.14927
0.09680
-0.07231
-0.29758
-0.41947
-0.29620
0.04096
0.40926
0.51377
0.29435
-0.04168
-0.24937
-0.27988
-0.19689
-0.07347
0.02206
0.07660
0.08968
0.08617
0.06003
0.03062
-0.00245
-0.02357
-0.03342
-0.03804
-0.03320
-0.01904
-0.00244
0.00654
0.01328
0.01488
0.01958
0.01600
0.00363
-0.00426
-0.00859
-0.00754
-0.00799
-0.00431
0.00128
-0.00086
-0.00254
-0.00296
0.00671
0.00774
0.00422
-0.00251
-0.00365
0.00198
0.00272
-0.00021
-0.00380
-0.00252
-0.00080
-0.00220
-0.00351
0.00385
0.00286
-0.00111
0.00029
0.00501
0.00394
-0.00131
-0.00474
-0.00204
0.00090
0.00413
-0.00339
-0.00553
0.00170
0.00038
-0.00569
-0.00408
0.00839
0.00895
0.00497
0.00326
0.00564
0.00008
-0.00911
-0.01877
-0.01798
-0.01224
-0.00159
0.01313
0.02330
0.03531
0.03261
0.01353
-0.00887
-0.02950
-0.04524
-0.05635
-0.04939
-0.02731
0.00056
0.04578
0.09497
0.13569
0.14903
0.08929
-0.07645
-0.26788
-0.35238
-0.25566
0.01516
0.32242
0.43902
0.28511
0.00648
-0.19412
-0.24973
-0.19255
-0.08798
0.00592
0.06515
0.08322
0.08218
0.05823
0.03188
0.00523
-0.02293
-0.03416
-0.03321
-0.02916
-0.01939
-0.00824
0.00691
0.01853
0.01768
0.01191
0.00774
0.00403
-0.00266
-0.00507
-0.00405
-0.00459
-0.00502
-0.00465
-0.00107
0.00289
0.00106
-0.00004
0.00253
0.00334
0.00165
0.00348
-0.00207
-0.00022
-0.00331
-0.00521
0.00179
0.00289
0.00230
-0.00317
-0.00405
0.00159
0.00328
-0.00109
-0.00107
-0.00063
0.00403
0.00327
-0.00301
0.00138
0.00549
-0.00066
-0.00723
-0.00893
-0.00508
-0.00036
0.00132
0.00470
0.01068
0.01301
0.00845
-0.00259
-0.00339
-0.01131
-0.02045
-0.01928
-0.01394
0.00465
0.01795
0.02621
0.03098
0.03064
0.01529
-0.00969
-0.03214
-0.04425
-0.05532
-0.05617
-0.03280
0.00706
0.04895
0.09568
0.13953
0.15789
0.10090
-0.07102
-0.28251
-0.39135
-0.28529
0.02554
0.35879
0.46963
0.30224
0.00300
-0.21790
-0.27328
-0.19657
-0.08501
0.00808
0.06665
0.09035
0.08544
0.05928
0.03237
0.00267
-0.01708
-0.03813
-0.03757
-0.02969
-0.01800
-0.00727
0.00529
0.01674
0.01836
0.01244
0.00693
0.00680
0.00229
-0.00426
-0.01166
-0.00577
-0.00064
-0.00098
-0.00660
-0.00140
-0.00032
0.00270
0.00509
0.00510
0.00463
0.00235
-0.00068
-0.00555
-0.00322
-0.00182
-0.00262
-0.00175
0.00332
0.00231
0.00039
-0.00097
0.00330
0.00097
-0.00084
-0.00476
-0.00168
0.00392
0.00206
0.00036
-0.00113
0.00137
0.00095
-0.00094
-0.00295
-0.00097
-0.00426
-0.00515
-0.00269
0.00513
0.01280
0.01148
0.00660
-0.00009
-0.00310
-0.01585
-0.02626
-0.01900
-0.00666
0.01104
0.02281
0.03153
0.03764
0.02638
0.00235
-0.02312
-0.04317
-0.05831
-0.06521
-0.04727
-0.01063
0.03506
0.08563
0.13433
0.16296
0.14301
0.01818
-0.21108
-0.40761
-0.40444
-0.12552
0.27771
0.52461
0.43678
0.11549
-0.18459
-0.29961
-0.25180
-0.13519
-0.02054
0.05534
0.09333
0.09841
0.07796
0.04632
0.01473
-0.01609
-0.03605
-0.04512
-0.03437
-0.02265
-0.00845
0.00367
0.00940
0.01401
0.01617
0.01716
0.01110
0.00215
-0.00715
-0.00874
-0.00511
-0.00684
-0.00611
-0.00250
0.00178
0.00276
-0.00142
-0.00013
0.00231
0.01078
0.00794
0.00009
-0.00468
-0.00727
-0.00519
-0.00609
-0.00148
0.00835
0.00809
-0.00277
-0.00611
0.00193
0.00377
-0.00160
-0.00154
0.00156
0.00066
0.00206
-0.00050
-0.00296
0.00222
0.00089
-0.00271
-0.00478
-0.00315
-0.00151
-0.00008
0.00431
0.01002
0.00925
0.00397
-0.00201
-0.00515
-0.00840
-0.01371
-0.01683
-0.01017
0.00257
0.01461
0.02556
0.03451
0.02760
0.00702
-0.01598
-0.03430
-0.04661
-0.05491
-0.04671
-0.01829
0.02251
0.06297
0.10740
0.13808
0.13027
0.03639
-0.14436
-0.30865
-0.32667
-0.16348
0.13392
0.38685
0.39830
0.17635
-0.09103
-0.23011
-0.22454
-0.13956
-0.04717
0.02692
0.06954
0.08377
0.07175
0.04508
0.02036
-0.00256
-0.02340
-0.03493
-0.03392
-0.02367
-0.01406
-0.00398
0.00713
0.01762
0.01626
0.01009
0.00768
0.00694
0.00093
-0.00550
-0.00939
-0.00923
-0.00540
-0.00540
0.00051
0.00390
0.00645
0.00130
0.00074
0.00142
0.00347
0.00280
-0.00150
-0.00312
-0.00240
-0.00235
-0.00097
-0.00033
-0.00082
-0.00235
0.00208
0.00312
0.00089
0.00485
0.00033
-0.00206
-0.00316
0.00159
0.00047
-0.00243
-0.00189
0.00373
-0.00081
-0.00491
-0.00335
0.00074
0.00247
0.00097
0.00698
0.00934
0.00564
-0.00280
-0.00634
-0.00820
-0.01280
-0.01896
-0.01412
0.00590
0.02305
0.02967
0.03509
0.02827
0.00722
-0.02509
-0.04767
-0.05903
-0.05707
-0.03904
-0.00862
0.03366
0.08512
0.12986
0.14889
0.12206
-0.00299
-0.20316
-0.36562
-0.34564
-0.09842
0.25291
0.46180
0.37732
0.10266
-0.15015
-0.25989
-0.23224
-0.13074
-0.02414
0.04958
0.08669
0.09408
0.07310
0.04127
0.00818
-0.01642
-0.03032
-0.03701
-0.03159
-0.02175
-0.00656
0.00242
0.00585
0.01347
0.01573
0.01483
0.00858
0.00233
-0.00303
-0.00542
-0.00672
-0.00951
-0.00669
-0.00099
0.00215
0.00063
0.00196
0.00483
0.00461
0.00030
-0.00034
0.00157
0.00092
-0.00368
-0.00506
-0.00090
0.00121
0.00263
0.00130
0.00020
-0.00220
-0.00281
-0.00294
0.00009
0.00478
0.00551
0.00168
-0.00072
0.00136
-0.00158
-0.00361
-0.00425
-0.00171
-0.00159
-0.00248
0.00123
0.00389
0.00308
0.00313
0.00824
0.00882
-0.00046
-0.00797
-0.01203
-0.01576
-0.01527
-0.01098
0.00450
0.02096
0.03473
0.03771
0.02501
0.00438
-0.02539
-0.04789
-0.06388
-0.06199
-0.03879
-0.00772
0.03924
0.09432
0.14237
0.16450
0.12322
-0.01661
-0.23666
-0.41096
-0.37353
-0.07402
0.33056
0.52900
0.38162
0.05602
-0.20528
-0.28902
-0.23103
-0.11506
-0.00461
0.06414
0.08941
0.08889
0.07053
0.04329
0.00971
-0.01770
-0.03523
-0.03961
-0.03446
-0.02126
-0.00597
0.00213
0.01116
0.01560
0.01763
0.01159
0.00481
0.00087
-0.00221
-0.00191
-0.00418
-0.00887
-0.01172
-0.00532
0.00458
0.00726
0.00375
-0.00086
-0.00144
-0.00000
0.00220
0.00554
0.00584
0.00206
-0.00645
-0.00807
-0.00445
-0.00346
-0.00248
0.00356
0.00632
0.00584
0.00102
-0.00118
0.00130
0.00096
-0.00184
-0.00626
-0.00188
-0.00023
0.00469
0.00181
-0.00223
-0.00314
-0.00394
-0.00170
0.00163
0.00843
0.00873
0.00553
0.00088
-0.00253
-0.00780
-0.01339
-0.01861
-0.01298
0.00167
0.01481
0.02457
0.03227
0.02802
0.01101
-0.01068
-0.03173
-0.04874
-0.05665
-0.04951
-0.02007
0.01845
0.05820
0.10390
0.14010
0.13669
0.04575
-0.12592
-0.29503
-0.33695
-0.18840
0.10369
0.36521
0.40693
0.21237
-0.05558
-0.22155
-0.23656
-0.15844
-0.06000
0.01898
0.06918
0.08739
0.07744
0.05138
0.02306
-0.00194
-0.02699
-0.03682
-0.03425
-0.02381
-0.01270
-0.00163
0.00777
0.01411
0.01305
0.01171
0.00983
0.00409
0.00167
-0.00392
-0.00906
-0.01007
-0.00669
-0.00195
0.00180
0.00427
0.00483
-0.00011
-0.00071
-0.00038
0.00210
0.00437
0.00132
-0.00099
-0.00142
-0.00396
-0.00466
0.00022
0.00148
0.00062
0.00015
0.00036
0.00256
0.00289
-0.00140
-0.00364
0.00047
0.00199
0.00125
0.00036
-0.00016
0.00205
-0.00190
-0.00545
-0.00696
-0.00205
0.00230
0.00407
0.00841
0.01027
0.00671
-0.00035
-0.00678
-0.01087
-0.01482
-0.01938
-0.01049
0.00624
0.02002
0.02810
0.03416
0.02926
0.00888
-0.02246
-0.04963
-0.05786
-0.05695
-0.04285
-0.00840
0.03915
0.08840
0.12782
0.14777
0.11513
-0.00633
-0.20389
-0.36578
-0.34410
-0.09276
0.26411
0.46830
0.37380
0.09174
-0.16342
-0.26638
-0.22624
-0.11982
-0.01625
0.04947
0.08243
0.08855
0.07334
0.04294
0.00883
-0.01609
-0.03001
-0.03621
-0.03616
-0.02151
-0.00614
0.00405
0.00899
0.01252
0.01467
0.01397
0.00940
0.00247
-0.00318
-0.00694
-0.00889
-0.00948
-0.00339
-0.00014
0.00059
0.00219
0.00541
0.00429
-0.00010
-0.00218
-0.00223
0.00278
0.00349
-0.00097
-0.00019
0.00010
-0.00333
-0.00446
-0.00364
0.00319
0.00475
0.00035
-0.00016
-0.00024
-0.00180
-0.00020
0.00325
0.00260
0.00117
0.00036
-0.00129
-0.00325
-0.00255
-0.00431
-0.00360
-0.00028
0.00082
0.00324
0.00798
0.00902
0.00798
0.00427
-0.00707
-0.01324
-0.01657
-0.01666
-0.01052
0.00114
0.01541
0.02810
0.03575
0.03018
0.01208
-0.01345
-0.03855
-0.05766
-0.06122
-0.04881
-0.01964
0.02343
0.07135
0.11914
0.14856
0.13938
0.05155
-0.13775
-0.34740
-0.40834
-0.20666
0.17794
0.47583
0.45987
0.18066
-0.12351
-0.27414
-0.25821
-0.15264
-0.03984
0.03894
0.08273
0.09288
0.07983
0.05392
0.01778
-0.01308
-0.03029
-0.03687
-0.03444
-0.02726
-0.01255
0.00453
0.01141
0.01021
0.01082
0.01412
0.01151
0.00468
-0.00039
-0.00401
-0.00537
-0.00827
-0.01050
-0.00480
-0.00034
0.00078
0.00356
0.00549
0.00556
0.00419
0.00134
-0.00011
-0.00071
-0.00520
-0.00820
-0.00297
0.00596
0.00718
0.00030
-0.00428
-0.00288
-0.00237
-0.00171
0.00197
0.00538
0.00576
0.00165
-0.00279
-0.00182
-0.00016
-0.00178
-0.00350
-0.00363
-0.00095
-0.00069
-0.00148
0.00154
0.00680
0.00878
0.00639
0.00364
0.00139
-0.00649
-0.01804
-0.02040
-0.01283
-0.00219
0.00973
0.02379
0.03463
0.03262
0.01472
-0.00815
-0.02960
-0.04544
-0.05194
-0.04516
-0.02621
0.00075
0.04221
0.08737
0.12683
0.14161
0.08437
-0.06586
-0.24551
-0.33317
-0.24650
0.00447
0.29279
0.41485
0.27961
0.01693
-0.18112
-0.23574
-0.18111
-0.08605
0.00012
0.05700
0.08001
0.07595
0.05647
0.03093
0.00460
-0.01806
-0.03149
-0.02934
-0.02489
-0.02055
-0.01022
0.00360
0.01465
0.01627
0.01324
0.00816
0.00568
0.00116
-0.00365
-0.00683
-0.00508
-0.00490
-0.00602
-0.00395
0.00053
0.00599
0.00339
0.00165
0.00203
0.00347
0.00091
-0.00316
-0.00150
0.00075
-0.00160
-0.00228
-0.00112
-0.00144
-0.00014
0.00106
0.00295
0.00257
0.00047
-0.00168
-0.00133
-0.00110
0.00109
0.00226
-0.00068
0.00179
0.00182
-0.00323
-0.00580
-0.00315
0.00009
-0.00070
-0.00023
0.00659
0.01224
0.00758
-0.00025
-0.00447
-0.00805
-0.01305
-0.01737
-0.01443
-0.00088
0.01475
0.02597
0.03455
0.03252
0.01316
-0.01183
-0.03690
-0.05451
-0.05831
-0.04914
-0.02392
0.01859
0.06939
0.11127
0.14076
0.13712
0.05425
-0.12229
-0.31194
-0.37042
-0.21166
0.11642
0.40882
0.44010
0.21093
-0.07290
-0.23722
-0.24822
-0.16400
-0.05753
0.02406
0.07056
0.08960
0.08209
0.05392
0.02230
-0.00462
-0.02588
-0.03637
-0.03376
-0.02541
-0.01482
-0.00298
0.00467
0.01165
0.01744
0.01794
0.01173
0.00300
-0.00231
-0.00577
-0.00759
-0.00793
-0.00534
-0.00294
-0.00173
0.00051
0.00334
0.00449
0.00397
0.00211
0.00138
0.00182
-0.00188
-0.00256
-0.00060
-0.00128
-0.00212
-0.00295
-0.00061
0.00311
0.00190
-0.00086
-0.00150
0.00046
0.00314
0.00126
-0.00034
0.00240
0.00139
-0.00195
-0.00304
-0.00249
-0.00009
-0.00069
-0.00346
-0.00284
-0.00042
0.00171
0.00638
0.01083
0.00960
0.00430
-0.00602
-0.01241
-0.01331
-0.01699
-0.01417
-0.00283
0.01146
0.02596
0.03550
0.03320
0.02021
-0.00341
-0.03686
-0.06067
-0.06310
-0.05045
-0.02645
0.01235
0.06278
0.11098
0.14284
0.14422
0.07803
-0.09023
-0.30357
-0.41006
-0.27054
0.08917
0.42670
0.48184
0.24800
-0.05901
-0.24786
-0.26922
-0.18108
-0.06263
0.02627
0.07181
0.08907
0.08341
0.06105
0.02918
-0.00351
-0.02592
-0.03755
-0.04092
-0.03330
-0.01567
0.00335
0.01335
0.01510
0.01317
0.01068
0.00898
0.00452
-0.00140
-0.00308
-0.00536
-0.00871
-0.00640
-0.00191
0.00148
0.00061
-0.00221
0.00047
0.00398
0.00354
0.00199
0.00430
0.00546
0.00009
-0.00708
-0.00894
-0.00305
0.00066
0.00018
0.00112
0.00440
0.00337
-0.00112
-0.00100
0.00156
0.00152
-0.00138
-0.00267
-0.00046
0.00222
0.00242
0.00001
-0.00249
-0.00466
-0.00613
-0.00372
0.00285
0.00906
0.00965
0.00706
0.00290
-0.00077
-0.00518
-0.01327
-0.01875
-0.01686
-0.00621
0.00946
0.02415
0.03457
0.03416
0.01718
-0.00627
-0.02734
-0.04538
-0.05795
-0.05490
-0.02872
0.00861
0.04842
0.09184
0.13188
0.14284
0.08130
-0.07130
-0.25325
-0.34786
-0.25689
0.01622
0.31645
0.42890
0.28251
0.01154
-0.19370
-0.24768
-0.18760
-0.08511
0.00410
0.05993
0.08427
0.08087
0.05780
0.03132
0.00521
-0.01944
-0.03398
-0.03556
-0.02834
-0.01809
-0.00578
0.00551
0.01385
0.01596
0.01222
0.00875
0.00693
0.00309
-0.00442
-0.01026
-0.00717
-0.00321
-0.00417
-0.00331
0.00127
0.00424
0.00299
0.00009
0.00065
0.00476
0.00490
0.00091
-0.00249
-0.00430
-0.00475
-0.00505
-0.00005
0.00588
0.00336
-0.00153
-0.00055
0.00117
-0.00100
-0.00260
-0.00153
0.00486
0.00545
0.00009
-0.00268
-0.00030
0.00106
-0.00291
-0.00784
-0.00609
0.00081
0.00328
0.00456
0.00850
0.01022
0.00543
-0.00136
-0.00613
-0.00963
-0.01666
-0.01794
-0.01073
0.00563
0.02019
0.02647
0.03034
0.02658
0.01151
-0.01278
-0.03774
-0.05692
-0.06269
-0.05004
-0.01782
0.02802
0.07861
0.12337
0.15190
0.13478
0.02774
-0.16604
-0.34814
-0.37724
-0.16841
0.19285
0.45634
0.43096
0.16666
-0.11873
-0.26701
-0.25300
-0.14959
-0.04182
0.03859
0.08301
0.09749
0.08203
0.04782
0.01537
-0.01033
-0.02947
-0.03945
-0.03665
-0.02338
-0.01021
-0.00147
0.00837
0.01470
0.01699
0.01545
0.00870
0.00245
-0.00243
-0.00502
-0.00814
-0.00848
-0.00335
-0.00250
-0.00180
0.00059
0.00331
0.00374
0.00241
0.00183
0.00136
0.00317
0.00260
-0.00362
-0.00531
-0.00080
-0.00091
-0.00356
-0.00155
0.00278
0.00330
0.00052
0.00071
0.00302
0.00068
-0.00262
-0.00194
0.00097
-0.00080
-0.00162
-0.00240
0.00036
0.00713
0.00461
-0.00138
-0.00471
-0.00555
-0.00484
-0.00538
0.00054
0.01082
0.01394
0.00829
-0.00070
-0.00393
-0.00743
-0.01340
-0.01783
-0.01395
-0.00130
0.01223
0.02489
0.03454
0.03032
0.01302
-0.01022
-0.03270
-0.04960
-0.05723
-0.04967
-0.02383
0.01565
0.06034
0.10608
0.13934
0.13887
0.06518
-0.10938
-0.31020
-0.38420
-0.22787
0.12036
0.42520
0.45300
0.20534
-0.09374
-0.24635
-0.24121
-0.15354
-0.05346
0.02488
0.06926
0.08501
0.07715
0.05501
0.02722
-0.00003
-0.02322
-0.03811
-0.03954
-0.03067
-0.01803
-0.00449
0.00936
0.02016
0.02105
0.01459
0.01165
0.00286
-0.00497
-0.00834
-0.00907
-0.00594
-0.00649
-0.00603
-0.00077
0.00568
0.00761
0.00569
0.00199
-0.00018
-0.00140
-0.00230
-0.00130
0.00078
0.00042
-0.00186
-0.00305
0.00027
0.00163
-0.00013
-0.00233
0.00027
0.00538
0.00298
-0.00081
-0.00411
-0.00125
0.00028
-0.00042
0.00004
0.00079
0.00145
0.00152
0.00088
-0.00038
-0.00205
-0.00358
-0.00459
-0.00313
0.00221
0.00564
0.00934
0.00833
0.00429
-0.00308
-0.00983
-0.01386
-0.01622
-0.01110
-0.00201
0.01062
0.02474
0.03283
0.02884
0.01294
-0.00760
-0.03050
-0.05032
-0.05782
-0.04711
-0.02205
0.01319
0.05679
0.10151
0.13752
0.13531
0.05837
-0.10208
-0.28405
-0.35699
-0.22142
0.08336
0.37223
0.43146
0.23111
-0.04931
-0.22440
-0.24644
-0.16731
-0.06392
0.02234
0.07179
0.08363
0.07648
0.05273
0.02742
-0.00332
-0.02550
-0.03329
-0.03113
-0.02559
-0.02074
-0.00433
0.00879
0.01532
0.01525
0.01261
0.01034
0.00581
-0.00059
-0.00470
-0.00721
-0.00764
-0.00876
-0.00819
0.00123
0.00830
0.00569
0.00010
0.00221
0.00262
0.00100
-0.00225
-0.00246
0.00175
-0.00108
-0.00218
-0.00268
-0.00116
0.00173
0.00135
0.00373
0.00169
-0.00109
-0.00210
-0.00408
-0.00138
0.00169
0.00265
0.00190
0.00154
0.00200
0.00033
-0.00259
-0.00065
-0.00229
-0.00473
-0.00590
-0.00294
0.00503
0.00667
0.00744
0.00902
0.00886
0.00056
-0.00983
-0.01764
-0.01913
-0.01704
-0.00745
0.01066
0.02637
0.03720
0.03294
0.01861
-0.00034
-0.02407
-0.04862
-0.06263
-0.05727
-0.03713
-0.00315
0.04215
0.09377
0.13989
0.15738
0.11222
-0.02463
-0.23520
-0.39988
-0.35857
-0.06130
0.33466
0.52130
0.36455
0.04179
-0.20746
-0.28572
-0.22524
-0.10876
-0.00241
0.06878
0.09498
0.08736
0.06898
0.03834
0.00279
-0.02552
-0.03684
-0.03168
-0.02618
-0.02036
-0.00641
0.00795
0.00953
0.00683
0.00680
0.01397
0.01417
0.00735
0.00001
-0.00770
-0.01063
-0.00979
-0.00714
-0.00148
0.00161
0.00005
0.00138
0.00535
0.00869
0.00381
0.00117
-0.00208
-0.00186
-0.00256
-0.00873
-0.00480
0.00139
0.00435
0.00304
0.00207
0.00452
0.00232
-0.00138
-0.00514
-0.00716
-0.00161
0.00188
0.00233
0.00499
0.00482
-0.00035
-0.00183
-0.00018
-0.00261
-0.00171
-0.00549
-0.00499
0.00074
0.00176
0.00384
0.00889
0.01103
0.00515
0.00019
-0.00948
-0.01346
-0.01759
-0.01723
-0.00592
0.01016
0.02475
0.03107
0.03064
0.01815
-0.00101
-0.02357
-0.04496
-0.05542
-0.05079
-0.03444
-0.00295
0.04320
0.09049
0.12749
0.13953
0.09191
-0.04114
-0.22979
-0.34734
-0.27749
-0.02434
0.27839
0.42868
0.31638
0.04688
-0.17738
-0.25240
-0.19780
-0.09368
-0.00525
0.05469
0.08063
0.07999
0.06613
0.03575
0.00454
-0.01933
-0.03131
-0.03516
-0.02792
-0.01845
-0.00697
0.00265
0.00791
0.01714
0.02032
0.01263
0.00152
-0.00392
-0.00412
-0.00359
-0.00503
-0.00537
-0.00413
-0.00113
-0.00192
0.00022
0.00416
0.00578
0.00447
-0.00131
-0.00205
0.00173
0.00067
-0.00226
-0.00395
-0.00021
0.00110
-0.00185
-0.00027
0.00303
0.00217
-0.00191
-0.00257
0.00078
0.00199
-0.00020
-0.00229
0.00134
0.00661
0.00011
-0.00318
-0.00159
-0.00189
-0.00091
-0.00218
-0.00372
-0.00243
-0.00055
0.00489
0.00952
0.01224
0.00782
-0.00118
-0.00914
-0.01439
-0.01750
-0.02007
-0.01020
0.00823
0.02567
0.03336
0.03323
0.02617
0.00573
-0.02509
-0.04659
-0.05655
-0.05446
-0.04227
-0.01426
0.03253
0.08305
0.12526
0.14445
0.12940
0.01850
-0.18477
-0.35885
-0.36543
-0.13624
0.22537
0.46506
0.40797
0.13534
-0.14024
-0.26815
-0.24697
-0.14099
-0.02646
0.05038
0.08668
0.09265
0.07688
0.04321
0.01000
-0.01387
-0.03100
-0.03825
-0.03432
-0.02299
-0.00578
0.00304
0.01049
0.01330
0.01347
0.00997
0.00751
0.00557
-0.00141
-0.00744
-0.00799
-0.00327
-0.00325
-0.00230
-0.00403
-0.00368
0.00207
0.00852
0.00446
0.00159
0.00113
0.00323
-0.00125
-0.00375
-0.00233
-0.00212
-0.00090
-0.00330
0.00104
0.00054
0.00357
0.00130
-0.00036
0.00187
-0.00027
-0.00176
-0.00152
0.00095
0.00009
0.00097
0.00066
0.00185
0.00226
-0.00370
-0.00619
-0.00289
0.00166
-0.00028
-0.00322
0.00195
0.01026
0.01242
0.00544
-0.00317
-0.00403
-0.01100
-0.01945
-0.01932
-0.00695
0.01038
0.01646
0.02425
0.03302
0.03185
0.01158
-0.01902
-0.04459
-0.05828
-0.06203
-0.04545
-0.01337
0.03251
0.08234
0.12135
0.15085
0.13527
0.02857
-0.17802
-0.37908
-0.39164
-0.14422
0.24000
0.49782
0.42852
0.12481
-0.16518
-0.28750
-0.24228
-0.12566
-0.02365
0.04571
0.08523
0.09597
0.07738
0.04165
0.01283
-0.01058
-0.03203
-0.04115
-0.03653
-0.02445
-0.01029
0.00205
0.01413
0.01965
0.01599
0.01057
0.00807
0.00170
-0.00441
-0.00772
-0.01035
-0.00561
-0.00142
-0.00136
-0.00330
0.00196
0.00955
0.00401
-0.00286
-0.00039
0.00218
0.00134
0.00043
-0.00325
0.00148
0.00052
-0.00672
-0.00558
0.00295
0.00358
-0.00035
0.00301
0.00342
0.00200
-0.00167
-0.00356
-0.00307
0.00199
-0.00024
-0.00148
0.00172
0.00290
0.00097
-0.00141
-0.00251
-0.00319
-0.00301
-0.00415
0.00210
0.01080
0.01248
0.00575
-0.00068
-0.00683
-0.01177
-0.02140
-0.02118
-0.00172
0.01635
0.02154
0.02821
0.03207
0.01977
-0.00103
-0.03172
-0.04628
-0.05004
-0.05220
-0.03427
0.00001
0.04660
0.09225
0.12942
0.14385
0.09266
-0.05293
-0.24804
-0.35640
-0.27733
-0.00955
0.31144
0.44807
0.30072
0.02188
-0.18902
-0.25394
-0.19480
-0.09401
-0.00066
0.05891
0.08858
0.08694
0.05960
0.02890
0.00279
-0.01913
-0.03262
-0.03398
-0.02811
-0.01508
-0.00795
0.00221
0.01123
0.01817
0.01356
0.00622
0.00500
0.00675
0.00063
-0.01094
-0.01175
-0.00631
-0.00080
-0.00081
0.00220
0.00354
0.00199
0.00013
-0.00066
-0.00098
0.00395
0.00488
-0.00147
-0.00198
0.00219
-0.00193
-0.00542
-0.00329
0.00009
0.00272
0.00070
0.00092
0.00205
0.00053
-0.00282
-0.00119
0.00453
0.00401
-0.00128
-0.00085
-0.00153
-0.00268
-0.00020
-0.00303
-0.00488
0.00173
0.00103
-0.00240
0.00163
0.01311
0.01412
0.00382
-0.00492
-0.01079
-0.01341
-0.02255
-0.01897
-0.00086
0.01986
0.02669
0.03299
0.03341
0.01507
-0.00752
-0.03281
-0.05012
-0.05728
-0.05647
-0.03776
0.00659
0.06015
0.10961
0.14421
0.15667
0.09379
-0.07542
-0.29510
-0.42139
-0.30692
0.03938
0.41268
0.52408
0.30326
-0.03323
-0.25883
-0.29220
-0.19833
-0.07407
0.02238
0.07439
0.09717
0.08872
0.06047
0.02501
-0.00024
-0.02171
-0.03722
-0.04040
-0.02925
-0.01327
-0.00409
0.00472
0.01275
0.01354
0.01487
0.01185
0.00639
0.00327
-0.00584
-0.00894
-0.00789
-0.00447
-0.00229
0.00031
-0.00493
0.00045
0.00501
0.00165
0.00285
0.00171
0.00529
0.00658
-0.00303
-0.00425
-0.00361
-0.00621
-0.00599
-0.00209
0.00812
0.00386
0.00025
0.00306
0.00316
-0.00020
-0.00451
-0.00482
-0.00061
0.00146
0.00415
0.00210
-0.00038
0.00172
-0.00159
-0.00487
-0.00753
-0.00404
0.00136
0.00373
0.00852
0.01369
0.01050
-0.00499
-0.00673
-0.01005
-0.01367
-0.01647
-0.01568
0.00502
0.01714
0.02474
0.02816
0.02747
0.01774
-0.00749
-0.03770
-0.05205
-0.05589
-0.04479
-0.02012
0.01189
0.05514
0.09963
0.13552
0.13980
0.07020
-0.09879
-0.29408
-0.36999
-0.22638
0.08580
0.38049
0.44415
0.23434
-0.05516
-0.23552
-0.25088
-0.16495
-0.05903
0.02605
0.06980
0.08703
0.07787
0.05061
0.01901
-0.00312
-0.02088
-0.03017
-0.03749
-0.02806
-0.01241
-0.00140
0.00919
0.01089
0.01458
0.00968
0.00820
0.00597
0.00455
-0.00167
-0.00998
-0.01050
-0.00662
-0.00249
-0.00050
-0.00200
0.00354
0.00761
0.00501
0.00094
0.00047
0.00333
-0.00016
-0.00584
-0.00798
-0.00276
0.00132
0.00292
0.00441
0.00426
0.00059
-0.00361
-0.00483
-0.00076
0.00212
0.00031
-0.00278
0.00365
0.00796
0.00071
-0.00458
-0.00214
-0.00304
-0.00097
-0.00169
-0.00341
-0.00203
-0.00062
0.00421
0.00923
0.01684
0.00753
-0.00338
-0.01251
-0.01747
-0.02035
-0.02035
-0.00265
0.01552
0.02954
0.03803
0.03368
0.01577
-0.00823
-0.03102
-0.05255
-0.05951
-0.05175
-0.03363
0.00549
0.05440
0.10152
0.13414
0.15090
0.09999
-0.06385
-0.27672
-0.39292
-0.29350
0.01521
0.36583
0.48900
0.29981
-0.01070
-0.22055
-0.26973
-0.19772
-0.08583
0.01358
0.06852
0.08766
0.08568
0.06060
0.03210
-0.00099
-0.02204
-0.03256
-0.03705
-0.02759
-0.01741
-0.00549
0.00534
0.00763
0.01627
0.01610
0.01423
0.00631
-0.00008
-0.00528
-0.00747
-0.00855
-0.00746
-0.00206
-0.00120
0.00217
-0.00009
0.00440
0.00323
0.00395
-0.00062
0.00186
-0.00092
-0.00193
0.00133
-0.00409
-0.00061
-0.00072
-0.00150
0.00025
0.00276
-0.00027
-0.00076
0.00007
-0.00036
0.00136
0.00167
-0.00142
0.00267
0.00188
0.00154
0.00009
-0.00183
-0.00486
-0.00781
-0.00560
-0.00181
0.00372
0.00701
0.01251
0.01053
0.00961
-0.00040
-0.01145
-0.01847
-0.01842
-0.01558
-0.01195
0.00875
0.02411
0.02596
0.03163
0.02931
0.01229
-0.00852
-0.03801
-0.06253
-0.06666
-0.05211
-0.02260
0.01986
0.07334
0.12356
0.15197
0.15243
0.07502
-0.11998
-0.35495
-0.45299
-0.27143
0.15396
0.51696
0.52089
0.21961
-0.11440
-0.29518
-0.28840
-0.17385
-0.04985
0.04282
0.08463
0.09662
0.08566
0.06217
0.02579
-0.00812
-0.03060
-0.04178
-0.04059
-0.03146
-0.01782
0.00114
0.01192
0.01398
0.02054
0.01488
0.01089
0.00365
0.00073
-0.00280
-0.01163
-0.01614
-0.00778
0.00339
0.00034
-0.00098
0.00249
0.00775
0.00799
0.00063
-0.00646
-0.00107
0.00425
0.00133
-0.00251
-0.00555
-0.00122
0.00124
0.00060
-0.00080
0.00173
0.00050
-0.00312
-0.00127
0.00102
0.00417
0.00274
0.00095
0.00318
0.00307
-0.00456
-0.00590
-0.00514
-0.00290
-0.00242
-0.00401
-0.00066
0.00692
0.01522
0.01263
0.00607
0.00068
-0.00701
-0.01938
-0.02219
-0.01484
-0.00766
0.00656
0.01642
0.02931
0.03659
0.02886
0.01114
-0.01928
-0.04290
-0.05711
-0.05671
-0.04030
-0.01071
0.02302
0.06666
0.10932
0.14205
0.13336
0.02888
-0.15169
-0.31841
-0.34129
-0.16304
0.15376
0.41075
0.40788
0.16875
-0.10289
-0.24239
-0.23576
-0.14532
-0.03812
0.03777
0.07788
0.08483
0.06943
0.04551
0.01696
-0.00807
-0.02965
-0.03518
-0.02552
-0.02287
-0.01608
0.00151
0.01193
0.01359
0.01118
0.01021
0.00735
0.00376
-0.00361
-0.00454
-0.00285
-0.00480
-0.00490
-0.00533
0.00440
0.00203
-0.00131
-0.00261
-0.00003
0.00464
0.00353
0.00472
0.00025
-0.00205
-0.00154
-0.00281
-0.00015
-0.00019
-0.00568
-0.00260
0.00146
0.00595
0.00297
-0.00179
-0.00080
0.00379
0.00232
-0.00385
-0.00381
0.00529
0.00177
-0.00334
-0.00396
-0.00449
0.00015
-0.00400
-0.00206
0.00181
0.01567
0.01481
0.00676
-0.00113
-0.01014
-0.01538
-0.02274
-0.01848
-0.00687
0.01186
0.01978
0.02750
0.04000
0.03091
0.00443
-0.02403
-0.04385
-0.05659
-0.06184
-0.04754
-0.01165
0.03192
0.07803
0.12542
0.15372
0.13760
0.02649
-0.18367
-0.36720
-0.37133
-0.15031
0.20679
0.47146
0.43291
0.14745
-0.14265
-0.27540
-0.24303
-0.13835
-0.03450
0.04169
0.08633
0.09122
0.07361
0.04743
0.01796
-0.00746
-0.03174
-0.03751
-0.03626
-0.02295
-0.01439
-0.00359
0.01118
0.01686
0.01891
0.01427
0.00718
0.00409
-0.00013
-0.00849
-0.01016
-0.00650
-0.00525
-0.00529
0.00170
0.00385
0.00359
0.00233
-0.00108
0.00380
0.00425
0.00304
-0.00060
-0.00538
0.00025
-0.00476
-0.00348
-0.00017
0.00159
0.00308
0.00005
-0.00239
0.00025
0.00379
-0.00027
0.00169
0.00308
0.00050
-0.00163
-0.00314
-0.00547
0.00071
0.00348
0.00030
-0.00266
-0.00390
-0.00349
-0.00022
0.00517
0.01321
0.01360
0.00009
-0.00187
-0.00848
-0.01796
-0.02103
-0.01819
0.00025
0.01635
0.02505
0.03228
0.03618
0.01879
-0.00622
-0.03348
-0.05107
-0.05743
-0.05736
-0.03433
0.00562
0.05496
0.10265
0.14264
0.15415
0.10264
-0.06396
-0.29132
-0.42563
-0.30985
0.04865
0.41531
0.50776
0.28080
-0.04188
-0.24117
-0.27055
-0.19070
-0.07584
0.01357
0.07066
0.09374
0.08902
0.05886
0.02798
0.00025
-0.02038
-0.03826
-0.04185
-0.02862
-0.01551
-0.00304
0.00755
0.01486
0.01300
0.01277
0.01048
0.00764
0.00084
-0.00444
-0.00749
-0.00556
-0.00493
-0.00608
-0.00392
-0.00244
0.00289
0.00616
0.00368
-0.00027
0.00423
0.00871
0.00006
-0.00427
-0.00534
-0.00297
-0.00313
-0.00614
0.00118
0.00450
0.00350
0.00189
0.00155
-0.00010
-0.00077
0.00155
-0.00306
-0.00294
0.00390
0.00302
0.00014
-0.00234
-0.00204
-0.00336
-0.00600
-0.00282
0.00271
0.00372
0.00746
0.01136
0.00966
0.00163
-0.00986
-0.01450
-0.01404
-0.01564
-0.01310
0.00128
0.01901
0.03257
0.03283
0.02399
0.01110
-0.01123
-0.04044
-0.05538
-0.05735
-0.04143
-0.01551
0.01595
0.06477
0.11304
0.14122
0.13159
0.04367
-0.13677
-0.31107
-0.35539
-0.18597
0.14181
0.40403
0.40998
0.18653
-0.08033
-0.23444
-0.23984
-0.15445
-0.04739
0.03193
0.07205
0.08270
0.07311
0.05177
0.02021
-0.00501
-0.02220
-0.03167
-0.03356
-0.03185
-0.01820
-0.00155
0.00868
0.01522
0.02124
0.01762
0.01059
0.00012
-0.00738
-0.00671
-0.00968
-0.00610
-0.00201
-0.00288
0.00044
0.00250
0.00305
0.00557
0.00404
-0.00058
-0.00291
-0.00222
0.00180
0.00101
-0.00302
-0.00078
0.00075
0.00032
-0.00125
-0.00346
0.00212
0.00382
-0.00027
-0.00186
-0.00109
0.00259
0.00064
-0.00154
0.00059
0.00512
0.00139
-0.00433
-0.00006
-0.00243
-0.00924
-0.00654
-0.00108
0.00740
0.01274
0.01228
0.00908
0.00259
-0.00574
-0.01771
-0.02174
-0.02066
-0.01009
0.00832
0.02037
0.02795
0.03355
0.02955
0.01016
-0.01424
-0.03421
-0.05257
-0.05841
-0.05068
-0.02746
0.01136
0.05955
0.11168
0.15318
0.15927
0.07536
-0.11109
-0.32356
-0.41031
-0.26318
0.09440
0.43782
0.49134
0.25310
-0.06104
-0.25321
-0.27681
-0.18979
-0.06876
0.02542
0.07854
0.09742
0.08650
0.06115
0.03047
-0.00572
-0.03180
-0.03809
-0.03376
-0.02993
-0.01896
-0.00615
0.00588
0.01729
0.01963
0.01895
0.01506
0.00464
-0.00496
-0.01046
-0.01177
-0.00927
-0.00372
0.00038
0.00095
0.00519
0.00386
0.00114
-0.00083
-0.00119
-0.00068
0.00162
0.00424
0.00442
0.00259
-0.00604
-0.00741
-0.00412
-0.00187
0.00286
0.00071
0.00089
0.00363
0.00191
0.00374
0.00287
-0.00248
-0.00649
-0.00282
0.00070
0.00548
0.00430
-0.00456
-0.00635
-0.00223
-0.00209
-0.00323
0.00278
0.00819
0.00800
0.00632
0.00606
0.00116
-0.00575
-0.01523
-0.01942
-0.01310
-0.00574
0.00207
0.01558
0.02807
0.03338
0.02670
0.00778
-0.01386
-0.03661
-0.05020
-0.05218
-0.04038
-0.01767
0.01330
0.05450
0.10035
0.13626
0.13563
0.05478
-0.11614
-0.29128
-0.34405
-0.20017
0.09671
0.37475
0.41703
0.20958
-0.06211
-0.22243
-0.23704
-0.16228
-0.05563
0.02945
0.07261
0.08036
0.07167
0.05058
0.02372
-0.00523
-0.02407
-0.03197
-0.03336
-0.02863
-0.01510
0.00038
0.01124
0.01712
0.01266
0.00946
0.00774
0.00101
-0.00155
-0.00215
-0.00369
-0.00577
-0.00960
-0.00411
0.00180
0.00438
0.00248
0.00039
0.00219
0.00263
0.00192
-0.00120
-0.00188
0.00007
-0.00212
-0.00029
0.00231
-0.00042
-0.00179
-0.00213
-0.00244
0.00249
0.00240
-0.00113
-0.00048
0.00076
0.00554
0.00266
-0.00049
-0.00114
-0.00310
-0.00425
-0.00298
-0.00277
-0.00041
-0.00173
-0.00112
0.00757
0.01076
0.00996
0.00375
0.00051
-0.00717
-0.01355
-0.01774
-0.01900
-0.00821
0.00623
0.01757
0.02544
0.03739
0.03431
0.00794
-0.02076
-0.04108
-0.05426
-0.05560
-0.04375
-0.01529
0.02180
0.06322
0.10492
0.14103
0.14005
0.04867
-0.13363
-0.31370
-0.35362
-0.19261
0.12111
0.39683
0.42527
0.20126
-0.07387
-0.23174
-0.24097
-0.16055
-0.05778
0.02637
0.07275
0.08812
0.07596
0.05171
0.02300
-0.00306
-0.02467
-0.03694
-0.03485
-0.02383
-0.01544
-0.00528
0.00854
0.01588
0.01507
0.01309
0.01131
0.00490
-0.00107
-0.00597
-0.00835
-0.00990
-0.00637
-0.00232
0.00132
0.00671
0.00449
-0.00243
-0.00324
0.00296
0.00550
0.00287
-0.00115
-0.00057
-0.00078
-0.00297
-0.00508
-0.00141
0.00287
-0.00081
0.00008
0.00110
0.00206
0.00214
0.00052
-0.00040
0.00033
-0.00039
-0.00201
-0.00274
0.00186
0.00394
0.00107
-0.00158
-0.00452
-0.00225
-0.00500
-0.00380
0.00084
0.00829
0.01368
0.01297
0.00840
-0.00457
-0.01846
-0.02648
-0.02300
-0.00847
0.00828
0.01806
0.02863
0.03844
0.03493
0.01016
-0.02020
-0.04341
-0.05692
-0.05860
-0.04812
-0.01557
0.02395
0.06829
0.11395
0.14956
0.14595
0.04214
-0.15310
-0.33748
-0.36960
-0.17923
0.15487
0.42125
0.42906
0.19689
-0.08774
-0.25393
-0.25587
-0.15927
-0.04821
0.03451
0.07918
0.09293
0.07948
0.05013
0.01941
-0.00696
-0.02861
-0.04050
-0.03466
-0.02212
-0.01309
-0.00074
0.00919
0.01445
0.01550
0.01127
0.00880
0.00407
-0.00104
-0.00387
-0.00746
-0.00654
-0.00504
-0.00567
-0.00116
0.00237
0.00271
0.00177
0.00275
0.00402
0.00378
0.00264
-0.00020
-0.00437
-0.00457
-0.00281
-0.00352
0.00048
0.00398
0.00089
0.00004
0.00175
0.00090
0.00130
-0.00275
-0.00169
0.00188
0.00094
-0.00121
0.00100
0.00600
0.00115
-0.00591
-0.00845
-0.00472
-0.00141
-0.00062
0.00316
0.01219
0.01512
0.00725
-0.00078
-0.00768
-0.01151
-0.01696
-0.02175
-0.01397
0.00626
0.01968
0.02606
0.03383
0.02947
0.01398
-0.01194
-0.03492
-0.04986
-0.05829
-0.05328
-0.02896
0.01512
0.06197
0.10712
0.14144
0.14490
0.07150
-0.10333
-0.29799
-0.37477
-0.23733
0.07674
0.37250
0.44454
0.25927
-0.02718
-0.22645
-0.26268
-0.18329
-0.07254
0.01601
0.07061
0.09231
0.08475
0.05887
0.02546
-0.00311
-0.02672
-0.03733
-0.03577
-0.02565
-0.01006
-0.00301
0.00416
0.01155
0.01539
0.01313
0.00668
0.00565
0.00339
-0.00122
-0.00712
-0.00918
-0.00854
-0.00572
-0.00078
0.00223
0.00749
0.00530
0.00031
-0.00054
-0.00126
-0.00120
0.00032
0.00376
0.00071
-0.00214
-0.00072
-0.00169
-0.00068
-0.00120
-0.00352
-0.00190
0.00214
0.00437
0.00529
0.00022
-0.00365
0.00097
0.00188
-0.00005
-0.00213
-0.00186
0.00014
-0.00045
-0.00368
-0.00335
-0.00183
-0.00048
0.00291
0.00887
0.01388
0.00778
-0.00345
-0.00900
-0.00903
-0.01373
-0.01658
-0.01247
0.00040
0.01593
0.02735
0.03500
0.03283
0.01362
-0.01815
-0.04402
-0.05274
-0.05012
-0.04335
-0.02134
0.01733
0.06595
0.11046
0.14024
0.13428
0.04212
-0.14120
-0.31236
-0.34211
-0.17359
0.13433
0.39065
0.40620
0.18594
-0.08117
-0.23190
-0.23464
-0.14883
-0.04798
0.02952
0.07134
0.08327
0.07218
0.04765
0.01996
-0.00431
-0.02111
-0.03307
-0.03564
-0.02622
-0.01327
-0.00151
0.00766
0.01386
0.01571
0.01126
0.00963
0.00574
-0.00123
-0.00602
-0.00914
-0.00659
-0.00208
-0.00103
-0.00454
-0.00296
0.00323
0.00525
0.00568
0.00449
0.00192
0.00012
-0.00325
-0.00634
-0.00271
0.00203
0.00098
0.00011
-0.00069
-0.00002
0.00114
0.00053
-0.00036
-0.00164
0.00015
0.00054
-0.00018
0.00420
0.00481
-0.00098
-0.00444
-0.00025
0.00091
-0.00493
-0.00786
-0.00515
-0.00056
0.00595
0.01259
0.01246
0.01047
0.00158
-0.00971
-0.01484
-0.01541
-0.01757
-0.01510
-0.00023
0.01714
0.02987
0.03586
0.03240
0.01750
-0.00717
-0.04004
-0.06121
-0.06426
-0.05254
-0.02386
0.01679
0.06700
0.11676
0.15010
0.14552
0.06289
-0.11438
-0.31455
-0.39242
-0.24260
0.09874
0.41523
0.46487
0.24296
-0.05172
-0.23757
-0.26733
-0.18636
-0.07071
0.02252
0.07551
0.09254
0.08648
0.06150
0.02733
-0.00462
-0.02583
-0.03585
-0.03742
-0.03306
-0.01893
-0.00137
0.00920
0.01598
0.01874
0.01567
0.00840
0.00092
-0.00272
-0.00189
-0.00503
-0.00648
-0.00570
-0.00251
-0.00015
-0.00549
-0.00499
0.00262
0.00882
0.00882
0.00514
0.00267
0.00093
-0.00300
-0.00730
-0.00721
-0.00294
-0.00153
-0.00244
0.00176
0.00704
0.00726
0.00318
-0.00061
-0.00155
-0.00213
-0.00545
-0.00456
0.00221
0.00428
0.00115
0.00013
0.00134
0.00005
-0.00309
-0.00514
-0.00287
-0.00115
0.00041
0.00875
0.01375
0.00924
0.00232
-0.00840
-0.01817
-0.02073
-0.01846
-0.00746
0.01013
0.02954
0.04019
0.03288
0.01312
-0.00794
-0.02652
-0.04460
-0.05727
-0.05432
-0.03325
0.00170
0.04923
0.09820
0.13627
0.14407
0.08385
-0.06537
-0.25121
-0.35660
-0.27238
0.00629
0.31692
0.44058
0.29620
0.01883
-0.19171
-0.25203
-0.19657
-0.09320
0.00379
0.06436
0.08462
0.07869
0.06179
0.03341
0.00225
-0.01981
-0.03167
-0.03240
-0.02887
-0.02160
-0.00695
0.00707
0.01309
0.01288
0.01400
0.01267
0.00514
-0.00208
-0.00318
-0.00259
-0.00553
-0.00741
-0.00651
-0.00348
-0.00142
0.00191
0.00639
0.00710
0.00417
0.00014
-0.00253
-0.00160
0.00015
-0.00019
-0.00286
-0.00306
-0.00061
-0.00017
0.00147
0.00258
0.00166
-0.00050
-0.00308
-0.00075
0.00175
0.00162
0.00104
-0.00080
0.00309
0.00444
-0.00196
-0.00641
-0.00601
-0.00296
-0.00142
-0.00091
0.00175
0.00664
0.01129
0.01005
0.00480
-0.00057
-0.00940
-0.01770
-0.02110
-0.01774
-0.00306
0.01253
0.02364
0.03515
0.03465
0.02072
0.00010
-0.02639
-0.04995
-0.06323
-0.06013
-0.03540
0.00242
0.04710
0.09503
0.13587
0.15186
0.10679
-0.03665
-0.24296
-0.38217
-0.32334
-0.04257
0.30942
0.48103
0.35328
0.05415
-0.19292
-0.27431
-0.21957
-0.10855
-0.00855
0.05854
0.08893
0.08829
0.07030
0.04171
0.01001
-0.01805
-0.03539
-0.03903
-0.03286
-0.02304
-0.01063
0.00334
0.01436
0.01654
0.01534
0.01454
0.01063
0.00264
-0.00623
-0.01052
-0.00839
-0.00534
-0.00516
-0.00340
0.00144
0.00199
0.00035
0.00222
0.00743
0.00919
0.00203
-0.00375
-0.00403
-0.00121
-0.00365
-0.00724
-0.00235
0.00324
0.00231
0.00128
0.00317
0.00435
0.00381
-0.00264
-0.00658
-0.00293
-0.00000
-0.00064
0.00171
0.00670
0.00376
-0.00211
-0.00339
-0.00463
-0.00529
-0.00227
0.00008
0.00201
0.00629
0.00746
0.00778
0.00736
0.00077
-0.00961
-0.01772
-0.01728
-0.01434
-0.00627
0.00982
0.02401
0.03444
0.03411
0.01727
-0.00656
-0.02603
-0.04339
-0.05335
-0.05076
-0.03229
-0.00076
0.03733
0.08475
0.12621
0.14315
0.09788
-0.03942
-0.22208
-0.33735
-0.28179
-0.04432
0.26150
0.42562
0.32222
0.05872
-0.16192
-0.24166
-0.20015
-0.10409
-0.01299
0.05094
0.08041
0.07861
0.06255
0.03893
0.00882
-0.01552
-0.03035
-0.03408
-0.02863
-0.01896
-0.00806
0.00266
0.01272
0.01053
0.00805
0.01207
0.01085
0.00411
-0.00157
-0.00495
-0.00688
-0.00723
-0.00754
-0.00429
0.00115
0.00272
0.00218
0.00266
0.00388
0.00399
0.00266
0.00017
-0.00155
-0.00255
-0.00464
-0.00281
0.00160
0.00155
-0.00239
-0.00182
0.00174
0.00421
0.00272
-0.00235
-0.00323
0.00090
0.00093
0.00209
0.00377
0.00245
0.00041
-0.00527
-0.00905
-0.00687
-0.00134
0.00191
0.00515
0.00607
0.00743
0.00983
0.00641
-0.00154
-0.00625
-0.01260
-0.01885
-0.01940
-0.00978
0.00597
0.01727
0.02904
0.03586
0.02983
0.01307
-0.01263
-0.04048
-0.05771
-0.06305
-0.05203
-0.02196
0.02109
0.06971
0.11785
0.15192
0.14992
0.05954
-0.13049
-0.33260
-0.40567
-0.23717
0.12874
0.45101
0.48136
0.22702
-0.08653
-0.26607
-0.27151
-0.17237
-0.05655
0.03422
0.08188
0.09291
0.07870
0.05337
0.02484
-0.00421
-0.02634
-0.03481
-0.03390
-0.02718
-0.01646
-0.00763
0.00555
0.01455
0.01700
0.01590
0.01189
0.00520
-0.00003
-0.00691
-0.00775
-0.00449
-0.00426
-0.00453
-0.00490
-0.00112
0.00301
0.00252
0.00178
0.00480
0.00349
0.00135
-0.00016
0.00301
0.00453
-0.00054
-0.01065
-0.01278
-0.00450
0.00177
0.00673
0.00579
0.00471
0.00472
0.00087
-0.00277
-0.00084
-0.00369
-0.00397
-0.00075
0.00226
0.00301
-0.00044
-0.00416
-0.00351
-0.00025
-0.00380
0.00027
0.00902
0.01274
0.00990
0.00178
-0.00628
-0.00886
-0.01570
-0.02311
-0.01700
0.00312
0.01866
0.02667
0.03467
0.03290
0.01352
-0.01400
-0.03557
-0.05103
-0.05271
-0.04718
-0.02673
0.01225
0.05757
0.10079
0.13304
0.13528
0.06550
-0.09560
-0.27286
-0.34191
-0.22322
0.05526
0.33212
0.41657
0.25614
-0.01168
-0.20481
-0.24839
-0.17914
-0.07426
0.01340
0.06673
0.08597
0.07964
0.05416
0.02353
-0.00020
-0.01744
-0.03106
-0.03598
-0.03005
-0.01786
-0.00501
0.00804
0.01588
0.01672
0.01336
0.00717
0.00400
0.00060
-0.00314
-0.00730
-0.00966
-0.00569
-0.00152
-0.00101
-0.00045
0.00469
0.00443
0.00032
0.00094
0.00189
0.00373
0.00084
-0.00299
-0.00204
-0.00142
-0.00243
-0.00493
-0.00087
0.00409
0.00342
0.00164
-0.00038
0.00164
0.00054
-0.00238
-0.00506
-0.00030
0.00469
0.00341
0.00228
0.00034
-0.00194
-0.00475
-0.00728
-0.00538
0.00047
0.00199
0.00564
0.01143
0.01378
0.00596
-0.00440
-0.01038
-0.01433
-0.01781
-0.01919
-0.00984
0.00946
0.02727
0.03795
0.03418
0.02263
0.00007
-0.02825
-0.04839
-0.05826
-0.05367
-0.03922
-0.00626
0.03690
0.08762
0.12939
0.15111
0.12331
-0.00677
-0.21764
-0.37516
-0.34113
-0.09304
0.26035
0.47608
0.39079
0.09826
-0.16986
-0.27577
-0.23420
-0.12437
-0.01741
0.05340
0.08863
0.09379
0.07356
0.04139
0.00777
-0.01694
-0.03214
-0.03727
-0.03513
-0.02210
-0.00723
0.00400
0.01132
0.01400
0.01805
0.01234
0.00426
0.00053
-0.00185
-0.00470
-0.00712
-0.00836
-0.00315
-0.00110
-0.00040
0.00095
0.00175
0.00326
0.00102
0.00128
0.00206
0.00415
0.00146
-0.00195
-0.00229
-0.00178
-0.00370
-0.00480
-0.00009
0.00306
0.00024
0.00052
0.00324
0.00329
-0.00058
-0.00190
-0.00016
0.00159
0.00099
-0.00022
-0.00158
-0.00215
0.00188
-0.00286
-0.00548
-0.00405
0.00008
0.00346
0.00427
0.00933
0.01235
0.00672
-0.00422
-0.00990
-0.01295
-0.01877
-0.01943
-0.00876
0.01028
0.02645
0.03581
0.03505
0.02115
-0.00141
-0.02750
-0.04556
-0.05415
-0.05526
-0.04206
-0.00934
0.04084
0.09426
0.13073
0.14711
0.11400
-0.01648
-0.22181
-0.37276
-0.33333
-0.06866
0.28193
0.46894
0.36286
0.07871
-0.17539
-0.27462
-0.22436
-0.11240
-0.00907
0.05519
0.08778
0.09176
0.06949
0.03537
0.00608
-0.01724
-0.03269
-0.03893
-0.03223
-0.01823
-0.00295
0.00618
0.00707
0.01307
0.01728
0.01254
0.00112
-0.00136
-0.00016
-0.00320
-0.00913
-0.00471
0.00080
-0.00371
-0.00365
-0.00005
0.00477
0.00387
0.00164
-0.00127
0.00083
0.00592
0.00204
-0.00299
-0.00370
-0.00078
-0.00353
-0.00585
-0.00041
0.00565
0.00357
0.00012
0.00117
0.00071
0.00142
-0.00067
-0.00352
-0.00141
0.00121
0.00274
0.00020
-0.00128
-0.00044
-0.00291
-0.00458
-0.00349
0.00192
0.00444
0.00646
0.01130
0.00723
-0.00302
-0.00872
-0.01112
-0.01160
-0.01397
-0.01168
0.00003
0.01810
0.03477
0.03532
0.02529
0.00559
-0.02021
-0.04640
-0.05947
-0.05592
-0.04176
-0.00996
0.03727
0.09129
0.12950
0.14528
0.11074
-0.01488
-0.20251
-0.35277
-0.33411
-0.09085
0.25389
0.45989
0.37362
0.09292
-0.15973
-0.26466
-0.22985
-0.12523
-0.01589
0.05606
0.08859
0.08997
0.07097
0.03952
0.00488
-0.01736
-0.02990
-0.03334
-0.03206
-0.02611
-0.00946
0.00495
0.01338
0.01637
0.01392
0.01113
0.00549
0.00249
-0.00221
-0.00525
-0.00607
-0.00720
-0.00899
-0.00279
0.00351
0.00178
0.00317
0.00534
0.00205
-0.00123
-0.00113
0.00150
0.00197
0.00186
0.00120
-0.00434
-0.00445
-0.00528
-0.00337
0.00203
0.00605
0.00334
0.00139
-0.00070
0.00016
0.00214
-0.00111
-0.00218
-0.00139
0.00218
-0.00008
-0.00437
-0.00098
0.00319
-0.00011
-0.00253
-0.00336
-0.00207
0.00165
0.00763
0.01298
0.01064
-0.00028
-0.01202
-0.01805
-0.01782
-0.01469
-0.00518
0.01230
0.02547
0.03227
0.03018
0.01933
-0.00194
-0.02679
-0.04831
-0.05897
-0.05189
-0.03371
0.00058
0.04495
0.09639
0.13480
0.14544
0.10260
-0.03834
-0.25025
-0.39657
-0.32444
-0.01402
0.35589
0.50258
0.32688
0.00435
-0.22394
-0.27833
-0.20457
-0.08919
0.00898
0.06916
0.09108
0.08588
0.06401
0.03425
-0.00078
-0.02418
-0.03232
-0.03346
-0.03316
-0.02134
-0.00776
0.00890
0.01568
0.01369
0.01762
0.01544
0.00569
-0.00857
-0.00913
-0.00403
-0.00350
-0.00422
-0.00443
0.00003
0.00117
-0.00042
0.00039
0.00440
0.00470
0.00193
0.00060
-0.00034
-0.00008
-0.00132
-0.00541
-0.00394
0.00119
0.00098
0.00060
0.00356
0.00443
-0.00116
-0.00462
-0.00483
0.00047
0.00391
0.00390
0.00091
0.00099
0.00162
-0.00309
-0.00442
-0.00118
-0.00064
-0.00211
-0.00410
-0.00184
0.00698
0.00690
0.00701
0.00511
0.00598
-0.00164
-0.01308
-0.01710
-0.01880
-0.01439
0.00128
0.01943
0.03183
0.03865
0.02661
0.00454
-0.01862
-0.03849
-0.05536
-0.05720
-0.03894
-0.00984
0.02258
0.06815
0.11304
0.13937
0.12477
0.02549
-0.15375
-0.31540
-0.33871
-0.16205
0.16573
0.41966
0.40262
0.15450
-0.10996
-0.24279
-0.23328
-0.14070
-0.03596
0.04065
0.07619
0.08314
0.07019
0.04688
0.01865
-0.01085
-0.02889
-0.03226
-0.03264
-0.02629
-0.01406
0.00209
0.01571
0.01565
0.01011
0.01018
0.00911
0.00258
-0.00280
-0.00684
-0.00418
-0.00543
-0.00617
-0.00222
0.00065
0.00213
0.00171
0.00102
0.00222
0.00231
0.00075
0.00322
-0.00120
-0.00074
-0.00030
-0.00293
-0.00084
-0.00033
-0.00187
-0.00369
-0.00087
0.00351
0.00309
0.00189
0.00300
0.00222
0.00076
-0.00495
-0.00518
-0.00119
0.00214
0.00390
0.00115
-0.00150
-0.00388
-0.00491
-0.00433
-0.00013
0.00752
0.00990
0.01250
0.00719
-0.00334
-0.00986
-0.01708
-0.02175
-0.01832
-0.00089
0.01241
0.02631
0.03530
0.03352
0.01914
-0.00181
-0.02385
-0.05114
-0.06428
-0.06252
-0.03887
0.00131
0.04806
0.10321
0.14488
0.16198
0.11201
-0.04272
-0.26106
-0.41400
-0.34804
-0.03880
0.35694
0.53616
0.36575
0.02484
-0.23033
-0.29447
-0.22283
-0.10490
-0.00036
0.07082
0.10085
0.09485
0.06679
0.03623
0.00618
-0.02311
-0.04019
-0.04155
-0.03152
-0.01733
-0.00658
0.00584
0.01526
0.01545
0.01315
0.01171
0.01036
0.00287
-0.00707
-0.01158
-0.00817
-0.00480
-0.00477
-0.00110
0.00284
0.00457
0.00097
0.00132
0.00374
0.00146
0.00221
0.00043
-0.00158
0.00069
-0.00301
-0.00897
-0.00213
0.00442
0.00121
0.00191
0.00347
0.00088
0.00081
-0.00218
-0.00198
-0.00094
-0.00098
0.00006
-0.00120
0.00478
0.00741
-0.00098
-0.00414
-0.00302
-0.00576
-0.00807
-0.00667
0.00495
0.01722
0.01344
0.00711
0.00082
-0.00483
-0.01249
-0.02024
-0.01804
-0.01116
0.00701
0.01399
0.02424
0.03452
0.03027
0.01085
-0.01396
-0.03420
-0.05221
-0.05764
-0.04900
-0.01559
0.01756
0.06193
0.10836
0.14581
0.14105
0.04848
-0.13861
-0.32552
-0.36445
-0.19224
0.14316
0.42535
0.44183
0.18654
-0.10670
-0.25725
-0.24606
-0.14733
-0.04170
0.03833
0.07873
0.08660
0.07084
0.04745
0.02330
-0.00622
-0.02853
-0.03867
-0.03515
-0.02254
-0.01251
-0.00030
0.00804
0.01830
0.01421
0.01025
0.00656
0.00472
0.00085
-0.00670
-0.00672
-0.00573
-0.00333
-0.00654
-0.00364
0.00474
0.00354
-0.00011
0.00184
0.00389
0.00815
0.00228
-0.00147
-0.00607
-0.00390
-0.00698
-0.00439
0.00682
0.00480
-0.00003
-0.00128
0.00362
0.00386
-0.00243
-0.00619
-0.00266
-0.00177
0.00555
0.00429
0.00323
0.00257
-0.00369
-0.00489
-0.00655
-0.00260
0.00187
-0.00211
0.00039
0.00485
0.01089
0.01193
0.00110
-0.00131
-0.00574
-0.01460
-0.02162
-0.02050
-0.00334
0.01471
0.02431
0.03402
0.03898
0.02128
-0.01211
-0.03451
-0.04558
-0.05227
-0.05452
-0.03651
0.00202
0.04556
0.09692
0.13944
0.15084
0.10423
-0.05458
-0.26539
-0.38434
-0.30349
-0.00854
0.34372
0.48980
0.32075
0.00864
-0.21862
-0.27022
-0.20129
-0.09261
0.00486
0.06708
0.09390
0.08823
0.05929
0.03043
0.00180
-0.02085
-0.03273
-0.03897
-0.03058
-0.01639
-0.00464
0.00614
0.01397
0.01796
0.01330
0.00642
0.00339
0.00126
-0.00466
-0.00804
-0.00501
-0.00003
-0.00017
-0.00499
-0.00167
0.00082
0.00074
-0.00023
0.00140
0.00255
0.00650
0.00500
0.00088
-0.00428
-0.00286
-0.00300
-0.00680
-0.00172
0.00063
0.00356
0.00061
0.00044
0.00606
0.00598
-0.00282
-0.00727
-0.00148
0.00257
0.00003
-0.00053
0.00087
0.00391
-0.00132
-0.00387
-0.00375
-0.00410
-0.00556
-0.00102
0.01267
0.01741
0.01004
-0.00267
-0.00481
-0.00923
-0.01523
-0.01998
-0.01771
-0.00008
0.01373
0.02232
0.03675
0.04130
0.02343
-0.01085
-0.03664
-0.05615
-0.06297
-0.05532
-0.03419
0.00636
0.05370
0.11036
0.15283
0.16467
0.10964
-0.06726
-0.31456
-0.45323
-0.33650
0.04360
0.45266
0.55657
0.31332
-0.04680
-0.27875
-0.30441
-0.20363
-0.07413
0.02402
0.07990
0.10212
0.09221
0.06351
0.02734
-0.00267
-0.02402
-0.03911
-0.04213
-0.03135
-0.01470
-0.00713
0.00412
0.01600
0.02424
0.01825
0.00597
0.00258
0.00124
-0.00385
-0.01061
-0.00631
-0.00480
-0.00408
-0.00306
0.00051
0.00328
0.00313
0.00213
0.00356
0.00437
0.00282
0.00034
-0.00483
-0.00172
-0.00170
-0.00387
-0.00377
-0.00033
0.00186
0.00387
0.00171
0.00093
0.00262
0.00139
-0.00190
-0.00367
0.00180
-0.00252
-0.00072
0.00012
0.00147
0.00157
0.00255
-0.00195
-0.00450
-0.00130
-0.00519
-0.00259
0.00291
0.01456
0.01285
0.00599
-0.00612
-0.00979
-0.01030
-0.01804
-0.01851
-0.00260
0.00738
0.01727
0.03408
0.03822
0.02443
-0.00618
-0.02746
-0.04319
-0.04736
-0.05294
-0.04088
-0.00758
0.03501
0.08395
0.12070
0.14328
0.11880
-0.01029
-0.21174
-0.34977
-0.31524
-0.08516
0.24713
0.45510
0.36653
0.07863
-0.17295
-0.25976
-0.20991
-0.11048
-0.01319
0.05373
0.08480
0.08558
0.06038
0.03561
0.00762
-0.01421
-0.02792
-0.03495
-0.02874
-0.01997
-0.00928
0.00227
0.01028
0.01584
0.01193
0.00666
0.00921
0.00815
-0.00153
-0.00967
-0.00865
-0.00428
-0.00085
-0.00560
-0.00517
0.00114
0.00478
0.00311
0.00413
0.00515
0.00400
0.00254
-0.00163
-0.00700
-0.00709
-0.00277
-0.00191
0.00258
0.00486
0.00240
-0.00019
-0.00058
0.00075
0.00048
-0.00114
-0.00079
0.00124
0.00017
-0.00070
-0.00125
0.00219
0.00516
-0.00298
-0.00612
-0.00435
-0.00121
-0.00174
0.00028
0.00428
0.01084
0.01366
0.00402
-0.00235
-0.00922
-0.01325
-0.01916
-0.01960
-0.00279
0.01114
0.01647
0.02679
0.03676
0.02968
0.00562
-0.01995
-0.04081
-0.05832
-0.06572
-0.04965
-0.01484
0.03329
0.08362
0.12950
0.15951
0.14322
0.02330
-0.19258
-0.37588
-0.39282
-0.16289
0.22946
0.50304
0.44701
0.14571
-0.15614
-0.28636
-0.25557
-0.14479
-0.03322
0.04754
0.09273
0.09790
0.07827
0.04589
0.01374
-0.01252
-0.02983
-0.03881
-0.03295
-0.02655
-0.01492
-0.00429
0.00988
0.02247
0.02073
0.01567
0.00746
0.00023
-0.00722
-0.00799
-0.00677
-0.00292
-0.00301
-0.00828
-0.00135
0.00659
0.00365
0.00248
0.00054
0.00278
0.00689
-0.00148
-0.00579
-0.00217
0.00003
-0.00048
-0.00360
-0.00048
0.00237
0.00020
0.00089
-0.00046
0.00293
0.00562
-0.00339
-0.00658
-0.00293
0.00320
0.00255
0.00053
0.00794
0.00173
-0.00564
-0.00908
-0.00321
0.00016
-0.00100
-0.00081
0.00187
0.01145
0.00939
0.00728
0.00068
-0.00622
-0.01459
-0.01595
-0.01416
-0.00631
0.00351
0.00997
0.02375
0.03661
0.03222
0.00533
-0.01389
-0.03336
-0.05153
-0.06056
-0.04904
-0.01476
0.02578
0.06946
0.10938
0.13749
0.13164
0.03798
-0.14899
-0.32315
-0.34672
-0.16069
0.15829
0.41158
0.40581
0.16607
-0.10505
-0.24335
-0.23136
-0.14129
-0.03964
0.03487
0.07648
0.08390
0.06965
0.04669
0.01979
-0.00432
-0.02820
-0.03972
-0.03433
-0.02232
-0.01056
0.00084
0.01095
0.01647
0.01520
0.00855
0.00466
0.00075
-0.00141
-0.00271
-0.00503
-0.00395
-0.00366
-0.00505
-0.00266
0.00431
0.00153
-0.00075
0.00207
0.00319
0.00327
0.00181
-0.00101
-0.00197
0.00126
-0.00289
-0.00451
0.00037
0.00463
-0.00087
-0.00785
-0.00143
0.00544
0.00485
0.00084
-0.00031
0.00105
0.00043
-0.00031
-0.00098
0.00188
0.00126
-0.00474
-0.00889
-0.00726
0.00128
0.00340
0.00595
0.01143
0.00944
0.00441
-0.00228
-0.00510
-0.00394
-0.01278
-0.02236
-0.01494
0.00022
0.00961
0.01999
0.02759
0.03433
0.02703
0.00171
-0.02164
-0.04449
-0.05635
-0.05905
-0.04364
-0.00789
0.03473
0.08076
0.12312
0.14987
0.12876
0.01076
-0.19403
-0.36052
-0.35370
-0.12597
0.23365
0.46717
0.39562
0.11747
-0.14828
-0.26148
-0.23363
-0.13106
-0.02742
0.04603
0.08444
0.08994
0.07198
0.04195
0.01576
-0.01066
-0.03066
-0.03948
-0.03481
-0.02171
-0.00896
-0.00249
0.01035
0.02049
0.01842
0.00816
0.00444
0.00527
0.00041
-0.00824
-0.01181
-0.00467
-0.00346
-0.00433
-0.00003
0.00598
0.00397
-0.00164
0.00092
0.00618
0.00454
-0.00212
-0.00627
0.00023
0.00225
0.00086
-0.00638
-0.00516
0.00115
0.00389
0.00226
0.00044
0.00470
0.00030
-0.00356
-0.00457
0.00181
0.00130
0.00044
-0.00008
0.00259
0.00211
-0.00066
-0.00391
-0.00369
-0.00150
-0.00558
-0.00259
0.00146
0.01046
0.01535
0.01039
0.00114
-0.00615
-0.01325
-0.02269
-0.02202
-0.00624
0.00625
0.01651
0.02387
0.03324
0.03364
0.01501
-0.01018
-0.03473
-0.05520
-0.06579
-0.05253
-0.02397
0.01585
0.05984
0.10740
0.14398
0.15341
0.09081
-0.08398
-0.31102
-0.43609
-0.30115
0.07927
0.45225
0.52596
0.27188
-0.06818
-0.27161
-0.28785
-0.18742
-0.06501
0.02752
0.08220
0.10046
0.08129
0.05663
0.02979
-0.00079
-0.02693
-0.04096
-0.04118
-0.03032
-0.01530
-0.00158
0.01211
0.01712
0.01502
0.01061
0.00760
0.00630
0.00204
-0.00613
-0.00736
-0.00688
-0.00546
-0.00447
-0.00037
0.00271
0.00082
-0.00141
0.00073
0.00525
0.00748
0.00207
-0.00051
-0.00155
-0.00162
-0.00248
-0.00657
-0.00176
0.00044
0.00012
-0.00107
0.00346
0.00411
0.00350
0.00009
-0.00153
-0.00136
0.00116
0.00027
-0.00436
-0.00005
0.00134
-0.00124
-0.00223
-0.00032
-0.00154
-0.00147
0.00044
0.00498
0.00771
0.00690
0.00196
-0.00092
-0.00311
-0.01117
-0.01451
-0.01477
-0.00832
0.00413
0.01636
0.02741
0.02891
0.02304
0.00781
-0.01135
-0.03432
-0.04992
-0.05234
-0.04113
-0.01755
0.01390
0.05997
0.10342
0.13415
0.13067
0.05000
-0.11924
-0.29299
-0.34550
-0.19954
0.10692
0.38563
0.42151
0.20093
-0.07273
-0.22520
-0.23664
-0.15723
-0.05486
0.02470
0.07097
0.08351
0.07611
0.05110
0.02324
-0.00160
-0.02616
-0.03591
-0.03328
-0.02688
-0.01747
-0.00316
0.01064
0.01799
0.01667
0.01195
0.00898
0.00407
-0.00187
-0.00920
-0.00961
-0.00539
-0.00177
-0.00112
-0.00015
0.00184
0.00092
-0.00025
-0.00040
0.00464
0.00475
0.00391
0.00039
-0.00337
-0.00297
-0.00470
-0.00381
-0.00128
0.00207
0.00313
0.00165
0.00199
0.00283
-0.00074
-0.00523
-0.00269
0.00258
0.00272
0.00090
0.00003
0.00246
0.00234
-0.00342
-0.00671
-0.00482
-0.00082
-0.00284
-0.00188
0.01002
0.01481
0.01006
0.00319
-0.00340
-0.01129
-0.01661
-0.01956
-0.01591
0.00169
0.01379
0.01891
0.02765
0.03398
0.02199
-0.00135
-0.02484
-0.04042
-0.05281
-0.05861
-0.04196
-0.00727
0.03995
0.08435
0.12472
0.15255
0.12110
-0.01212
-0.21445
-0.36532
-0.33445
-0.08561
0.26304
0.46231
0.36953
0.09121
-0.16116
-0.26426
-0.22649
-0.11906
-0.01923
0.05120
0.08657
0.08860
0.06817
0.03978
0.01021
-0.01416
-0.02883
-0.03596
-0.03068
-0.02088
-0.01292
-0.00254
0.01009
0.01662
0.01808
0.01340
0.00982
0.00433
-0.00511
-0.00981
-0.00817
-0.00729
-0.00404
-0.00303
-0.00124
0.00489
0.00613
0.00553
-0.00113
-0.00170
0.00161
0.00222
-0.00141
0.00038
-0.00051
-0.00274
-0.00299
-0.00291
0.00126
0.00111
0.00070
0.00062
0.00351
0.00208
-0.00288
-0.00324
0.00114
0.00263
0.00114
0.00119
0.00315
-0.00075
-0.00541
-0.00824
-0.00434
0.00016
0.00073
0.00302
0.00743
0.01463
0.00973
-0.00032
-0.00663
-0.01041
-0.01590
-0.02081
-0.01485
0.00279
0.01674
0.02378
0.03052
0.03283
0.02277
-0.00588
-0.03475
-0.05071
-0.06142
-0.05696
-0.03389
0.00609
0.05570
0.10419
0.14399
0.15718
0.10127
-0.06109
-0.28334
-0.42330
-0.32513
0.01695
0.39832
0.52650
0.32163
-0.01177
-0.24196
-0.29213
-0.21398
-0.09140
0.01130
0.07836
0.10339
0.09218
0.06288
0.03039
0.00075
-0.02564
-0.03748
-0.03713
-0.03041
-0.01984
-0.00679
0.00418
0.01232
0.01952
0.01891
0.01185
0.00750
0.00350
-0.00795
-0.01297
-0.01059
-0.00546
-0.00214
-0.00043
0.00297
0.00374
0.00336
0.00044
0.00052
0.00342
0.00329
-0.00039
-0.00126
-0.00134
-0.00046
-0.00294
-0.00693
-0.00374
0.00401
0.00424
0.00200
0.00397
0.00240
-0.00017
-0.00588
-0.00394
0.00171
0.00416
0.00180
-0.00207
-0.00139
0.00019
-0.00097
-0.00306
-0.00339
-0.00255
0.00055
0.00504
0.01141
0.01214
0.00352
-0.00710
-0.00977
-0.01311
-0.01828
-0.01365
-0.00037
0.01320
0.02329
0.02916
0.02879
0.01878
-0.00369
-0.02990
-0.04690
-0.05344
-0.04672
-0.02900
-0.00063
0.04489
0.09034
0.12495
0.13809
0.09343
-0.04654
-0.23947
-0.35264
-0.27701
-0.01460
0.29844
0.44030
0.30675
0.03141
-0.18747
-0.25301
-0.19373
-0.09178
-0.00196
0.05606
0.08279
0.08377
0.06250
0.03107
0.00288
-0.01757
-0.02808
-0.03390
-0.03201
-0.01790
-0.00421
0.00481
0.00807
0.00992
0.01427
0.01373
0.00842
0.00115
-0.00222
-0.00364
-0.00595
-0.00709
-0.00802
-0.00686
-0.00435
0.00313
0.01031
0.00756
0.00224
0.00215
0.00186
0.00013
-0.00383
-0.00759
-0.00192
0.00230
-0.00017
-0.00454
-0.00171
0.00487
0.00576
0.00248
-0.00104
-0.00136
-0.00270
-0.00235
-0.00012
0.00375
0.00308
0.00020
-0.00069
-0.00183
-0.00337
-0.00463
-0.00528
-0.00215
0.00509
0.00910
0.00981
0.00789
0.00543
-0.00364
-0.01340
-0.01752
-0.01720
-0.01110
-0.00138
0.01313
0.02793
0.03171
0.02571
0.01337
-0.00341
-0.02544
-0.04992
-0.05780
-0.04774
-0.02562
0.00541
0.04562
0.09245
0.13270
0.14182
0.08136
-0.06877
-0.25559
-0.35158
-0.25836
0.01762
0.32547
0.43463
0.27350
0.00429
-0.19036
-0.24711
-0.18798
-0.08456
0.00542
0.06157
0.08269
0.07925
0.06137
0.03290
0.00231
-0.02197
-0.03384
-0.03323
-0.03026
-0.01978
-0.00345
0.00908
0.01278
0.01150
0.01373
0.01133
0.00497
0.00285
-0.00255
-0.00771
-0.01136
-0.00826
-0.00147
0.00180
0.00366
0.00008
-0.00015
0.00200
0.00293
0.00304
0.00204
0.00005
-0.00125
-0.00190
-0.00167
-0.00028
0.00037
-0.00116
-0.00235
-0.00137
-0.00029
0.00046
-0.00142
0.00057
0.00580
0.00605
0.00223
0.00038
-0.00146
-0.00349
-0.00464
-0.00686
-0.00182
0.00065
-0.00288
-0.00204
0.00337
0.00932
0.01267
0.01209
0.00613
-0.00470
-0.01700
-0.02265
-0.02273
-0.01243
0.00517
0.01890
0.02588
0.03138
0.03054
0.01589
-0.00584
-0.03021
-0.05107
-0.05909
-0.05093
-0.02716
0.00848
0.04784
0.09390
0.13496
0.14701
0.08683
-0.06862
-0.26222
-0.36894
-0.27227
0.02424
0.34161
0.44602
0.28104
0.00037
-0.20143
-0.25098
-0.18772
-0.08684
0.00380
0.06569
0.08760
0.07882
0.05704
0.03173
0.00387
-0.01972
-0.03326
-0.03579
-0.02701
-0.01718
-0.00798
0.00303
0.01305
0.01949
0.01687
0.00967
0.00347
-0.00178
-0.00857
-0.00776
-0.00305
-0.00493
-0.00420
0.00336
0.00690
0.00103
-0.00478
-0.00540
0.00146
0.00740
0.00350
0.00121
0.00145
0.00051
-0.00315
-0.00570
-0.00205
0.00069
-0.00185
-0.00406
0.00251
0.00582
0.00424
0.00010
0.00013
0.00220
-0.00220
-0.00309
-0.00130
0.00074
0.00033
-0.00216
-0.00381
-0.00414
-0.00258
0.00095
0.00669
0.01397
0.01500
0.00485
-0.00697
-0.01415
-0.01935
-0.02215
-0.01490
0.00297
0.01782
0.02760
0.03354
0.03028
0.01624
-0.00712
-0.03177
-0.04886
-0.05638
-0.05034
-0.03097
0.00135
0.04728
0.09418
0.13102
0.14635
0.10066
-0.04687
-0.24937
-0.37306
-0.29743
-0.01385
0.31481
0.45405
0.31904
0.04157
-0.18512
-0.26419
-0.21106
-0.10212
-0.00167
0.06024
0.08617
0.08789
0.06758
0.03510
0.00397
-0.01849
-0.03372
-0.03796
-0.03310
-0.01946
-0.00338
0.00475
0.01011
0.01704
0.01820
0.00983
0.00324
0.00239
-0.00186
-0.00906
-0.01197
-0.00614
0.00004
0.00078
0.00030
0.00066
0.00409
0.00309
0.00017
0.00042
0.00128
0.00269
-0.00061
-0.00379
0.00045
0.00217
-0.00340
-0.00570
-0.00149
0.00269
0.00281
-0.00026
-0.00086
0.00126
0.00359
0.00314
0.00181
0.00125
-0.00163
-0.00488
-0.00601
-0.00239
-0.00078
-0.00306
-0.00333
0.00134
0.00880
0.01367
0.01291
0.00538
-0.00248
-0.01191
-0.02126
-0.02373
-0.01466
0.00081
0.01256
0.02309
0.03227
0.03294
0.02064
-0.00037
-0.02279
-0.04278
-0.05911
-0.05759
-0.03624
-0.00463
0.03578
0.08353
0.12803
0.14859
0.11034
-0.01794
-0.20703
-0.34811
-0.31726
-0.08049
0.24635
0.43677
0.35827
0.09553
-0.15043
-0.25274
-0.21990
-0.12075
-0.02022
0.05070
0.08344
0.08388
0.06603
0.03958
0.01073
-0.01273
-0.02671
-0.03197
-0.03257
-0.02630
-0.01208
0.00435
0.01292
0.01264
0.01106
0.01181
0.01142
0.00643
-0.00196
-0.00828
-0.00749
-0.00778
-0.00984
-0.00476
0.00436
0.00683
0.00262
0.00150
0.00382
0.00200
-0.00115
-0.00096
0.00015
-0.00086
-0.00146
-0.00208
-0.00110
0.00148
0.00155
-0.00295
-0.00329
0.00230
0.00117
-0.00031
0.00089
0.00424
0.00471
0.00128
-0.00121
-0.00122
-0.00351
-0.00850
-0.00785
-0.00402
0.00160
0.00645
0.01132
0.01297
0.01150
0.00425
-0.00910
-0.01767
-0.01917
-0.01872
-0.01248
0.00341
0.01794
0.02761
0.03544
0.03242
0.01288
-0.01277
-0.03552
-0.05164
-0.05862
-0.05083
-0.02625
0.01305
0.05955
0.10384
0.13716
0.14351
0.08209
-0.08098
-0.28631
-0.39491
-0.27749
0.05642
0.39240
0.47710
0.27333
-0.02736
-0.23086
-0.27130
-0.19331
-0.07882
0.01647
0.07212
0.09371
0.08906
0.06159
0.02641
-0.00272
-0.02404
-0.03687
-0.03828
-0.02803
-0.01703
-0.00409
0.00760
0.01360
0.01809
0.01667
0.00909
0.00082
-0.00089
-0.00353
-0.00723
-0.00676
-0.00325
-0.00192
-0.00414
-0.00230
0.00260
0.00628
0.00306
-0.00106
0.00063
0.00523
0.00537
-0.00209
-0.00599
-0.00312
-0.00074
-0.00266
-0.00431
-0.00019
0.00343
0.00218
0.00220
0.00489
0.00337
-0.00170
-0.00273
-0.00207
-0.00095
0.00084
0.00005
-0.00273
-0.00261
-0.00368
-0.00574
-0.00063
0.00910
0.01466
0.01048
0.00453
-0.00156
-0.00881
-0.01780
-0.02314
-0.01620
-0.00140
0.01264
0.02264
0.03018
0.03349
0.02139
-0.00149
-0.02303
-0.04285
-0.05599
-0.05689
-0.03726
-0.00305
0.03813
0.08336
0.12350
0.14263
0.10874
-0.01459
-0.20148
-0.34455
-0.31839
-0.08674
0.24457
0.44629
0.36080
0.09015
-0.15608
-0.25457
-0.21774
-0.11890
-0.02199
0.05152
0.08750
0.08518
0.06636
0.03913
0.00963
-0.01459
-0.02962
-0.03371
-0.02988
-0.02430
-0.01239
0.00194
0.01332
0.01759
0.01437
0.01029
0.00755
0.00184
-0.00250
-0.00714
-0.00886
-0.00427
-0.00324
-0.00285
-0.00014
0.00435
0.00313
-0.00266
-0.00246
0.00233
0.00608
0.00692
0.00273
-0.00260
-0.00371
-0.00543
-0.00563
-0.00243
-0.00041
0.00038
0.00457
0.00596
0.00148
-0.00184
-0.00412
0.00219
0.00741
0.00244
-0.00398
-0.00566
-0.00231
-0.00194
-0.00371
-0.00492
-0.00211
0.00508
0.00955
0.01119
0.01070
0.00364
-0.00627
-0.01109
-0.01596
-0.02006
-0.01701
-0.00173
0.01746
0.03238
0.03775
0.02750
0.01139
-0.01125
-0.03882
-0.05687
-0.05706
-0.04252
-0.01679
0.01789
0.06285
0.10911
0.14080
0.13092
0.04543
-0.12394
-0.30835
-0.36938
-0.20226
0.14182
0.42954
0.43148
0.17610
-0.10327
-0.24635
-0.23828
-0.14631
-0.04032
0.03624
0.07265
0.08224
0.07249
0.04918
0.01951
-0.00905
-0.02558
-0.03213
-0.03221
-0.02421
-0.01204
-0.00158
0.00671
0.01124
0.01297
0.01623
0.01140
0.00343
-0.00339
-0.00751
-0.00556
-0.00355
-0.00385
-0.00440
-0.00387
-0.00131
0.00263
0.00677
0.00720
0.00165
-0.00375
-0.00137
0.00222
0.00329
-0.00103
-0.00680
-0.00163
0.00016
-0.00366
-0.00194
0.00320
0.00552
0.00128
-0.00112
0.00137
0.00295
0.00233
-0.00143
-0.00351
-0.00192
-0.00153
-0.00466
-0.00584
-0.00193
0.00242
0.00525
0.01001
0.01297
0.00806
-0.00254
-0.00907
-0.01293
-0.01676
-0.01772
-0.00958
0.00582
0.01712
0.02765
0.03364
0.02925
0.01062
-0.01492
-0.04174
-0.05563
-0.05406
-0.04367
-0.01639
0.02215
0.06957
0.10845
0.13121
0.12727
0.04682
-0.12443
-0.30849
-0.35652
-0.19061
0.12750
0.40412
0.42565
0.19544
-0.08624
-0.24166
-0.24075
-0.15329
-0.05193
0.02876
0.07609
0.09012
0.07728
0.05057
0.01826
-0.00941
-0.02703
-0.03581
-0.03269
-0.02339
-0.01065
-0.00223
0.00587
0.01425
0.01539
0.01473
0.00998
0.00113
-0.00428
-0.00448
-0.00549
-0.00665
-0.00221
0.00046
-0.00273
-0.00525
-0.00049
0.00341
0.00494
0.00580
0.00469
0.00274
-0.00143
-0.00475
-0.00341
-0.00199
-0.00100
-0.00224
-0.00278
0.00213
0.00232
-0.00007
0.00102
0.00457
0.00363
0.00002
-0.00377
-0.00148
0.00304
-0.00009
-0.00302
-0.00506
-0.00274
-0.00229
-0.00500
0.00163
0.00964
0.01350
0.00942
0.00372
-0.00179
-0.00971
-0.01960
-0.02252
-0.01276
0.00278
0.01259
0.01889
0.03431
0.03566
0.01809
-0.00741
-0.02993
-0.04677
-0.05732
-0.05587
-0.03327
0.00616
0.05135
0.09828
0.13880
0.14956
0.09405
-0.05965
-0.27440
-0.39993
-0.30186
0.02264
0.38216
0.50224
0.30072
-0.02664
-0.24161
-0.27654
-0.19067
-0.07442
0.01535
0.07185
0.09046
0.08251
0.05856
0.03110
0.00606
-0.02091
-0.03945
-0.04245
-0.03251
-0.01732
-0.00119
0.00988
0.01690
0.01514
0.00906
0.00954
0.01063
0.00337
-0.00639
-0.01225
-0.00946
-0.00604
-0.00275
-0.00003
0.00153
0.00200
0.00237
0.00554
0.00621
0.00221
-0.00215
-0.00300
-0.00131
0.00059
-0.00312
-0.00425
-0.00315
0.00030
0.00243
0.00375
0.00183
0.00203
0.00137
-0.00278
-0.00156
0.00190
0.00360
-0.00088
-0.00420
-0.00293
-0.00177
-0.00058
-0.00247
-0.00096
0.00328
0.00387
0.00719
0.00625
0.00699
-0.00052
-0.01040
-0.01264
-0.01366
-0.01456
-0.00783
0.00793
0.02289
0.03239
0.03099
0.01765
-0.00264
-0.02510
-0.04278
-0.05082
-0.04744
-0.03353
-0.00665
0.03764
0.08233
0.12334
0.13854
0.10175
-0.02434
-0.21130
-0.34299
-0.30281
-0.05922
0.26627
0.44239
0.33681
0.06413
-0.17020
-0.25368
-0.21049
-0.10545
-0.00591
0.05525
0.08065
0.08005
0.06668
0.04222
0.00762
-0.01885
-0.03350
-0.03624
-0.03255
-0.02248
-0.00494
0.00872
0.01332
0.01350
0.01250
0.01197
0.00875
-0.00136
-0.00575
-0.00816
-0.00579
-0.00700
-0.00463
0.00271
0.00481
0.00085
-0.00140
0.00134
0.00341
0.00187
-0.00146
0.00015
0.00217
0.00230
-0.00392
-0.00371
0.00138
-0.00040
-0.00125
-0.00126
-0.00222
-0.00043
0.00092
0.00258
0.00446
0.00537
0.00202
-0.00092
-0.00204
-0.00393
-0.00489
-0.00679
-0.00500
0.00178
0.00197
0.00198
0.01087
0.01343
0.00657
-0.00030
-0.00592
-0.00947
-0.01483
-0.02063
-0.01697
-0.00076
0.01905
0.02588
0.03332
0.03564
0.02129
-0.00974
-0.03948
-0.05590
-0.06382
-0.05304
-0.02638
0.01493
0.06368
0.10873
0.14192
0.14679
0.08351
-0.08348
-0.30335
-0.41774
-0.29073
0.07196
0.43369
0.51273
0.27451
-0.06363
-0.26725
-0.28363
-0.18611
-0.06211
0.02873
0.07677
0.09677
0.08570
0.05882
0.02463
-0.00252
-0.02565
-0.04085
-0.04028
-0.03013
-0.01269
-0.00156
0.00871
0.01531
0.01851
0.01549
0.00575
0.00236
-0.00012
-0.00305
-0.00780
-0.00940
-0.00363
-0.00240
-0.00126
-0.00088
0.00272
0.00273
0.00132
0.00383
0.00398
0.00384
0.00097
-0.00205
-0.00479
-0.00371
-0.00374
-0.00614
0.00152
0.00821
0.00222
-0.00271
0.00311
0.00269
-0.00221
-0.00207
-0.00192
0.00205
0.00340
0.00336
-0.00039
-0.00356
-0.00408
-0.00821
-0.00847
0.00041
0.00936
0.01208
0.00860
0.00696
0.00501
-0.00204
-0.01298
-0.02108
-0.02124
-0.01361
0.00467
0.01646
0.02736
0.03703
0.02929
0.01004
-0.01409
-0.03664
-0.04949
-0.05450
-0.04581
-0.02222
0.01469
0.06204
0.10696
0.13772
0.13489
0.05554
-0.11082
-0.30483
-0.38000
-0.21512
0.12719
0.42237
0.44011
0.19745
-0.09292
-0.24871
-0.24453
-0.15220
-0.04366
0.03300
0.07497
0.08365
0.07075
0.04800
0.02299
-0.00425
-0.02515
-0.03267
-0.03322
-0.02571
-0.01751
-0.00089
0.00974
0.01190
0.01462
0.01437
0.01164
0.00402
-0.00332
-0.00825
-0.00695
-0.00320
-0.00433
-0.00321
0.00254
-0.00328
-0.00170
0.00291
0.00491
0.00518
0.00058
0.00049
0.00157
0.00161
-0.00150
-0.00627
-0.00684
0.00234
0.00042
-0.00172
0.00069
0.00470
0.00400
-0.00255
-0.00159
0.00226
0.00574
-0.00157
-0.00548
-0.00170
0.00078
-0.00103
-0.00158
0.00024
-0.00064
-0.00185
-0.00341
0.00160
0.01024
0.01123
0.00486
-0.00060
-0.00382
-0.01276
-0.02100
-0.01743
-0.00431
0.00973
0.01614
0.02667
0.03683
0.02715
0.00199
-0.02468
-0.04299
-0.05350
-0.05529
-0.04043
-0.00731
0.03639
0.08135
0.12377
0.14364
0.11592
-0.00261
-0.20377
-0.35735
-0.33418
-0.08806
0.25657
0.45876
0.37108
0.08726
-0.17152
-0.26545
-0.21380
-0.11334
-0.01450
0.04661
0.08338
0.09042
0.06592
0.03824
0.00979
-0.01042
-0.02865
-0.04043
-0.03289
-0.02064
-0.01332
-0.00063
0.01386
0.02292
0.01894
0.00946
0.00294
0.00129
-0.00382
-0.00745
-0.00916
-0.00483
-0.00109
-0.00525
-0.00023
0.00580
0.00653
0.00050
-0.00091
-0.00029
0.00365
0.00066
-0.00315
0.00309
-0.00069
-0.00339
-0.00345
-0.00429
0.00245
0.00254
0.00080
0.00306
0.00262
-0.00384
-0.00624
0.00277
0.00758
0.00520
-0.00162
-0.00812
-0.00394
0.00269
0.00000
-0.00191
-0.00342
-0.00276
-0.00072
0.00435
0.01073
0.01340
0.00600
-0.00295
-0.01027
-0.01341
-0.01915
-0.02076
-0.00489
0.01298
0.02507
0.03371
0.03553
0.02027
-0.00110
-0.02938
-0.04761
-0.05929
-0.05749
-0.03842
-0.00455
0.04587
0.09835
0.14268
0.15855
0.11475
-0.03131
-0.26053
-0.42243
-0.35304
-0.02896
0.37359
0.54229
0.35141
0.00173
-0.23826
-0.29277
-0.21223
-0.08954
0.00770
0.06663
0.09206
0.09128
0.07002
0.03616
0.00123
-0.01991
-0.03757
-0.04463
-0.03469
-0.01728
-0.00034
0.00799
0.01288
0.01738
0.01321
0.00790
0.00195
0.00171
0.00090
-0.00538
-0.00588
-0.00796
-0.00350
-0.00259
-0.00309
-0.00077
0.00343
0.00687
0.00267
0.00332
0.00165
-0.00015
0.00020
-0.00029
0.00041
-0.00414
-0.00908
-0.00511
0.00068
0.00708
0.00725
0.00020
-0.00128
0.00138
-0.00102
-0.00185
0.00022
0.00139
0.00159
-0.00165
-0.00170
-0.00053
-0.00074
-0.00386
-0.00694
-0.00038
0.00877
0.00566
0.00651
0.00667
0.00194
-0.00185
-0.00766
-0.01365
-0.01483
-0.01431
-0.00773
0.00940
0.02964
0.03918
0.03051
0.01357
-0.01218
-0.03377
-0.05262
-0.05913
-0.04588
-0.02163
0.01072
0.06071
0.11368
0.14282
0.13657
0.05839
-0.11319
-0.30939
-0.38709
-0.23380
0.12699
0.44620
0.45751
0.19467
-0.10103
-0.25079
-0.24960
-0.15920
-0.04689
0.03671
0.07998
0.08418
0.07507
0.05142
0.02279
-0.00796
-0.02987
-0.03610
-0.03133
-0.02405
-0.01676
0.00061
0.01159
0.01295
0.01100
0.01459
0.01207
0.00292
-0.00428
-0.00591
-0.00430
-0.00703
-0.00731
-0.00332
0.00152
0.00426
0.00171
0.00147
0.00053
0.00191
0.00241
0.00028
0.00183
0.00059
-0.00253
-0.00344
-0.00134
-0.00126
-0.00240
-0.00267
0.00098
0.00491
0.00651
0.00092
-0.00297
0.00105
0.00096
-0.00200
-0.00533
-0.00239
0.00437
0.00229
-0.00085
-0.00213
-0.00364
-0.00232
-0.00050
0.00455
0.01002
0.00809
0.00063
-0.00061
-0.00374
-0.01214
-0.01862
-0.01670
-0.00392
0.01098
0.02200
0.03161
0.03227
0.01497
-0.00454
-0.02207
-0.03954
-0.05671
-0.05558
-0.03839
-0.00157
0.04616
0.09137
0.13402
0.15091
0.10392
-0.04707
-0.25124
-0.37956
-0.30782
-0.01540
0.33831
0.48398
0.31788
0.00682
-0.21178
-0.26690
-0.19763
-0.08831
0.00108
0.06619
0.09260
0.08728
0.06002
0.02780
0.00143
-0.01985
-0.03519
-0.03621
-0.02736
-0.01393
-0.00719
0.00275
0.01106
0.01503
0.01694
0.01104
0.00540
0.00455
-0.00418
-0.01206
-0.00800
-0.00390
-0.00432
-0.00606
0.00147
0.00705
0.00668
-0.00046
0.00171
0.00226
0.00204
-0.00033
-0.00420
-0.00123
-0.00051
0.00144
-0.00367
-0.00193
-0.00070
-0.00078
0.00107
0.00373
0.00545
-0.00083
-0.00233
-0.00228
0.00166
0.00041
0.00131
0.00010
-0.00022
0.00149
-0.00580
-0.00535
-0.00252
-0.00032
0.00089
0.00271
0.00907
0.01583
0.00606
0.00006
-0.00966
-0.01774
-0.02179
-0.02095
-0.00284
0.01398
0.02692
0.03324
0.03590
0.02386
-0.00326
-0.03398
-0.05197
-0.05929
-0.05538
-0.03981
-0.00244
0.05040
0.10595
0.14642
0.16030
0.11728
-0.04395
-0.28464
-0.44182
-0.35600
0.00072
0.42158
0.55397
0.32997
-0.01857
-0.25662
-0.29900
-0.20793
-0.08542
0.01358
0.07128
0.09564
0.09789
0.07061
0.03047
-0.00451
-0.02593
-0.03671
-0.03997
-0.02959
-0.01761
-0.00478
0.00732
0.00984
0.01894
0.01846
0.00670
0.00359
0.00248
-0.00240
-0.00405
-0.00953
-0.00812
-0.00250
-0.00218
-0.00442
0.00175
0.00996
0.00174
0.00129
0.00007
0.00231
0.00392
-0.00112
-0.00245
-0.00112
-0.00183
-0.00520
-0.00676
0.00105
0.00818
0.00521
-0.00030
-0.00164
0.00092
-0.00276
-0.00483
0.00008
0.00689
0.00427
0.00223
-0.00053
-0.00334
-0.00709
-0.01028
-0.00350
0.00530
0.00528
0.00339
0.00799
0.01053
0.00849
-0.00081
-0.01285
-0.01648
-0.01712
-0.01456
-0.00649
0.00745
0.02727
0.03351
0.02940
0.01889
-0.00047
-0.02295
-0.04615
-0.05456
-0.04540
-0.03548
-0.01078
0.03039
0.08557
0.12958
0.14647
0.11296
-0.02281
-0.21151
-0.35445
-0.32699
-0.06899
0.27341
0.45722
0.35374
0.07126
-0.17195
-0.26343
-0.21906
-0.10996
-0.00430
0.05771
0.08171
0.08049
0.06813
0.04201
0.00303
-0.01882
-0.02722
-0.03334
-0.03117
-0.02139
-0.00983
0.00224
0.01077
0.01257
0.01774
0.01718
0.00644
-0.00120
-0.00643
-0.00489
-0.00669
-0.00765
-0.00313
0.00040
-0.00186
-0.00131
0.00310
0.00514
0.00645
0.00060
-0.00070
0.00065
0.00125
-0.00116
-0.00485
-0.00324
-0.00166
-0.00304
0.00033
0.00598
0.00564
-0.00056
-0.00369
-0.00020
0.00195
0.00204
-0.00612
-0.00358
0.00431
0.00415
0.00309
0.00083
-0.00139
-0.00434
-0.00649
-0.00803
-0.00256
0.00477
0.00966
0.01158
0.01151
0.00605
-0.00454
-0.01608
-0.01604
-0.01722
-0.01713
-0.00303
0.01369
0.03128
0.03838
0.03313
0.01388
-0.01149
-0.03530
-0.05108
-0.05671
-0.05102
-0.03015
0.00724
0.05278
0.10572
0.14623
0.15216
0.09133
-0.08121
-0.29894
-0.41013
-0.28727
0.05171
0.41302
0.51119
0.27597
-0.05079
-0.25299
-0.27435
-0.18600
-0.07069
0.02213
0.07235
0.09317
0.08496
0.06254
0.02944
-0.00406
-0.02818
-0.03799
-0.03523
-0.03011
-0.01827
-0.00119
0.01067
0.01419
0.01744
0.01374
0.00788
0.00432
-0.00471
-0.00531
-0.00522
-0.00547
-0.00360
-0.00258
0.00240
0.00226
-0.00507
-0.00196
0.00526
0.00192
0.00204
-0.00068
0.00521
0.00408
0.00234
-0.00355
-0.01051
-0.00319
-0.00520
-0.00073
0.00487
0.00894
0.00764
-0.00446
-0.00662
-0.00247
0.00168
0.00279
0.00133
0.00406
-0.00129
-0.00375
-0.00161
0.00083
-0.00188
-0.00563
-0.00713
0.00064
0.00910
0.00889
0.01035
0.00759
0.00250
-0.00950
-0.01698
-0.01406
-0.01565
-0.01167
0.00411
0.02071
0.03056
0.02937
0.02405
0.00678
-0.01230
-0.03257
-0.05064
-0.05520
-0.04735
-0.02164
0.01954
0.06459
0.10820
0.13932
0.13458
0.04886
-0.12603
-0.30671
-0.36655
-0.20134
0.13432
0.41794
0.42256
0.18127
-0.08347
-0.23446
-0.24037
-0.15452
-0.04695
0.03506
0.07028
0.08207
0.07349
0.04956
0.02167
-0.00789
-0.02556
-0.03179
-0.03051
-0.02302
-0.01557
-0.00271
0.00837
0.01049
0.01360
0.01331
0.01104
0.00356
-0.00300
-0.00238
-0.00483
-0.00511
-0.00842
-0.00374
0.00101
-0.00036
0.00100
-0.00055
0.00569
0.00429
0.00241
0.00056
0.00079
0.00062
-0.00537
-0.00620
-0.00060
0.00504
0.00154
-0.00217
-0.00084
-0.00166
-0.00164
0.00040
0.00210
0.00509
0.00262
0.00057
0.00043
0.00038
-0.00308
-0.00504
-0.00605
0.00090
0.00067
-0.00408
-0.00113
0.00601
0.01132
0.00847
0.00548
-0.00046
-0.00447
-0.01162
-0.01847
-0.01711
-0.00920
0.00476
0.01664
0.02491
0.03281
0.02473
0.01019
-0.00936
-0.03094
-0.04607
-0.05449
-0.05355
-0.02840
0.01324
0.05454
0.10406
0.14308
0.14727
0.07517
-0.09572
-0.29516
-0.38599
-0.26187
0.07112
0.40421
0.47420
0.25614
-0.04974
-0.24372
-0.26595
-0.17940
-0.06931
0.02214
0.07844
0.09125
0.08036
0.05750
0.02787
-0.00287
-0.02817
-0.03786
-0.03661
-0.02568
-0.01453
-0.00204
0.00783
0.01553
0.01342
0.00927
0.01104
0.00606
-0.00008
-0.00349
-0.00578
-0.00567
-0.00551
-0.00848
-0.00179
0.00276
-0.00123
0.00227
0.00507
0.00691
0.00729
-0.00207
-0.00561
-0.00220
0.00126
-0.00177
-0.00524
-0.00161
0.00101
0.00193
0.00247
-0.00034
0.00121
0.00257
-0.00273
-0.00251
0.00222
0.00171
0.00058
0.00002
-0.00041
0.00205
-0.00256
-0.00326
-0.00185
-0.00039
-0.00162
-0.00241
-0.00081
0.00336
0.01004
0.01120
0.00604
0.00107
-0.00847
-0.01726
-0.01857
-0.01802
-0.00358
0.01046
0.02010
0.02861
0.03386
0.02257
0.00689
-0.01574
-0.04708
-0.06199
-0.05936
-0.04098
-0.00979
0.03230
0.08383
0.13083
0.15727
0.12981
0.00951
-0.19731
-0.39018
-0.39227
-0.12483
0.28729
0.52987
0.40738
0.07811
-0.18959
-0.28128
-0.23219
-0.12398
-0.01655
0.05668
0.09183
0.08910
0.07034
0.04585
0.01352
-0.01620
-0.03523
-0.03957
-0.03574
-0.02311
-0.00932
0.00596
0.01276
0.01257
0.01670
0.01646
0.00688
-0.00144
-0.00664
-0.00268
-0.00161
-0.00573
-0.01057
-0.00843
-0.00120
0.00208
0.00604
0.00986
0.00820
0.00053
-0.00263
-0.00444
-0.00105
-0.00063
-0.00443
-0.00284
0.00204
0.00281
0.00044
-0.00215
-0.00111
0.00258
0.00403
-0.00085
0.00148
0.00115
-0.00352
-0.00436
-0.00291
0.00241
0.00558
0.00321
-0.00002
0.00014
-0.00474
-0.00791
-0.00756
0.00144
0.00825
0.00985
0.00871
0.00628
0.00101
-0.00702
-0.01178
-0.01416
-0.01668
-0.01123
0.00330
0.01633
0.02620
0.03140
0.02571
0.01030
-0.01062
-0.03097
-0.04852
-0.05722
-0.04439
-0.02158
0.01257
0.05507
0.10151
0.13468
0.13381
0.06107
-0.09882
-0.27790
-0.35088
-0.22480
0.07105
0.36265
0.42551
0.23588
-0.03336
-0.21336
-0.25038
-0.17591
-0.06334
0.02209
0.06806
0.08203
0.07658
0.05594
0.02575
-0.00485
-0.02342
-0.02751
-0.03045
-0.02986
-0.01989
-0.00451
0.00764
0.01072
0.01343
0.01732
0.01396
0.00709
-0.00190
-0.00738
-0.00919
-0.00638
-0.00485
-0.00517
-0.00219
0.00025
0.00512
0.00554
0.00342
0.00343
-0.00019
-0.00289
0.00162
0.00276
-0.00336
-0.00593
-0.00235
0.00001
0.00055
-0.00008
0.00295
0.00423
-0.00016
-0.00351
-0.00019
0.00332
0.00083
-0.00231
-0.00389
0.00240
0.00392
-0.00155
-0.00114
0.00093
-0.00061
-0.00331
-0.00467
-0.00471
0.00131
0.00668
0.00926
0.01180
0.00779
-0.00150
-0.01407
-0.01842
-0.01625
-0.01566
-0.00467
0.01258
0.02671
0.03647
0.03542
0.02004
-0.00697
-0.03421
-0.05576
-0.06260
-0.05056
-0.02809
0.00641
0.05532
0.10277
0.13985
0.14861
0.09014
-0.06700
-0.27698
-0.39856
-0.29985
0.02601
0.38639
0.50008
0.29216
-0.02446
-0.23478
-0.27148
-0.19257
-0.07872
0.01531
0.06779
0.08614
0.08587
0.06591
0.02952
-0.00152
-0.02203
-0.03213
-0.03784
-0.02995
-0.02076
-0.00528
0.00820
0.01283
0.01649
0.01374
0.01176
0.00636
-0.00166
-0.00445
-0.00509
-0.00542
-0.00733
-0.00544
-0.00079
-0.00113
-0.00101
0.00275
0.00578
0.00428
0.00359
0.00362
0.00155
-0.00160
-0.00410
-0.00726
-0.00421
-0.00191
-0.00043
0.00147
0.00545
0.00806
0.00228
-0.00309
-0.00299
-0.00177
-0.00237
-0.00234
-0.00126
0.00166
0.00438
0.00387
0.00102
0.00183
-0.00091
-0.00451
-0.00809
-0.00631
-0.00185
0.00160
0.00594
0.01302
0.01533
0.00528
-0.00383
-0.00977
-0.01417
-0.02322
-0.02079
-0.00273
0.01593
0.02452
0.02807
0.03143
0.02304
0.00199
-0.02257
-0.04179
-0.05626
-0.05811
-0.04482
-0.01134
0.03857
0.08771
0.12792
0.14878
0.12419
0.01215
-0.19494
-0.38849
-0.38819
-0.11361
0.28744
0.51092
0.40066
0.08885
-0.18303
-0.28407
-0.23500
-0.12332
-0.01802
0.05552
0.09065
0.09560
0.07570
0.04043
0.00732
-0.01664
-0.02997
-0.03850
-0.03780
-0.02468
-0.00688
0.00337
0.00995
0.01792
0.02022
0.01531
0.00385
-0.00286
-0.00333
-0.00478
-0.00947
-0.00825
-0.00176
0.00136
0.00168
-0.00022
-0.00086
0.00223
0.00152
0.00356
0.00559
0.00290
-0.00141
-0.00585
-0.00251
0.00046
-0.00260
-0.00547
-0.00218
0.00408
0.00694
0.00339
0.00178
0.00003
-0.00282
-0.00563
-0.00370
0.00244
0.00347
0.00129
-0.00083
0.00051
0.00276
0.00098
-0.00189
-0.00425
-0.00540
-0.00503
-0.00258
0.00801
0.01186
0.00941
0.00781
0.00215
-0.00800
-0.02001
-0.02531
-0.01606
0.00276
0.01533
0.02047
0.03002
0.03332
0.01701
-0.00551
-0.02681
-0.04283
-0.05230
-0.05132
-0.03313
0.00191
0.04464
0.08415
0.12157
0.13860
0.09310
-0.04190
-0.22278
-0.33552
-0.27990
-0.03547
0.27687
0.42702
0.31043
0.04798
-0.17071
-0.24267
-0.19510
-0.10065
-0.01197
0.05286
0.08615
0.08358
0.06040
0.03143
0.00699
-0.01418
-0.03029
-0.03596
-0.02974
-0.01772
-0.00917
0.00343
0.01353
0.01588
0.01262
0.00669
0.00645
0.00384
-0.00071
-0.00627
-0.00730
-0.00517
-0.00496
-0.00580
-0.00132
0.00479
0.00320
0.00198
0.00333
0.00543
0.00280
-0.00163
-0.00368
-0.00186
-0.00079
-0.00250
-0.00381
-0.00116
0.00161
0.00360
0.00246
0.00121
0.00224
-0.00049
-0.00395
-0.00474
0.00071
0.00286
0.00237
0.00214
0.00162
0.00036
-0.00174
-0.00448
-0.00493
-0.00239
-0.00122
-0.00075
0.00433
0.00917
0.00717
0.00533
0.00400
-0.00010
-0.01038
-0.02000
-0.02086
-0.00966
0.00436
0.01200
0.02154
0.03267
0.03062
0.01632
-0.00561
-0.02700
-0.04481
-0.06086
-0.05747
-0.03406
0.00468
0.05131
0.09995
0.14179
0.15378
0.09572
-0.06164
-0.27125
-0.39862
-0.30786
0.01116
0.37276
0.49773
0.31109
-0.00493
-0.23020
-0.27739
-0.20059
-0.08728
0.01062
0.07163
0.09134
0.08403
0.06224
0.03409
0.00408
-0.02162
-0.03646
-0.03810
-0.03051
-0.02025
-0.00791
0.00526
0.01550
0.01910
0.01610
0.00969
0.00714
0.00044
-0.00765
-0.00758
-0.00537
-0.00617
-0.00667
-0.00206
0.00246
0.00487
0.00177
0.00173
0.00409
0.00251
-0.00023
-0.00201
-0.00056
0.00107
-0.00003
-0.00167
-0.00264
-0.00259
-0.00218
-0.00287
0.00134
0.00673
0.00663
0.00069
-0.00342
-0.00179
0.00001
-0.00101
-0.00331
-0.00253
0.00298
0.00544
0.00205
-0.00189
-0.00359
-0.00228
-0.00238
-0.00312
-0.00164
0.00235
0.00861
0.01175
0.01093
0.00157
-0.01243
-0.01939
-0.02030
-0.01442
-0.00135
0.01369
0.02634
0.03441
0.02927
0.01266
-0.00735
-0.02943
-0.04759
-0.05456
-0.04767
-0.02736
0.00406
0.04978
0.09807
0.13659
0.14209
0.07901
-0.07320
-0.27185
-0.37948
-0.27069
0.05262
0.38190
0.46032
0.25484
-0.03671
-0.22360
-0.25385
-0.17854
-0.07194
0.01730
0.06961
0.08801
0.07919
0.05694
0.02740
-0.00312
-0.02412
-0.03228
-0.03289
-0.02779
-0.01808
-0.00455
0.00733
0.01353
0.01364
0.01338
0.01165
0.00491
-0.00049
-0.00400
-0.00542
-0.00550
-0.00494
-0.00498
-0.00379
-0.00215
0.00001
0.00261
0.00632
0.00633
0.00324
0.00190
-0.00012
-0.00096
-0.00345
-0.00582
-0.00324
-0.00094
-0.00098
-0.00033
0.00450
0.00700
0.00078
-0.00333
-0.00224
-0.00069
0.00113
0.00032
-0.00143
0.00268
0.00425
-0.00215
-0.00452
-0.00014
0.00114
-0.00236
-0.00513
-0.00370
0.00223
0.00569
0.00630
0.00887
0.00737
0.00116
-0.00598
-0.01208
-0.01555
-0.01658
-0.01072
0.00197
0.01603
0.02635
0.03274
0.03066
0.01369
-0.01352
-0.04026
-0.05517
-0.05417
-0.04182
-0.01941
0.01580
0.06353
0.10972
0.13389
0.12735
0.05466
-0.11311
-0.30013
-0.36226
-0.20631
0.11281
0.39562
0.43341
0.21004
-0.07643
-0.24185
-0.24703
-0.15470
-0.04587
0.03132
0.06856
0.07949
0.07417
0.05407
0.02306
-0.00538
-0.02344
-0.03319
-0.03511
-0.02630
-0.01284
-0.00305
0.00517
0.01280
0.01691
0.01567
0.01034
0.00228
-0.00231
-0.00286
-0.00670
-0.00937
-0.00651
-0.00159
-0.00020
-0.00047
0.00255
0.00627
0.00356
-0.00049
-0.00063
0.00046
0.00264
0.00040
-0.00168
-0.00153
-0.00186
-0.00253
-0.00316
-0.00036
0.00180
0.00214
0.00166
0.00145
0.00197
0.00112
-0.00153
-0.00383
0.00062
0.00358
-0.00112
-0.00398
-0.00070
0.00390
0.00241
-0.00185
-0.00575
-0.00579
-0.00132
0.00320
0.00791
0.01003
0.00903
0.00393
-0.00362
-0.01240
-0.02057
-0.02188
-0.01289
0.00767
0.02362
0.02891
0.03184
0.02861
0.01188
-0.01764
-0.04493
-0.05896
-0.05913
-0.04362
-0.01312
0.02801
0.07425
0.11649
0.14909
0.14033
0.04090
-0.15705
-0.36251
-0.40779
-0.18292
0.21787
0.49923
0.44502
0.14593
-0.14770
-0.28069
-0.25246
-0.14256
-0.02893
0.04621
0.08413
0.09508
0.08023
0.04702
0.01221
-0.01337
-0.02972
-0.03726
-0.03688
-0.02647
-0.00954
0.00267
0.01038
0.01688
0.01758
0.01164
0.00480
0.00163
-0.00234
-0.00480
-0.00514
-0.00471
-0.00363
-0.00358
-0.00455
-0.00272
0.00253
0.00569
0.00524
0.00335
0.00323
0.00175
-0.00091
-0.00320
-0.00399
-0.00155
-0.00202
-0.00295
-0.00115
0.00160
0.00395
0.00199
0.00173
0.00154
-0.00075
-0.00119
-0.00274
-0.00080
0.00241
0.00008
0.00005
0.00215
0.00098
-0.00297
-0.00453
-0.00272
-0.00215
-0.00189
0.00061
0.00816
0.01391
0.00999
0.00150
-0.00721
-0.01232
-0.01680
-0.02025
-0.01159
0.00724
0.01997
0.02350
0.02806
0.02620
0.01318
-0.00926
-0.03386
-0.04965
-0.05476
-0.04906
-0.02349
0.01964
0.06563
0.10430
0.12956
0.12658
0.04901
-0.11236
-0.28439
-0.34242
-0.19762
0.10172
0.36811
0.40984
0.21212
-0.05926
-0.22569
-0.23861
-0.15614
-0.05253
0.02462
0.06828
0.08217
0.07344
0.05079
0.02246
-0.00329
-0.02173
-0.03245
-0.03383
-0.02764
-0.01523
-0.00315
0.00428
0.01489
0.01927
0.01743
0.00774
-0.00037
-0.00122
-0.00370
-0.00826
-0.00740
-0.00364
-0.00239
0.00008
-0.00126
0.00162
0.00302
0.00264
0.00370
0.00334
0.00205
-0.00093
-0.00415
-0.00107
0.00105
-0.00470
-0.00514
0.00090
0.00472
0.00174
-0.00025
-0.00083
0.00128
0.00224
0.00015
-0.00199
-0.00052
0.00212
-0.00064
-0.00117
0.00045
0.00117
-0.00105
-0.00360
-0.00314
-0.00172
-0.00111
0.00145
0.00607
0.01002
0.00891
0.00213
-0.00262
-0.00837
-0.01614
-0.01986
-0.01419
0.00093
0.01452
0.02178
0.03181
0.03431
0.01705
-0.00713
-0.03210
-0.04790
-0.05477
-0.05436
-0.03207
0.00561
0.05034
0.09962
0.13894
0.14748
0.08946
-0.06466
-0.26973
-0.38435
-0.28722
0.01837
0.35833
0.47742
0.29749
-0.00753
-0.21896
-0.26631
-0.19483
-0.08516
0.00831
0.06812
0.09092
0.08471
0.06047
0.02992
0.00241
-0.02092
-0.03596
-0.03776
-0.02765
-0.01580
-0.00652
0.00393
0.01163
0.01777
0.01457
0.01016
0.00774
0.00193
-0.00474
-0.00986
-0.00962
-0.00489
-0.00131
-0.00219
-0.00057
0.00335
0.00316
0.00170
0.00138
0.00385
0.00490
0.00093
-0.00270
-0.00471
-0.00354
-0.00381
-0.00101
0.00212
0.00324
0.00140
-0.00038
-0.00055
0.00128
0.00236
-0.00246
-0.00178
0.00116
0.00207
0.00004
-0.00198
-0.00075
0.00321
0.00269
-0.00231
-0.00568
-0.00467
-0.00279
-0.00260
0.00210
0.01163
0.01529
0.00746
0.00071
-0.00484
-0.01398
-0.02525
-0.02170
-0.00406
0.01006
0.01892
0.02650
0.03527
0.03023
0.00777
-0.02026
-0.04429
-0.05729
-0.05822
-0.04552
-0.01201
0.03295
0.07831
0.12043
0.14750
0.13137
0.02952
-0.17083
-0.37189
-0.39389
-0.14814
0.24351
0.49615
0.42261
0.12134
-0.16219
-0.28192
-0.24286
-0.13019
-0.02317
0.05112
0.08761
0.09315
0.07329
0.04191
0.01193
-0.01319
-0.02917
-0.03741
-0.03483
-0.02497
-0.01131
0.00216
0.01306
0.01733
0.01509
0.00968
0.00510
0.00290
0.00161
-0.00171
-0.00860
-0.01044
-0.00842
-0.00156
0.00019
0.00213
0.00475
0.00272
0.00049
0.00286
0.00523
0.00087
-0.00158
-0.00289
0.00045
-0.00097
-0.00817
-0.00505
0.00186
0.00421
0.00478
0.00275
0.00096
-0.00201
-0.00245
-0.00019
0.00181
0.00170
-0.00103
-0.00228
0.00040
0.00130
-0.00135
-0.00298
0.00033
-0.00060
-0.00538
-0.00245
0.00451
0.01251
0.00994
0.00690
0.00035
-0.00844
-0.01847
-0.02567
-0.01619
0.00057
0.01729
0.02592
0.03163
0.02946
0.01662
-0.00641
-0.02946
-0.04498
-0.05436
-0.05127
-0.03211
0.00421
0.04997
0.09615
0.13019
0.13771
0.07924
-0.06868
-0.24851
-0.34094
-0.25369
0.00756
0.30915
0.43183
0.28353
0.00842
-0.19527
-0.24674
-0.18401
-0.08343
0.00577
0.06349
0.08533
0.07718
0.05449
0.02677
0.00415
-0.01654
-0.03237
-0.03600
-0.02819
-0.01536
-0.00484
0.00556
0.01267
0.01688
0.01374
0.00523
0.00068
0.00327
-0.00040
-0.00580
-0.00716
-0.00616
-0.00238
-0.00295
-0.00211
0.00442
0.00686
0.00099
-0.00126
-0.00044
0.00298
0.00309
-0.00068
-0.00202
-0.00015
0.00008
-0.00636
-0.00392
0.00166
0.00263
0.00099
0.00151
0.00470
-0.00132
-0.00297
-0.00020
0.00112
0.00202
0.00007
-0.00098
0.00163
0.00113
-0.00554
-0.00694
-0.00340
0.00056
0.00173
0.00281
0.00970
0.01454
0.00746
-0.00217
-0.00824
-0.01226
-0.01910
-0.02345
-0.01250
0.00803
0.02581
0.03260
0.03485
0.03000
0.00836
-0.02063
-0.04553
-0.05739
-0.05626
-0.04676
-0.01972
0.02437
0.07247
0.11892
0.15013
0.14318
0.05265
-0.14375
-0.34618
-0.40018
-0.21103
0.15699
0.46338
0.47011
0.20117
-0.10530
-0.27361
-0.26918
-0.16433
-0.04674
0.03831
0.08309
0.09780
0.08489
0.05148
0.01724
-0.00909
-0.02834
-0.03916
-0.03862
-0.02555
-0.01013
0.00153
0.00658
0.01097
0.01716
0.01590
0.00898
0.00391
0.00114
-0.00670
-0.01027
-0.00588
-0.00492
-0.00304
-0.00015
-0.00030
0.00368
0.00209
0.00024
0.00103
0.00230
0.00526
0.00351
0.00024
-0.00255
-0.00174
-0.00632
-0.00762
-0.00272
0.00292
0.00404
0.00439
0.00241
0.00290
0.00236
-0.00511
-0.00521
0.00058
0.00473
0.00193
-0.00152
-0.00286
0.00102
-0.00004
-0.00482
-0.00674
-0.00329
0.00197
0.00594
0.01305
0.01680
0.00590
-0.00674
-0.01260
-0.01995
-0.02239
-0.01407
0.00313
0.01783
0.02474
0.02778
0.02994
0.01996
-0.00490
-0.02904
-0.04831
-0.05495
-0.05147
-0.03538
-0.00012
0.04638
0.09996
0.13526
0.14633
0.10141
-0.04023
-0.25333
-0.40495
-0.33389
-0.00673
0.37591
0.51442
0.32248
-0.00676
-0.23079
-0.28245
-0.20455
-0.08714
0.01057
0.06964
0.09228
0.08905
0.06544
0.03195
0.00106
-0.02393
-0.03474
-0.03592
-0.03336
-0.01827
-0.00551
0.00510
0.00946
0.01515
0.01953
0.01697
0.00852
-0.00154
-0.00649
-0.00949
-0.01113
-0.00931
-0.00135
0.00108
-0.00034
0.00201
0.00650
0.00747
0.00082
-0.00158
-0.00053
0.00192
-0.00172
-0.00472
0.00157
0.00067
-0.00347
-0.00652
0.00082
0.00604
0.00347
-0.00182
-0.00099
0.00316
0.00243
-0.00024
-0.00364
0.00122
0.00049
-0.00154
-0.00083
-0.00006
-0.00338
-0.00446
-0.00475
0.00052
0.00961
0.00776
0.00900
0.00777
0.00053
-0.00732
-0.01257
-0.01839
-0.02085
-0.00930
0.00931
0.02025
0.02541
0.02972
0.02574
0.00920
-0.01166
-0.03171
-0.04931
-0.05587
-0.04510
-0.02113
0.01265
0.05567
0.10272
0.13648
0.13037
0.05898
-0.09656
-0.27451
-0.35104
-0.22925
0.06461
0.36084
0.44123
0.24439
-0.04101
-0.22556
-0.25020
-0.17125
-0.06722
0.02252
0.07120
0.08525
0.07579
0.05642
0.02807
-0.00542
-0.02692
-0.03267
-0.03160
-0.02465
-0.01539
-0.00704
0.00488
0.01162
0.01388
0.01763
0.01413
0.00741
-0.00118
-0.00870
-0.00708
-0.00742
-0.00830
-0.00675
0.00045
0.00353
0.00434
0.00423
0.00354
0.00433
0.00001
-0.00330
-0.00061
0.00332
-0.00223
-0.00627
-0.00233
0.00058
0.00004
0.00087
0.00275
0.00284
0.00105
-0.00355
-0.00265
0.00204
0.00200
0.00118
0.00064
0.00180
0.00074
-0.00177
-0.00313
-0.00544
-0.00471
-0.00235
-0.00232
0.00537
0.01070
0.01347
0.01121
-0.00001
-0.00723
-0.01499
-0.02058
-0.01883
-0.01090
0.00414
0.01720
0.02600
0.03991
0.03268
0.01200
-0.01246
-0.03872
-0.05613
-0.06330
-0.05268
-0.02368
0.01980
0.06614
0.11427
0.15040
0.14864
0.06641
-0.11696
-0.32572
-0.40630
-0.24824
0.10517
0.44837
0.50153
0.23536
-0.09093
-0.27145
-0.26832
-0.16929
-0.05805
0.02914
0.07707
0.09250
0.08439
0.05929
0.02869
-0.00385
-0.03111
-0.04176
-0.03640
-0.02510
-0.01695
-0.00793
0.00857
0.01899
0.01748
0.01696
0.01058
0.00354
-0.00154
-0.00633
-0.01103
-0.00579
-0.00453
-0.00376
0.00104
-0.00084
0.00039
0.00124
0.00414
0.00608
0.00530
0.00128
-0.00102
-0.00343
-0.00149
-0.00417
-0.00565
-0.00034
0.00180
0.00227
-0.00109
0.00112
0.00278
0.00427
0.00119
-0.00550
-0.00227
0.00253
0.00329
0.00040
0.00105
0.00239
-0.00766
-0.01006
-0.00508
-0.00098
0.00442
0.00858
0.01301
0.01175
0.00436
-0.00449
-0.00670
-0.01497
-0.02079
-0.01892
-0.01041
0.01152
0.02465
0.02969
0.03460
0.02974
0.00428
-0.02433
-0.04503
-0.05597
-0.05584
-0.04391
-0.01284
0.02758
0.08229
0.12370
0.14402
0.13369
0.03090
-0.17090
-0.37011
-0.39660
-0.15823
0.24162
0.51020
0.43082
0.11159
-0.16846
-0.28365
-0.24256
-0.12478
-0.01938
0.05176
0.08477
0.09132
0.07419
0.04196
0.00960
-0.01081
-0.02915
-0.03904
-0.03656
-0.02445
-0.00673
0.00264
0.00908
0.01387
0.01689
0.01459
0.00884
0.00208
-0.00230
-0.00593
-0.01089
-0.00672
-0.00294
-0.00373
-0.00398
-0.00196
0.00370
0.01306
0.00979
-0.00199
-0.00173
0.00219
-0.00141
-0.01083
-0.00482
0.00382
-0.00075
-0.00064
0.00503
0.00209
-0.00092
-0.00200
-0.00169
0.00147
0.00514
0.00265
-0.00375
-0.00229
0.00177
-0.00208
-0.00123
0.00052
-0.00255
-0.00387
-0.00414
0.00314
0.00679
0.00670
0.00471
0.00663
0.00385
-0.00394
-0.01417
-0.01914
-0.01746
-0.00853
0.00637
0.01915
0.02704
0.03223
0.02626
0.00522
-0.01249
-0.03608
-0.05395
-0.05458
-0.04212
-0.01833
0.01761
0.06698
0.11282
0.13834
0.12629
0.03955
-0.12867
-0.30587
-0.35395
-0.19754
0.13523
0.42362
0.42480
0.17688
-0.10060
-0.23941
-0.23536
-0.15085
-0.04487
0.03585
0.07403
0.08293
0.07589
0.05213
0.01718
-0.00793
-0.02887
-0.03610
-0.03228
-0.02725
-0.01180
0.00359
0.01220
0.01329
0.01315
0.01239
0.00695
0.00116
-0.00354
-0.00544
-0.00347
-0.00378
-0.00421
-0.00316
-0.00028
0.00070
-0.00366
0.00018
0.00619
0.00726
0.00062
-0.00078
0.00465
-0.00017
-0.00402
-0.00746
-0.00280
-0.00125
0.00050
0.00305
0.00270
0.00139
0.00045
-0.00125
-0.00156
0.00245
0.00247
0.00060
-0.00155
0.00286
0.00097
-0.00513
-0.00743
-0.00348
0.00046
-0.00322
-0.00071
0.00974
0.01652
0.01419
-0.00056
-0.00627
-0.01375
-0.01781
-0.02007
-0.01395
0.00560
0.01389
0.02119
0.02913
0.03629
0.02159
-0.00438
-0.02823
-0.05077
-0.06255
-0.05949
-0.03995
0.00545
0.05623
0.10451
0.14294
0.15412
0.10768
-0.05080
-0.27829
-0.42482
-0.33973
0.00571
0.40677
0.53689
0.31895
-0.02241
-0.24613
-0.28892
-0.20176
-0.07984
0.01192
0.06844
0.09148
0.08828
0.06542
0.03515
0.00497
-0.02155
-0.04227
-0.04063
-0.02977
-0.01770
-0.00375
0.00383
0.01323
0.01818
0.01526
0.00949
0.00423
0.00381
-0.00346
-0.01020
-0.00381
-0.00359
-0.00188
-0.00863
-0.00515
0.00386
0.00337
0.00389
0.00104
0.00500
0.00614
0.00389
-0.00196
-0.00248
-0.00314
-0.00459
-0.00700
-0.00485
0.00223
0.00101
0.00185
0.00724
0.00662
0.00252
-0.00223
-0.00523
-0.00024
0.00048
-0.00280
-0.00128
-0.00003
0.00128
-0.00254
-0.00481
-0.00129
0.00045
0.00349
0.00529
0.01252
0.01250
0.00081
-0.00999
-0.01473
-0.02017
-0.02106
-0.00850
0.00786
0.02729
0.03531
0.03169
0.02286
-0.00007
-0.02370
-0.04521
-0.05464
-0.04933
-0.03577
-0.01058
0.02925
0.07987
0.11831
0.14112
0.12542
0.01806
-0.18668
-0.36998
-0.37375
-0.11331
0.27754
0.49378
0.37648
0.07487
-0.17253
-0.26829
-0.22051
-0.11260
-0.01231
0.05482
0.08152
0.08032
0.06416
0.04171
0.01296
-0.01057
-0.02367
-0.03595
-0.03798
-0.02878
-0.01127
0.00532
0.01443
0.01426
0.01573
0.01433
0.00716
0.00023
-0.00502
-0.00346
-0.00502
-0.00550
-0.01071
-0.00151
0.00132
-0.00235
0.00212
0.00529
0.00698
0.00291
0.00254
0.00132
-0.00181
-0.00661
-0.00428
0.00067
0.00244
-0.00283
-0.00527
0.00057
0.00747
0.00221
-0.00260
0.00051
0.00109
0.00458
-0.00001
-0.00276
0.00023
-0.00108
-0.00234
-0.00320
-0.00372
-0.00322
-0.00150
0.00198
0.00710
0.01386
0.01158
0.00101
-0.00265
-0.01119
-0.02179
-0.01968
-0.01060
0.00423
0.01657
0.02031
0.02472
0.03058
0.01942
-0.00372
-0.02538
-0.04089
-0.05689
-0.05889
-0.03590
0.00213
0.04481
0.09518
0.13669
0.14893
0.10364
-0.05007
-0.25766
-0.38701
-0.30774
-0.00612
0.35684
0.48856
0.30326
-0.00191
-0.21807
-0.26501
-0.19170
-0.08177
0.00253
0.06294
0.09286
0.08193
0.05775
0.03009
0.00246
-0.01819
-0.03361
-0.03286
-0.02822
-0.01759
-0.01014
0.00144
0.01456
0.01903
0.01471
0.00846
0.00618
0.00000
-0.00482
-0.00721
-0.00316
-0.00262
-0.00598
-0.00718
0.00116
0.00305
0.00287
0.00123
0.00299
0.00362
0.00299
0.00094
-0.00281
-0.00023
0.00112
-0.00461
-0.00539
0.00069
-0.00194
0.00139
-0.00158
0.00483
0.00476
-0.00204
-0.00185
0.00132
0.00454
0.00157
0.00084
-0.00161
-0.00282
-0.00634
-0.00816
-0.00638
0.00239
0.00369
0.00823
0.01326
0.01373
0.00726
-0.00559
-0.01381
-0.02072
-0.01872
-0.01714
-0.00287
0.01363
0.02475
0.03762
0.03566
0.02063
-0.00067
-0.02976
-0.05736
-0.06550
-0.05350
-0.03388
0.00089
0.05220
0.10062
0.14038
0.15517
0.10955
-0.03601
-0.26394
-0.43044
-0.36059
-0.01143
0.41029
0.54783
0.32458
-0.01591
-0.24351
-0.28951
-0.21006
-0.08611
0.01173
0.07147
0.09623
0.09034
0.06892
0.03173
-0.00414
-0.02462
-0.03568
-0.03852
-0.02850
-0.01602
-0.00677
0.00503
0.01332
0.01486
0.01410
0.01319
0.00692
0.00088
-0.00402
-0.00635
-0.00713
-0.01152
-0.00691
0.00331
0.00381
0.00109
0.00094
-0.00022
0.00670
0.00384
-0.00067
0.00078
0.00267
-0.00295
-0.00746
-0.00139
0.00092
-0.00193
-0.00474
0.00267
0.00588
0.00372
-0.00102
-0.00003
-0.00001
0.00056
0.00058
-0.00109
-0.00077
0.00212
-0.00099
-0.00622
-0.00440
-0.00225
-0.00198
-0.00025
0.01370
0.01289
0.00706
0.00134
-0.00394
-0.01107
-0.01982
-0.01827
-0.00980
0.00426
0.01190
0.02213
0.03324
0.03264
0.01605
-0.01235
-0.03495
-0.04959
-0.05670
-0.04744
-0.02140
0.01779
0.05660
0.09347
0.12822
0.13827
0.07679
-0.08938
-0.28503
-0.37529
-0.25016
0.08038
0.40029
0.45534
0.23070
-0.06192
-0.23846
-0.24979
-0.16555
-0.06074
0.02402
0.07139
0.08842
0.07888
0.05245
0.02452
-0.00080
-0.02632
-0.03867
-0.03617
-0.02560
-0.01314
-0.00201
0.00873
0.01498
0.01402
0.01252
0.00829
0.00483
0.00123
-0.00361
-0.00904
-0.00853
-0.00343
-0.00384
-0.00487
0.00001
0.00610
0.00429
0.00252
0.00317
0.00385
0.00191
-0.00067
-0.00644
-0.00129
-0.00095
-0.00376
-0.00070
-0.00244
0.00357
0.00272
-0.00185
0.00316
0.00345
-0.00018
-0.00094
-0.00051
0.00182
-0.00010
-0.00230
-0.00236
-0.00009
-0.00301
-0.00487
-0.00337
0.00320
0.00638
0.00399
0.00894
0.00993
0.00405
-0.00635
-0.01561
-0.01609
-0.01680
-0.01353
0.00252
0.01931
0.02979
0.03323
0.02738
0.01116
-0.01168
-0.03945
-0.05744
-0.05891
-0.04209
-0.01531
0.02108
0.06513
0.11045
0.14057
0.13303
0.04480
-0.13321
-0.31821
-0.37292
-0.19173
0.15751
0.43790
0.42017
0.16477
-0.10321
-0.24186
-0.23800
-0.14744
-0.04024
0.03545
0.07376
0.08350
0.07309
0.04778
0.01900
-0.00720
-0.02374
-0.03359
-0.03354
-0.02593
-0.01364
-0.00067
0.01030
0.01292
0.01138
0.01227
0.01079
0.00492
-0.00089
-0.00389
-0.00633
-0.00602
-0.00660
-0.00584
-0.00282
0.00049
0.00393
0.00511
0.00526
0.00360
-0.00264
-0.00072
0.00371
0.00182
-0.00332
-0.00436
-0.00388
-0.00422
-0.00074
0.00195
0.00565
0.00547
-0.00139
-0.00455
-0.00054
0.00215
0.00319
0.00159
-0.00011
-0.00116
-0.00182
-0.00287
-0.00327
-0.00402
-0.00296
-0.00166
0.00257
0.01087
0.01599
0.00915
-0.00064
-0.00545
-0.01716
-0.02187
-0.02090
-0.00795
0.01107
0.02108
0.02772
0.03499
0.02704
0.00691
-0.01546
-0.04096
-0.05681
-0.06192
-0.04894
-0.01781
0.03006
0.07893
0.12110
0.15224
0.14040
0.03914
-0.16249
-0.36519
-0.40971
-0.18599
0.22167
0.50726
0.44907
0.14382
-0.15311
-0.28386
-0.25090
-0.14069
-0.03103
0.04827
0.08690
0.09307
0.07599
0.04533
0.01797
-0.01001
-0.03146
-0.04117
-0.03705
-0.02351
-0.01024
0.00280
0.00932
0.01542
0.01470
0.01064
0.01193
0.00899
0.00012
-0.01250
-0.01558
-0.00786
-0.00184
-0.00021
0.00202
0.00510
0.00196
0.00085
-0.00136
-0.00005
0.00392
0.00490
0.00166
-0.00291
-0.00010
-0.00305
-0.00510
-0.00627
-0.00298
0.00282
0.00764
0.00707
0.00123
-0.00237
-0.00421
-0.00260
0.00018
0.00525
0.00273
-0.00129
-0.00241
-0.00168
-0.00140
-0.00722
-0.00720
0.00163
0.00615
0.01113
0.01039
0.00900
0.00410
-0.00983
-0.01683
-0.01869
-0.01517
-0.00908
0.00535
0.01926
0.02895
0.03473
0.02646
0.00574
-0.01957
-0.04496
-0.05505
-0.05035
-0.03843
-0.01106
0.02858
0.07596
0.11921
0.13858
0.11417
0.01057
-0.17225
-0.33884
-0.34896
-0.11848
0.24032
0.45529
0.36521
0.09349
-0.14862
-0.24866
-0.21622
-0.12070
-0.01977
0.04743
0.08033
0.08283
0.06670
0.04106
0.00860
-0.01570
-0.02613
-0.03104
-0.02912
-0.02326
-0.01208
0.00461
0.01201
0.00982
0.00965
0.01317
0.00875
0.00208
0.00023
-0.00228
-0.00424
-0.00877
-0.00640
-0.00590
-0.00362
0.00177
0.00350
0.00567
0.00458
0.00414
0.00069
0.00136
-0.00019
-0.00229
-0.00495
-0.00389
-0.00236
-0.00050
0.00166
0.00207
0.00358
0.00184
-0.00182
-0.00464
0.00018
0.00479
0.00388
0.00168
0.00116
-0.00322
-0.00469
-0.00553
-0.00237
-0.00165
-0.00117
0.00054
0.00397
0.01292
0.01329
0.00355
-0.00497
-0.00883
-0.01329
-0.01581
-0.01670
-0.00424
0.00870
0.01801
0.02841
0.03539
0.02714
0.00221
-0.02563
-0.04702
-0.05955
-0.05773
-0.03758
-0.00044
0.04648
0.08985
0.13000
0.14730
0.10379
-0.03500
-0.23331
-0.37042
-0.31336
-0.03585
0.31198
0.46947
0.32515
0.03357
-0.19182
-0.26010
-0.20231
-0.09603
-0.00368
0.05934
0.08487
0.08147
0.06309
0.03245
0.00751
-0.01286
-0.03175
-0.03887
-0.03146
-0.01708
-0.00737
0.00248
0.01113
0.01569
0.01356
0.01131
0.00625
0.00392
0.00110
-0.00768
-0.01185
-0.00784
-0.00196
-0.00453
-0.00295
0.00294
0.00879
0.00519
0.00175
0.00155
0.00152
-0.00063
-0.00444
-0.00119
0.00094
-0.00161
-0.00650
-0.00305
0.00302
0.00403
0.00466
0.00218
0.00119
-0.00031
-0.00438
-0.00377
-0.00226
-0.00071
0.00309
0.00298
0.00256
0.00454
0.00047
-0.00400
-0.00671
-0.00281
-0.00220
-0.00364
0.00165
0.00581
0.00831
0.00816
0.00412
0.00221
-0.00171
-0.01288
-0.02046
-0.01691
-0.00627
0.00309
0.01593
0.02810
0.03611
0.02956
0.00893
-0.02018
-0.04171
-0.05707
-0.06020
-0.04406
-0.01434
0.03019
0.07768
0.12649
0.15112
0.13193
0.02744
-0.17499
-0.37670
-0.39985
-0.15010
0.25410
0.51326
0.42757
0.10933
-0.17851
-0.28498
-0.23742
-0.12620
-0.02033
0.05406
0.08720
0.09173
0.07227
0.04215
0.01332
-0.01499
-0.03444
-0.03552
-0.03101
-0.02462
-0.01442
0.00177
0.01691
0.01813
0.01453
0.00936
0.00553
0.00195
-0.00267
-0.00524
-0.00586
-0.00492
-0.00344
-0.00585
-0.00065
0.00187
0.00126
0.00151
