-0.00067
-0.20960
-0.33749
-0.34983
-0.26455
-0.12701
0.01261
0.11229
0.15193
0.14158
0.10975
0.08009
0.05974
0.04515
0.03092
0.01287
-0.01044
-0.03551
-0.05548
-0.06497
-0.06204
-0.04755
-0.02600
-0.00599
0.00424
0.00288
-0.00461
-0.00973
-0.00594
0.00786
0.02621
0.03994
0.04154
0.02922
0.00825
-0.01076
-0.01798
-0.01139
0.00251
0.01452
0.01815
0.01094
-0.00519
-0.02339
-0.03401
-0.03018
-0.01333
0.00693
0.01947
0.01897
0.00771
-0.00745
-0.01824
-0.01823
-0.00673
0.01008
0.02315
0.02571
0.01602
-0.00156
-0.01727
-0.02152
-0.01225
0.00372
0.01656
0.01968
0.01180
-0.00333
-0.01800
-0.02388
-0.01715
-0.00160
0.01398
0.02191
0.01935
0.00784
-0.00787
-0.02019
-0.02152
-0.01024
0.00663
0.01837
0.01858
0.00861
-0.00512
-0.01601
-0.01961
-0.01372
0.00049
0.01639
0.02398
0.01767
0.00159
-0.01406
-0.02101
-0.01669
-0.00341
0.01253
0.02240
0.01997
0.00627
-0.01098
-0.02259
-0.02277
-0.01157
0.00535
0.01945
0.02335
0.01458
-0.00253
-0.01865
-0.02468
-0.01719
-0.00022
0.01682
0.02408
0.01725
0.00076
-0.01524
-0.02184
-0.01640
-0.00248
0.01322
0.02351
0.02279
0.01017
-0.00803
-0.02107
-0.02141
-0.00992
0.00592
0.01720
0.01774
0.00675
-0.01032
-0.02429
-0.02705
-0.01605
0.00382
0.02217
0.02926
0.02229
0.00638
-0.00978
-0.01843
-0.01527
-0.00173
0.01424
0.02237
0.01722
0.00144
-0.01649
-0.02704
-0.02475
-0.01167
0.00435
0.01541
0.01733
0.00964
-0.00433
-0.01727
-0.02127
-0.01337
0.00266
0.01902
0.02774
0.02413
0.01017
-0.00545
-0.01307
-0.00906
0.00259
0.01441
0.01977
0.01466
-0.00081
-0.02074
-0.03507
-0.03599
-0.02346
-0.00476
0.01060
0.01586
0.01015
-0.00136
-0.01062
-0.01132
-0.00193
0.01342
0.02608
0.02746
0.01547
-0.00285
-0.01579
-0.01574
-0.00395
0.01252
0.02658
0.03284
0.02715
0.00940
-0.01318
-0.02929
-0.03191
-0.02291
-0.00994
-0.00113
-0.00193
-0.01327
-0.03014
-0.04341
-0.04522
-0.03348
-0.01226
0.01077
0.02762
0.03369
0.03060
0.02566
0.02734
0.03995
0.06057
0.07984
0.08714
0.07756
0.05428
0.02428
-0.00668
-0.03426
-0.05502
-0.07034
-0.08876
-0.11845
-0.15705
-0.19472
-0.22482
-0.24069
-0.22196
-0.14233
0.00021
0.17547
0.35170
0.51270
0.62763
0.63123
0.47671
0.20573
-0.07171
-0.27680
-0.41450
-0.52045
-0.58968
-0.58058
-0.46976
-0.27968
-0.06098
0.13439
0.26872
0.32812
0.32497
0.28658
0.23727
0.18898
0.14330
0.09709
0.04715
-0.00592
-0.05635
-0.09627
-0.11985
-0.12480
-0.11274
-0.09055
-0.06912
-0.05672
-0.05278
-0.04936
-0.03863
-0.01831
0.00836
0.03525
0.05549
0.06356
0.05783
0.04242
0.02594
0.01688
0.01846
0.02678
0.03327
0.02968
0.01311
-0.01151
-0.03384
-0.04447
-0.04039
-0.02577
-0.00877
0.00277
0.00473
-0.00228
-0.01374
-0.02246
-0.02127
-0.00799
0.01151
0.02680
0.03011
0.02059
0.00396
-0.01050
-0.01491
-0.00785
0.00495
0.01572
0.01936
0.01401
0.00079
-0.01449
-0.02260
-0.01773
-0.00302
0.01193
0.01846
0.01383
0.00146
-0.01208
-0.02059
-0.02027
-0.01050
0.00517
0.01887
0.02235
0.01331
-0.00229
-0.01504
-0.01887
-0.01336
-0.00160
0.01180
0.02065
0.01869
0.00509
-0.01214
-0.02127
-0.01677
-0.00294
0.01136
0.01924
0.01762
0.00712
-0.00737
-0.01756
-0.01667
-0.00521
0.00883
0.01624
0.01294
0.00100
-0.01385
-0.02449
-0.02485
-0.01338
0.00509
0.02202
0.02997
0.02562
0.01057
-0.00834
-0.02082
-0.01915
-0.00475
0.01223
0.02042
0.01495
-0.00039
-0.01642
-0.02450
-0.02113
-0.00860
0.00691
0.01784
0.01874
0.00977
-0.00342
-0.01373
-0.01611
-0.00873
0.00552
0.01865
0.02212
0.01365
-0.00185
-0.01698
-0.02518
-0.02171
-0.00667
0.01241
0.02448
0.02294
0.00932
-0.00875
-0.02118
-0.02003
-0.00523
0.01407
0.02599
0.02426
0.01040
-0.00934
-0.02701
-0.03460
-0.02740
-0.00815
0.01317
0.02529
0.02268
0.00814
-0.00955
-0.02052
-0.01867
-0.00447
0.01496
0.02888
0.02917
0.01618
-0.00162
-0.01430
-0.01651
-0.00839
0.00543
0.01665
0.01657
0.00252
-0.01860
-0.03481
-0.03753
-0.02608
-0.00624
0.01303
0.02299
0.01963
0.00694
-0.00583
-0.01115
-0.00714
0.00377
0.01671
0.02486
0.02192
0.00784
-0.00886
-0.01665
-0.00997
0.00724
0.02530
0.03461
0.02945
0.01037
-0.01476
-0.03427
-0.04028
-0.03359
-0.02094
-0.00919
-0.00343
-0.00751
-0.02126
-0.03701
-0.04313
-0.03267
-0.00838
0.01975
0.04079
0.04930
0.04782
0.04312
0.04043
0.04260
0.05184
0.06666
0.07778
0.07297
0.04787
0.00948
-0.03063
-0.06417
-0.08911
-0.10860
-0.12719
-0.14767
-0.17240
-0.20379
-0.23397
-0.23395
-0.16750
-0.02559
0.16127
0.35161
0.51853
0.63225
0.63793
0.49096
0.22186
-0.06516
-0.27793
-0.40470
-0.48590
-0.54165
-0.55014
-0.48350
-0.33974
-0.14357
0.06378
0.23494
0.33493
0.35914
0.32983
0.27402
0.20879
0.14418
0.08860
0.04500
0.00707
-0.03402
-0.07890
-0.11811
-0.14003
-0.13931
-0.11926
-0.08916
-0.05931
-0.03684
-0.02417
-0.01944
-0.01669
-0.00758
0.01285
0.04037
0.06342
0.07202
0.06414
0.04465
0.02162
0.00410
-0.00098
0.00646
0.01818
0.02315
0.01545
-0.00252
-0.02287
-0.03717
-0.03999
-0.03093
-0.01497
-0.00041
0.00546
0.00050
-0.01084
-0.02007
-0.02016
-0.00981
0.00671
0.02273
0.03160
0.02843
0.01356
-0.00503
-0.01570
-0.01217
0.00165
0.01579
0.02208
0.01765
0.00401
-0.01376
-0.02726
-0.02843
-0.01595
0.00277
0.01730
0.02114
0.01347
-0.00216
-0.01802
-0.02427
-0.01582
0.00220
0.01803
0.02261
0.01499
0.00076
-0.01224
-0.01759
-0.01302
-0.00120
0.01188
0.02007
0.01945
0.00951
-0.00638
-0.02114
-0.02646
-0.01789
0.00061
0.01802
0.02385
0.01570
0.00009
-0.01343
-0.01838
-0.01318
-0.00059
0.01303
0.01977
0.01480
0.00036
-0.01524
-0.02301
-0.01863
-0.00465
0.01136
0.02115
0.02000
0.00878
-0.00655
-0.01766
-0.01830
-0.00833
0.00639
0.01778
0.01994
0.01173
-0.00285
-0.01640
-0.02176
-0.01580
-0.00140
0.01357
0.02052
0.01544
0.00135
-0.01368
-0.02125
-0.01703
-0.00326
0.01217
0.02029
0.01682
0.00456
-0.00919
-0.01735
-0.01635
-0.00658
0.00788
0.02009
0.02302
0.01426
-0.00151
-0.01541
-0.02034
-0.01491
-0.00299
0.00899
0.01458
0.00979
-0.00394
-0.01890
-0.02520
-0.01800
-0.00141
0.01475
0.02240
0.01959
0.00943
-0.00276
-0.01070
-0.00909
0.00227
0.01666
0.02519
0.02313
0.01146
-0.00570
-0.02265
-0.03267
-0.03067
-0.01728
-0.00004
0.01080
0.00952
-0.00112
-0.01264
-0.01703
-0.01099
0.00351
0.02008
0.03005
0.02676
0.01040
-0.01104
-0.02589
-0.02552
-0.00927
0.01525
0.03626
0.04362
0.03378
0.01206
-0.00989
-0.02155
-0.02019
-0.01059
-0.00029
0.00362
-0.00365
-0.02110
-0.04030
-0.05033
-0.04570
-0.02927
-0.00892
0.00724
0.01387
0.01044
0.00234
-0.00102
0.00819
0.03063
0.05901
0.08232
0.09140
0.08331
0.06306
0.04041
0.02273
0.01044
-0.00084
-0.01602
-0.03975
-0.07620
-0.12425
-0.17306
-0.20799
-0.22298
-0.22192
-0.20416
-0.15551
-0.06156
0.07447
0.23586
0.40675
0.56280
0.64833
0.59369
0.38122
0.08330
-0.18938
-0.37632
-0.48906
-0.55442
-0.56662
-0.50335
-0.36535
-0.18346
0.00231
0.15870
0.26380
0.31200
0.31550
0.29336
0.25681
0.20675
0.14285
0.07066
0.00064
-0.05637
-0.09289
-0.10737
-0.10539
-0.09711
-0.09123
-0.09025
-0.09057
-0.08595
-0.07076
-0.04325
-0.00822
0.02440
0.04543
0.05147
0.04539
0.03420
0.02639
0.02787
0.03770
0.04785
0.04875
0.03620
0.01398
-0.00942
-0.02610
-0.03197
-0.02693
-0.01448
-0.00189
0.00223
-0.00606
-0.02173
-0.03367
-0.03300
-0.01914
0.00104
0.01880
0.02776
0.02474
0.01062
-0.00770
-0.01906
-0.01601
-0.00124
0.01529
0.02475
0.02399
0.01417
-0.00087
-0.01441
-0.01883
-0.01125
0.00297
0.01392
0.01485
0.00596
-0.00784
-0.02008
-0.02439
-0.01696
-0.00050
0.01568
0.02195
0.01567
0.00200
-0.01112
-0.01760
-0.01470
-0.00322
0.01173
0.02202
0.02101
0.00846
-0.00877
-0.02112
-0.02216
-0.01175
0.00417
0.01670
0.01919
0.01123
-0.00192
-0.01358
-0.01845
-0.01333
0.00078
0.01655
0.02380
0.01771
0.00236
-0.01385
-0.02351
-0.02195
-0.00908
0.00818
0.01907
0.01732
0.00573
-0.00775
-0.01645
-0.01703
-0.00878
0.00565
0.01923
0.02365
0.01569
-0.00001
-0.01456
-0.02037
-0.01450
-0.00014
0.01415
0.01935
0.01226
-0.00274
-0.01746
-0.02434
-0.01926
-0.00386
0.01371
0.02319
0.01977
0.00685
-0.00816
-0.01857
-0.01967
-0.00984
0.00697
0.02182
0.02619
0.01756
0.00061
-0.01575
-0.02327
-0.01840
-0.00410
0.01149
0.01914
0.01412
-0.00061
-0.01641
-0.02478
-0.02170
-0.00853
0.00862
0.02098
0.02172
0.01086
-0.00470
-0.01600
-0.01691
-0.00646
0.01044
0.02477
0.02847
0.01957
0.00288
-0.01325
-0.02096
-0.01670
-0.00410
0.00763
0.01050
0.00322
-0.00975
-0.02220
-0.02803
-0.02278
-0.00738
0.01044
0.02137
0.02144
0.01305
0.00096
-0.00998
-0.01412
-0.00742
0.00712
0.01953
0.02201
0.01586
0.00734
0.00040
-0.00315
-0.00083
0.00758
0.01651
0.01832
0.00977
-0.00666
-0.02519
-0.03852
-0.04049
-0.03075
-0.01614
-0.00593
-0.00534
-0.01325
-0.02396
-0.02985
-0.02418
-0.00515
0.02134
0.04445
0.05588
0.05515
0.04813
0.04201
0.04196
0.04960
0.06154
0.06924
0.06270
0.03687
-0.00417
-0.04955
-0.08918
-0.11940
-0.14144
-0.15728
-0.17120
-0.19089
-0.21582
-0.22240
-0.17351
-0.05108
0.12725
0.32585
0.50942
0.63447
0.64391
0.50225
0.24216
-0.04382
-0.27117
-0.41749
-0.50641
-0.55372
-0.54534
-0.46192
-0.30817
-0.11539
0.07428
0.22424
0.31427
0.34344
0.32376
0.27119
0.20139
0.12968
0.06895
0.02500
-0.00548
-0.03086
-0.05724
-0.08442
-0.10776
-0.12246
-0.12488
-0.11204
-0.08400
-0.04796
-0.01659
0.00081
0.00494
0.00405
0.00670
0.01726
0.03493
0.05396
0.06527
0.06157
0.04327
0.01938
0.00111
-0.00566
-0.00207
0.00677
0.01410
0.01270
-0.00073
-0.02108
-0.03751
-0.04208
-0.03439
-0.01906
-0.00204
0.01016
0.01222
0.00398
-0.00818
-0.01559
-0.01296
-0.00098
0.01439
0.02470
0.02410
0.01373
0.00031
-0.00927
-0.01120
-0.00488
0.00664
0.01666
0.01845
0.01015
-0.00434
-0.01794
-0.02363
-0.01788
-0.00357
0.01124
0.01859
0.01492
0.00177
-0.01474
-0.02553
-0.02328
-0.00826
0.01075
0.02241
0.02066
0.00807
-0.00684
-0.01533
-0.01297
-0.00124
0.01366
0.02386
0.02346
0.01161
-0.00646
-0.02202
-0.02797
-0.02240
-0.00825
0.00837
0.01948
0.01857
0.00608
-0.00917
-0.01648
-0.01180
0.00041
0.01249
0.01874
0.01640
0.00524
-0.01095
-0.02414
-0.02604
-0.01428
0.00526
0.02206
0.02750
0.01957
0.00304
-0.01382
-0.02308
-0.01996
-0.00535
0.01311
0.02416
0.02053
0.00488
-0.01240
-0.02133
-0.01844
-0.00669
0.00747
0.01667
0.01545
0.00393
-0.01120
-0.02071
-0.01911
-0.00748
0.00822
0.02049
0.02331
0.01521
0.00045
-0.01335
-0.01948
-0.01498
-0.00163
0.01389
0.02253
0.01871
0.00469
-0.01148
-0.02175
-0.02167
-0.01105
0.00523
0.01792
0.01864
0.00656
-0.01046
-0.02195
-0.02198
-0.01152
0.00393
0.01748
0.02282
0.01660
0.00152
-0.01345
-0.01863
-0.01080
0.00522
0.02111
0.02959
0.02626
0.01147
-0.00822
-0.02318
-0.02691
-0.01928
-0.00542
0.00647
0.00859
-0.00080
-0.01472
-0.02265
-0.01908
-0.00628
0.00949
0.02180
0.02518
0.01693
0.00064
-0.01401
-0.01821
-0.01098
0.00215
0.01552
0.02569
0.02906
0.02238
0.00788
-0.00573
-0.01008
-0.00432
0.00528
0.01075
0.00690
-0.00677
-0.02551
-0.04087
-0.04501
-0.03588
-0.01919
-0.00518
-0.00172
-0.00880
-0.01889
-0.02276
-0.01528
0.00326
0.02895
0.05527
0.07397
0.07886
0.07049
0.05612
0.04426
0.03908
0.03880
0.03720
0.02673
0.00249
-0.03493
-0.07981
-0.12402
-0.15959
-0.18097
-0.18875
-0.19056
-0.19205
-0.18260
-0.13586
-0.03168
0.12546
0.31298
0.50134
0.64251
0.66347
0.51163
0.22141
-0.09094
-0.32007
-0.44657
-0.51080
-0.53845
-0.51701
-0.43046
-0.28699
-0.11282
0.06152
0.20649
0.30061
0.33954
0.33348
0.29448
0.23056
0.15150
0.07288
0.00966
-0.03239
-0.05707
-0.07178
-0.08277
-0.09378
-0.10549
-0.11438
-0.11363
-0.09750
-0.06696
-0.03065
0.00020
0.01825
0.02294
0.01970
0.01707
0.02199
0.03546
0.05202
0.06319
0.06191
0.04630
0.02163
-0.00174
-0.01454
-0.01465
-0.00728
0.00006
0.00227
-0.00270
-0.01451
-0.02946
-0.03998
-0.03851
-0.02375
-0.00266
0.01386
0.01788
0.00905
-0.00542
-0.01546
-0.01447
-0.00255
0.01468
0.02897
0.03288
0.02406
0.00750
-0.00791
-0.01555
-0.01370
-0.00418
0.00833
0.01635
0.01331
-0.00044
-0.01682
-0.02616
-0.02403
-0.01246
0.00297
0.01551
0.01880
0.01028
-0.00518
-0.01721
-0.01757
-0.00616
0.01023
0.02326
0.02687
0.01847
0.00055
-0.01834
-0.02739
-0.02125
-0.00436
0.01269
0.02073
0.01680
0.00412
-0.01062
-0.02032
-0.02000
-0.00897
0.00798
0.02187
0.02427
0.01323
-0.00462
-0.01874
-0.02186
-0.01322
0.00228
0.01618
0.02027
0.01186
-0.00379
-0.01754
-0.02251
-0.01672
-0.00260
0.01380
0.02446
0.02336
0.01049
-0.00759
-0.02075
-0.02097
-0.00816
0.00889
0.01933
0.01833
0.00801
-0.00654
-0.01916
-0.02308
-0.01491
0.00115
0.01550
0.02031
0.01393
0.00036
-0.01332
-0.01986
-0.01525
-0.00118
0.01499
0.02369
0.01912
0.00390
-0.01234
-0.01979
-0.01492
-0.00151
0.01278
0.02074
0.01840
0.00631
-0.01054
-0.02448
-0.02818
-0.01868
-0.00060
0.01528
0.01955
0.01115
-0.00308
-0.01442
-0.01700
-0.00938
0.00535
0.02044
0.02808
0.02381
0.00998
-0.00536
-0.01414
-0.01318
-0.00431
0.00737
0.01468
0.01133
-0.00310
-0.02139
-0.03336
-0.03258
-0.01933
0.00044
0.01752
0.02343
0.01570
0.00034
-0.01218
-0.01451
-0.00651
0.00643
0.01759
0.02180
0.01717
0.00641
-0.00376
-0.00682
-0.00095
0.01045
0.02171
0.02707
0.02210
0.00627
-0.01500
-0.03247
-0.03880
-0.03288
-0.01978
-0.00737
-0.00270
-0.00894
-0.02317
-0.03650
-0.03900
-0.02677
-0.00420
0.02029
0.03909
0.04722
0.04393
0.03538
0.03253
0.04215
0.06013
0.07531
0.07865
0.06691
0.04068
0.00363
-0.03602
-0.06820
-0.08855
-0.10239
-0.11883
-0.14233
-0.17230
-0.20635
-0.23401
-0.22762
-0.15486
-0.01001
0.17673
0.36685
0.53290
0.63746
0.62013
0.44641
0.16760
-0.10416
-0.29262
-0.40697
-0.49025
-0.54778
-0.54464
-0.45434
-0.28779
-0.08314
0.11344
0.26035
0.33386
0.33814
0.29804
0.23960
0.17858
0.12297
0.07700
0.03975
0.00478
-0.03409
-0.07590
-0.11183
-0.13135
-0.12969
-0.11057
-0.08297
-0.05614
-0.03656
-0.02603
-0.02077
-0.01387
-0.00068
0.01802
0.03803
0.05463
0.06270
0.05761
0.04025
0.01999
0.00836
0.00929
0.01715
0.02325
0.02150
0.00958
-0.01038
-0.03091
-0.04223
-0.03918
-0.02524
-0.00907
0.00202
0.00480
-0.00067
-0.01111
-0.01967
-0.01890
-0.00661
0.01135
0.02525
0.02840
0.02024
0.00528
-0.00896
-0.01470
-0.00877
0.00453
0.01647
0.02014
0.01393
0.00114
-0.01198
-0.01918
-0.01716
-0.00670
0.00765
0.01834
0.01803
0.00522
-0.01326
-0.02681
-0.02800
-0.01620
0.00259
0.01861
0.02371
0.01619
0.00108
-0.01294
-0.01771
-0.01019
0.00496
0.01832
0.02251
0.01639
0.00380
-0.00975
-0.01870
-0.01866
-0.00902
0.00512
0.01519
0.01491
0.00449
-0.00970
-0.01925
-0.01862
-0.00812
0.00679
0.01862
0.02140
0.01340
-0.00175
-0.01654
-0.02336
-0.01840
-0.00351
0.01431
0.02556
0.02313
0.00775
-0.01117
-0.02199
-0.01908
-0.00536
0.01118
0.02189
0.02063
0.00697
-0.01204
-0.02509
-0.02444
-0.01142
0.00610
0.02016
0.02538
0.01857
0.00099
-0.01898
-0.02957
-0.02428
-0.00622
0.01438
0.02606
0.02266
0.00721
-0.01055
-0.02111
-0.01953
-0.00627
0.01214
0.02517
0.02524
0.01317
-0.00414
-0.01882
-0.02428
-0.01732
-0.00171
0.01269
0.01739
0.01103
-0.00190
-0.01456
-0.02021
-0.01524
-0.00234
0.01092
0.01747
0.01447
0.00327
-0.01116
-0.02092
-0.01873
-0.00356
0.01731
0.03249
0.03354
0.02004
-0.00008
-0.01562
-0.01966
-0.01320
-0.00230
0.00668
0.00888
0.00184
-0.01219
-0.02587
-0.03087
-0.02340
-0.00660
0.01122
0.02183
0.02219
0.01450
0.00247
-0.00972
-0.01580
-0.01043
0.00412
0.01830
0.02431
0.02173
0.01411
0.00512
-0.00073
0.00123
0.01079
0.02005
0.01860
0.00245
-0.02180
-0.04155
-0.04781
-0.04082
-0.02707
-0.01318
-0.00405
-0.00391
-0.01353
-0.02586
-0.02911
-0.01703
0.00614
0.03125
0.05124
0.06181
0.06099
0.05238
0.04542
0.04747
0.05639
0.06330
0.06090
0.04592
0.01679
-0.02497
-0.07139
-0.11163
-0.13969
-0.15618
-0.16557
-0.17621
-0.19591
-0.21564
-0.20175
-0.12043
0.02807
0.21209
0.40099
0.57035
0.67039
0.62684
0.41063
0.09618
-0.18609
-0.36109
-0.45035
-0.50552
-0.53561
-0.51224
-0.41671
-0.25922
-0.06780
0.12068
0.26682
0.34519
0.35731
0.32282
0.26111
0.18611
0.11179
0.05159
0.01048
-0.01768
-0.04282
-0.07031
-0.09892
-0.12307
-0.13532
-0.12958
-0.10538
-0.06986
-0.03439
-0.00867
0.00333
0.00466
0.00382
0.00975
0.02545
0.04625
0.06394
0.07119
0.06358
0.04187
0.01426
-0.00676
-0.01295
-0.00590
0.00538
0.01132
0.00671
-0.00791
-0.02645
-0.03959
-0.03991
-0.02718
-0.00861
0.00664
0.01276
0.00834
-0.00373
-0.01602
-0.01922
-0.00916
0.00895
0.02466
0.03004
0.02351
0.00889
-0.00691
-0.01667
-0.01583
-0.00460
0.01157
0.02335
0.02239
0.00785
-0.01199
-0.02568
-0.02633
-0.01474
0.00213
0.01521
0.01813
0.01053
-0.00258
-0.01420
-0.01838
-0.01241
0.00113
0.01468
0.02020
0.01455
0.00082
-0.01391
-0.02163
-0.01730
-0.00284
0.01355
0.02328
0.02207
0.01045
-0.00667
-0.02052
-0.02270
-0.01177
0.00515
0.01805
0.02065
0.01253
-0.00193
-0.01527
-0.02025
-0.01465
-0.00263
0.00903
0.01501
0.01244
0.00175
-0.01135
-0.01807
-0.01378
-0.00171
0.01143
0.02016
0.02034
0.01018
-0.00574
-0.01753
-0.01834
-0.00941
0.00350
0.01482
0.01961
0.01433
0.00040
-0.01490
-0.02292
-0.01906
-0.00528
0.01040
0.01798
0.01267
-0.00112
-0.01394
-0.01866
-0.01345
-0.00062
0.01435
0.02418
0.02371
0.01324
-0.00236
-0.01647
-0.02193
-0.01388
0.00411
0.01926
0.01994
0.00649
-0.01096
-0.02284
-0.02477
-0.01581
0.00099
0.01702
0.02256
0.01460
-0.00147
-0.01692
-0.02421
-0.01915
-0.00327
0.01577
0.02862
0.02967
0.01900
0.00202
-0.01197
-0.01469
-0.00558
0.00773
0.01608
0.01440
0.00214
-0.01663
-0.03294
-0.03748
-0.02761
-0.00883
0.00989
0.02049
0.01873
0.00699
-0.00620
-0.01218
-0.00819
0.00259
0.01458
0.02237
0.02198
0.01299
0.00001
-0.00922
-0.00854
0.00253
0.01794
0.02827
0.02634
0.01162
-0.00977
-0.02887
-0.03814
-0.03450
-0.02091
-0.00572
0.00151
-0.00419
-0.01997
-0.03669
-0.04400
-0.03609
-0.01487
0.01135
0.03300
0.04432
0.04512
0.03982
0.03554
0.03907
0.05252
0.06999
0.08025
0.07461
0.05248
0.01956
-0.01705
-0.05116
-0.07817
-0.09761
-0.11467
-0.13644
-0.16615
-0.20138
-0.23271
-0.23891
-0.19063
-0.07258
0.09810
0.28649
0.46625
0.61019
0.66149
0.55707
0.30312
0.00034
-0.23704
-0.37653
-0.46159
-0.52794
-0.55721
-0.51007
-0.37595
-0.18196
0.02683
0.20454
0.31647
0.35207
0.32776
0.27249
0.20961
0.15110
0.10113
0.05874
0.01895
-0.02296
-0.06625
-0.10397
-0.12746
-0.13176
-0.11824
-0.09351
-0.06608
-0.04342
-0.03023
-0.02601
-0.02368
-0.01371
0.00743
0.03387
0.05586
0.06716
0.06594
0.05249
0.03072
0.01039
0.00194
0.00711
0.01715
0.02117
0.01452
-0.00067
-0.01908
-0.03423
-0.03949
-0.03160
-0.01495
-0.00003
0.00457
-0.00164
-0.01260
-0.02111
-0.02171
-0.01169
0.00654
0.02468
0.03311
0.02755
0.01151
-0.00622
-0.01625
-0.01347
-0.00044
0.01438
0.02254
0.02007
0.00779
-0.00947
-0.02347
-0.02607
-0.01535
0.00195
0.01525
0.01779
0.00962
-0.00457
-0.01786
-0.02269
-0.01483
0.00200
0.01762
0.02329
0.01732
0.00387
-0.01067
-0.01972
-0.01852
-0.00715
0.00864
0.02042
0.02162
0.01115
-0.00555
-0.01920
-0.02211
-0.01253
0.00451
0.01969
0.02438
0.01563
-0.00202
-0.01901
-0.02599
-0.01918
-0.00291
0.01343
0.02159
0.01829
0.00519
-0.01169
-0.02318
-0.02166
-0.00710
0.01191
0.02393
0.02242
0.00932
-0.00724
-0.01866
-0.02002
-0.01082
0.00519
0.02002
0.02459
0.01522
-0.00257
-0.01813
-0.02350
-0.01753
-0.00424
0.01029
0.01934
0.01739
0.00428
-0.01258
-0.02270
-0.02008
-0.00645
0.01107
0.02360
0.02400
0.01113
-0.00801
-0.02182
-0.02214
-0.00982
0.00708
0.01976
0.02311
0.01605
0.00130
-0.01447
-0.02270
-0.01816
-0.00329
0.01284
0.02071
0.01631
0.00249
-0.01350
-0.02373
-0.02336
-0.01311
0.00141
0.01314
0.01669
0.01039
-0.00204
-0.01216
-0.01213
-0.00095
0.01525
0.02805
0.03122
0.02225
0.00339
-0.01748
-0.02937
-0.02540
-0.00916
0.00731
0.01339
0.00747
-0.00500
-0.01791
-0.02634
-0.02541
-0.01289
0.00642
0.02240
0.02699
0.01924
0.00431
-0.01028
-0.01759
-0.01375
-0.00031
0.01547
0.02456
0.02206
0.01044
-0.00213
-0.00715
-0.00157
0.01049
0.02132
0.02440
0.01648
-0.00168
-0.02438
-0.04231
-0.04772
-0.03961
-0.02397
-0.00965
-0.00405
-0.01011
-0.02362
-0.03346
-0.02856
-0.00717
0.02173
0.04650
0.06067
0.06405
0.06047
0.05546
0.05335
0.05479
0.05710
0.05609
0.04668
0.02419
-0.01157
-0.05350
-0.09138
-0.11959
-0.13905
-0.15307
-0.16664
-0.18792
-0.21709
-0.22840
-0.17912
-0.05084
0.13005
0.32446
0.50997
0.65330
0.68097
0.53094
0.23799
-0.07397
-0.30037
-0.43017
-0.50602
-0.54754
-0.53783
-0.46067
-0.32137
-0.13999
0.05343
0.21980
0.32556
0.36118
0.34036
0.28392
0.21027
0.13605
0.07438
0.02915
-0.00454
-0.03338
-0.06141
-0.09007
-0.11711
-0.13483
-0.13420
-0.11304
-0.07898
-0.04374
-0.01621
-0.00029
0.00476
0.00433
0.00659
0.01708
0.03467
0.05310
0.06502
0.06451
0.04973
0.02601
0.00436
-0.00592
-0.00336
0.00625
0.01426
0.01309
-0.00019
-0.02130
-0.04053
-0.04869
-0.04211
-0.02392
-0.00261
0.01168
0.01297
0.00327
-0.00923
-0.01543
-0.01008
0.00516
0.02187
0.03055
0.02759
0.01613
0.00135
-0.01175
-0.01744
-0.01164
0.00267
0.01568
0.01875
0.01064
-0.00387
-0.01799
-0.02495
-0.02050
-0.00637
0.00985
0.01959
0.01794
0.00575
-0.01043
-0.02165
-0.02207
-0.01197
0.00375
0.01812
0.02422
0.01879
0.00514
-0.00853
-0.01461
-0.01035
0.00137
0.01356
0.01807
0.00998
-0.00803
-0.02530
-0.02966
-0.01754
0.00239
0.01749
0.02255
0.01997
0.01163
-0.00234
-0.01656
-0.02049
-0.00974
0.00746
0.01843
0.01695
0.00503
-0.01057
-0.02121
-0.02075
-0.01042
0.00305
0.01382
0.01885
0.01565
0.00420
-0.00929
-0.01553
-0.01049
0.00174
0.01339
0.01802
0.01286
0.00004
-0.01407
-0.02224
-0.02000
-0.00778
0.00860
0.02002
0.01986
0.00890
-0.00620
-0.01827
-0.02239
-0.01560
0.00075
0.01811
0.02514
0.01776
0.00242
-0.01102
-0.01643
-0.01198
0.00049
0.01481
0.02264
0.01846
0.00279
-0.01737
-0.03048
-0.02753
-0.01059
0.00830
0.01848
0.01736
0.00673
-0.00991
-0.02396
-0.02426
-0.00865
0.01210
0.02551
0.02785
0.02152
0.00916
-0.00486
-0.01265
-0.00881
0.00316
0.01405
0.01696
0.00999
-0.00542
-0.02420
-0.03709
-0.03567
-0.01961
0.00232
0.01859
0.02182
0.01193
-0.00415
-0.01581
-0.01504
-0.00225
0.01417
0.02450
0.02390
0.01333
-0.00249
-0.01625
-0.02004
-0.01010
0.00943
0.02884
0.03865
0.03384
0.01562
-0.00796
-0.02526
-0.02872
-0.02036
-0.00902
-0.00326
-0.00709
-0.01959
-0.03533
-0.04633
-0.04617
-0.03326
-0.01167
0.01033
0.02432
0.02758
0.02494
0.02395
0.02948
0.04286
0.06243
0.08185
0.09080
0.08180
0.05682
0.02538
-0.00357
-0.02637
-0.04368
-0.05937
-0.08040
-0.11252
-0.15360
-0.19473
-0.22830
-0.24710
-0.23375
-0.16440
-0.03401
0.13183
0.30163
0.46159
0.59407
0.64429
0.54778
0.30687
0.01390
-0.22564
-0.37948
-0.48081
-0.55330
-0.57496
-0.51271
-0.36524
-0.16578
0.03882
0.20468
0.30325
0.33201
0.31244
0.27214
0.22778
0.18223
0.13219
0.07585
0.01597
-0.04140
-0.08922
-0.12068
-0.13095
-0.12116
-0.10065
-0.08196
-0.07149
-0.06605
-0.05844
-0.04431
-0.02290
0.00463
0.03403
0.05692
0.06540
0.05856
0.04311
0.02826
0.02059
0.02175
0.02810
0.03280
0.02964
0.01627
-0.00465
-0.02601
-0.03894
-0.03777
-0.02438
-0.00765
0.00204
-0.00061
-0.01278
-0.02575
-0.03039
-0.02241
-0.00462
0.01524
0.02916
0.03199
0.02237
0.00418
-0.01273
-0.01759
-0.00788
0.00835
0.02065
0.02400
0.01785
0.00350
-0.01352
-0.02334
-0.01974
-0.00663
0.00656
0.01331
0.01169
0.00201
-0.01241
-0.02361
-0.02320
-0.00987
0.00866
0.02191
0.02410
0.01587
0.00159
-0.01242
-0.01882
-0.01284
0.00266
0.01730
0.02063
0.01056
-0.00559
-0.01807
-0.02146
-0.01524
-0.00188
0.01324
0.02229
0.01918
0.00465
-0.01306
-0.02302
-0.01908
-0.00431
0.01181
0.02108
0.02101
0.01275
-0.00156
-0.01716
-0.02581
-0.02089
-0.00444
0.01302
0.02070
0.01544
0.00204
-0.01173
-0.01894
-0.01514
-0.00101
0.01582
0.02505
0.02136
0.00718
-0.01027
-0.02230
-0.02214
-0.00964
0.00706
0.01745
0.01664
0.00690
-0.00652
-0.01812
-0.02218
-0.01502
0.00080
0.01657
0.02348
0.01836
0.00451
-0.01074
-0.01917
-0.01570
-0.00190
0.01449
0.02425
0.02211
0.00902
-0.00901
-0.02346
-0.02678
-0.01680
0.00053
0.01422
0.01616
0.00655
-0.00772
-0.01856
-0.02059
-0.01237
0.00321
0.01909
0.02691
0.02225
0.00813
-0.00686
-0.01407
-0.00952
0.00414
0.01865
0.02478
0.01827
0.00189
-0.01732
-0.03163
-0.03452
-0.02370
-0.00487
0.01035
0.01355
0.00582
-0.00574
-0.01464
-0.01621
-0.00728
0.01014
0.02627
0.02968
0.01724
-0.00299
-0.01828
-0.02000
-0.00768
0.01229
0.03076
0.03978
0.03507
0.01773
-0.00518
-0.02312
-0.02831
-0.02136
-0.01019
-0.00329
-0.00493
-0.01522
-0.03075
-0.04398
-0.04627
-0.03455
-0.01408
0.00602
0.01862
0.02120
0.01644
0.01166
0.01523
0.03069
0.05373
0.07496
0.08556
0.08135
0.06365
0.03840
0.01383
-0.00399
-0.01536
-0.02672
-0.04606
-0.07821
-0.12186
-0.16868
-0.20729
-0.23061
-0.23509
-0.21055
-0.13987
-0.01806
0.13682
0.30196
0.46474
0.59852
0.63903
0.52572
0.27621
-0.01088
-0.24263
-0.40028
-0.51086
-0.57943
-0.57669
-0.48135
-0.30970
-0.10479
0.08647
0.22707
0.29972
0.31294
0.29212
0.25911
0.22067
0.17411
0.11825
0.05663
-0.00485
-0.05922
-0.09861
-0.11731
-0.11611
-0.10269
-0.08706
-0.07635
-0.07209
-0.07003
-0.06260
-0.04351
-0.01272
0.02195
0.04875
0.05943
0.05420
0.04022
0.02633
0.01920
0.02182
0.03195
0.04178
0.04188
0.02771
0.00312
-0.02199
-0.03709
-0.03652
-0.02262
-0.00480
0.00579
0.00281
-0.01163
-0.02841
-0.03703
-0.03198
-0.01533
0.00568
0.02301
0.03026
0.02427
0.00819
-0.00751
-0.01160
-0.00210
0.01240
0.02206
0.02288
0.01500
0.00009
-0.01643
-0.02563
-0.02156
-0.00663
0.01040
0.02028
0.01784
0.00450
-0.01230
-0.02342
-0.02344
-0.01291
0.00290
0.01650
0.02094
0.01346
-0.00185
-0.01575
-0.01997
-0.01239
0.00285
0.01834
0.02640
0.02188
0.00574
-0.01354
-0.02446
-0.02078
-0.00595
0.01062
0.02050
0.01971
0.00863
-0.00785
-0.02103
-0.02312
-0.01308
0.00237
0.01407
0.01627
0.00857
-0.00494
-0.01690
-0.01924
-0.00868
0.00919
0.02340
0.02648
0.01876
0.00476
-0.01064
-0.02159
-0.02188
-0.01056
0.00512
0.01483
0.01313
0.00205
-0.01157
-0.01988
-0.01746
-0.00422
0.01383
0.02716
0.02776
0.01410
-0.00725
-0.02494
-0.02948
-0.01885
0.00044
0.01740
0.02305
0.01554
0.00057
-0.01289
-0.01814
-0.01344
-0.00136
0.01274
0.02219
0.02157
0.01029
-0.00608
-0.01889
-0.02187
-0.01431
-0.00059
0.01178
0.01522
0.00667
-0.00888
-0.02118
-0.02246
-0.01225
0.00417
0.01923
0.02545
0.01907
0.00378
-0.01061
-0.01499
-0.00703
0.00830
0.02238
0.02772
0.02148
0.00589
-0.01359
-0.02964
-0.03464
-0.02504
-0.00629
0.00911
0.01141
0.00160
-0.01109
-0.01825
-0.01706
-0.00806
0.00723
0.02384
0.03218
0.02479
0.00508
-0.01394
-0.02055
-0.01237
0.00540
0.02470
0.03685
0.03500
0.01878
-0.00380
-0.02125
-0.02633
-0.01970
-0.00760
0.00230
0.00373
-0.00574
-0.02256
-0.03773
-0.04220
-0.03366
-0.01751
-0.00155
0.00859
0.01005
0.00351
-0.00460
-0.00429
0.01052
0.03655
0.06341
0.08045
0.08242
0.07115
0.05313
0.03513
0.02114
0.01157
0.00325
-0.01007
-0.03514
-0.07478
-0.12398
-0.17027
-0.20096
-0.21312
-0.21318
-0.20137
-0.16043
-0.07025
0.06798
0.23385
0.40818
0.56709
0.65407
0.59524
0.37284
0.06697
-0.20489
-0.38460
-0.48981
-0.54908
-0.55587
-0.48984
-0.35423
-0.17806
0.00289
0.15680
0.26093
0.30977
0.31599
0.29675
0.26011
0.20617
0.13705
0.06169
-0.00746
-0.06002
-0.09113
-0.10225
-0.09981
-0.09268
-0.08890
-0.09156
-0.09580
-0.09137
-0.07084
-0.03675
-0.00023
0.02728
0.04085
0.04237
0.03691
0.03052
0.02911
0.03554
0.04626
0.05263
0.04792
0.03218
0.01043
-0.01110
-0.02581
-0.02817
-0.01870
-0.00620
-0.00120
-0.00742
-0.02053
-0.03307
-0.03820
-0.03152
-0.01377
0.00787
0.02371
0.02788
0.02056
0.00658
-0.00644
-0.01094
-0.00416
0.00946
0.02149
0.02475
0.01640
-0.00059
-0.01803
-0.02663
-0.02180
-0.00617
0.01220
0.02374
0.02190
0.00726
-0.01195
-0.02468
-0.02400
-0.01097
0.00644
0.01831
0.01866
0.00865
-0.00528
-0.01589
-0.01840
-0.01141
0.00245
0.01621
0.02172
0.01574
0.00255
-0.01009
-0.01676
-0.01567
-0.00716
0.00611
0.01769
0.01951
0.00842
-0.00934
-0.02188
-0.02103
-0.00810
0.00873
0.02077
0.02256
0.01334
-0.00253
-0.01711
-0.02313
-0.01769
-0.00326
0.01288
0.02118
0.01569
-0.00033
-0.01608
-0.02168
-0.01484
-0.00034
0.01427
0.02189
0.01861
0.00652
-0.00681
-0.01387
-0.01231
-0.00464
0.00549
0.01421
0.01636
0.00789
-0.00878
-0.02407
-0.02823
-0.01890
-0.00196
0.01355
0.02082
0.01789
0.00744
-0.00480
-0.01197
-0.00905
0.00330
0.01760
0.02400
0.01768
0.00224
-0.01385
-0.02351
-0.02402
-0.01582
-0.00163
0.01220
0.01691
0.00811
-0.00894
-0.02305
-0.02573
-0.01565
0.00256
0.02098
0.03147
0.02945
0.01654
-0.00011
-0.01129
-0.01074
0.00055
0.01456
0.02175
0.01676
0.00045
-0.02058
-0.03611
-0.03753
-0.02437
-0.00510
0.00967
0.01401
0.00797
-0.00408
-0.01456
-0.01558
-0.00462
0.01258
0.02597
0.02822
0.01875
0.00311
-0.01029
-0.01401
-0.00540
0.01133
0.02693
0.03300
0.02690
0.01146
-0.00788
-0.02438
-0.03141
-0.02655
-0.01449
-0.00420
-0.00286
-0.01206
-0.02744
-0.04070
-0.04376
-0.03363
-0.01412
0.00701
0.02242
0.02812
0.02533
0.02086
0.02316
0.03575
0.05465
0.07236
0.08226
0.07949
0.06225
0.03479
0.00658
-0.01521
-0.03157
-0.04908
-0.07327
-0.10529
-0.14240
-0.17979
-0.21220
-0.23261
-0.22733
-0.17766
-0.07470
0.06896
0.23019
0.39328
0.54058
0.62549
0.58303
0.39165
0.11426
-0.14589
-0.33020
-0.45003
-0.53309
-0.57165
-0.53399
-0.40847
-0.22074
-0.01658
0.15940
0.27556
0.32225
0.31470
0.28050
0.23958
0.19615
0.14652
0.08911
0.02733
-0.03217
-0.08141
-0.11340
-0.12508
-0.11881
-0.10152
-0.08226
-0.06853
-0.06248
-0.05930
-0.05042
-0.03026
-0.00100
0.02897
0.05090
0.05989
0.05544
0.04128
0.02552
0.01762
0.02148
0.03173
0.03824
0.03408
0.01909
-0.00203
-0.02246
-0.03528
-0.03624
-0.02654
-0.01245
-0.00165
0.00048
-0.00679
-0.01865
-0.02645
-0.02328
-0.00912
0.00935
0.02335
0.02656
0.01820
0.00385
-0.00797
-0.01142
-0.00571
0.00639
0.01930
0.02526
0.01871
0.00181
-0.01613
-0.02549
-0.02230
-0.00912
0.00716
0.01821
0.01805
0.00694
-0.00836
-0.01912
-0.01984
-0.01027
0.00503
0.01810
0.02107
0.01150
-0.00524
-0.01948
-0.02321
-0.01418
0.00310
0.01918
0.02464
0.01655
0.00057
-0.01395
-0.02040
-0.01680
-0.00456
0.01122
0.02203
0.02104
0.00884
-0.00712
-0.01836
-0.01964
-0.01047
0.00439
0.01652
0.01868
0.00936
-0.00687
-0.02163
-0.02616
-0.01645
0.00258
0.01952
0.02496
0.01766
0.00314
-0.01129
-0.01925
-0.01677
-0.00459
0.01106
0.02177
0.02186
0.01096
-0.00578
-0.01944
-0.02207
-0.01234
0.00334
0.01557
0.01776
0.00894
-0.00623
-0.01952
-0.02354
-0.01600
-0.00062
0.01512
0.02323
0.01915
0.00530
-0.00963
-0.01684
-0.01317
-0.00147
0.01258
0.02243
0.02223
0.01024
-0.00818
-0.02271
-0.02494
-0.01448
0.00130
0.01306
0.01522
0.00756
-0.00593
-0.01835
-0.02225
-0.01446
0.00075
0.01492
0.02128
0.01722
0.00465
-0.00923
-0.01451
-0.00665
0.00894
0.02234
0.02728
0.02245
0.00881
-0.00995
-0.02590
-0.03068
-0.02228
-0.00677
0.00641
0.01048
0.00439
-0.00761
-0.01858
-0.02204
-0.01456
0.00200
0.01999
0.02934
0.02424
0.00768
-0.01047
-0.02038
-0.01768
-0.00414
0.01466
0.03102
0.03694
0.02832
0.00937
-0.00882
-0.01648
-0.01207
-0.00172
0.00624
0.00586
-0.00439
-0.02101
-0.03690
-0.04468
-0.04015
-0.02499
-0.00727
0.00278
0.00064
-0.00859
-0.01469
-0.01041
0.00499
0.02752
0.05100
0.06830
0.07376
0.06682
0.05318
0.04110
0.03591
0.03657
0.03616
0.02599
0.00121
-0.03632
-0.08040
-0.12429
-0.16112
-0.18430
-0.19320
-0.19609
-0.19748
-0.18135
-0.11929
0.00010
0.16172
0.34427
0.52493
0.65173
0.64453
0.46316
0.16733
-0.12387
-0.33348
-0.46488
-0.54581
-0.57252
-0.52273
-0.39692
-0.22510
-0.04411
0.11676
0.23625
0.30416
0.32496
0.31093
0.27104
0.20984
0.13490
0.05976
-0.00180
-0.04279
-0.06476
-0.07493
-0.08158
-0.08994
-0.10035
-0.10856
-0.10748
-0.09126
-0.06074
-0.02498
0.00441
0.02069
0.02445
0.02118
0.01797
0.02061
0.03088
0.04548
0.05767
0.06034
0.04939
0.02704
0.00207
-0.01515
-0.01962
-0.01373
-0.00399
0.00237
-0.00041
-0.01324
-0.02967
-0.03938
-0.03614
-0.02179
-0.00334
0.01170
0.01767
0.01239
-0.00065
-0.01254
-0.01441
-0.00409
0.01228
0.02541
0.02929
0.02322
0.00991
-0.00571
-0.01674
-0.01702
-0.00598
0.00953
0.01915
0.01594
0.00115
-0.01687
-0.02834
-0.02746
-0.01451
0.00458
0.02019
0.02366
0.01345
-0.00343
-0.01706
-0.02097
-0.01372
0.00170
0.01799
0.02602
0.02066
0.00480
-0.01262
-0.02209
-0.01890
-0.00574
0.00951
0.01900
0.01869
0.00874
-0.00657
-0.01939
-0.02185
-0.01185
0.00463
0.01750
0.01915
0.00904
-0.00627
-0.01763
-0.01904
-0.01032
0.00436
0.01861
0.02529
0.01955
0.00291
-0.01613
-0.02737
-0.02542
-0.01199
0.00583
0.01914
0.02162
0.01325
0.00020
-0.00973
-0.01210
-0.00684
0.00353
0.01442
0.01918
0.01254
-0.00377
-0.02059
-0.02796
-0.02199
-0.00628
0.01064
0.01963
0.01604
0.00289
-0.01120
-0.01776
-0.01293
0.00111
0.01725
0.02688
0.02504
0.01313
-0.00296
-0.01637
-0.02157
-0.01628
-0.00337
0.00969
0.01462
0.00754
-0.00808
-0.02283
-0.02714
-0.01737
0.00201
0.02105
0.02956
0.02270
0.00441
-0.01459
-0.02369
-0.01862
-0.00282
0.01511
0.02575
0.02370
0.01081
-0.00518
-0.01564
-0.01540
-0.00477
0.01027
0.02052
0.01892
0.00512
-0.01469
-0.03162
-0.03801
-0.03041
-0.01200
0.00816
0.02054
0.02087
0.01155
-0.00133
-0.01101
-0.01215
-0.00315
0.01147
0.02251
0.02235
0.01127
-0.00231
-0.00822
-0.00230
0.01080
0.02192
0.02460
0.01838
0.00607
-0.00936
-0.02423
-0.03314
-0.03216
-0.02295
-0.01230
-0.00733
-0.01119
-0.02164
-0.03245
-0.03646
-0.02914
-0.01069
0.01364
0.03515
0.04568
0.04324
0.03500
0.03269
0.04247
0.05973
0.07421
0.07850
0.07023
0.04909
0.01624
-0.02297
-0.05893
-0.08403
-0.09970
-0.11535
-0.13889
-0.17017
-0.20387
-0.23141
-0.23365
-0.18094
-0.05640
0.12184
0.31379
0.48703
0.61335
0.64362
0.52623
0.27261
-0.02162
-0.25150
-0.38910
-0.47380
-0.53251
-0.54382
-0.47868
-0.34191
-0.16322
0.02642
0.19525
0.30837
0.34648
0.32219
0.26737
0.20751
0.15273
0.10482
0.06261
0.02204
-0.02124
-0.06637
-0.10556
-0.12917
-0.13258
-0.11886
-0.09572
-0.07078
-0.04940
-0.03472
-0.02686
-0.02144
-0.01123
0.00837
0.03463
0.05859
0.07101
0.06787
0.05194
0.03114
0.01480
0.00856
0.01126
0.01680
0.01850
0.01179
-0.00426
-0.02487
-0.04044
-0.04302
-0.03248
-0.01569
-0.00110
0.00515
0.00116
-0.00942
-0.01865
-0.01901
-0.00817
0.00958
0.02541
0.03087
0.02341
0.00809
-0.00644
-0.01349
-0.01060
0.00056
0.01436
0.02277
0.01991
0.00655
-0.01038
-0.02275
-0.02583
-0.01912
-0.00534
0.00990
0.01866
0.01506
0.00080
-0.01484
-0.02169
-0.01539
0.00073
0.01761
0.02526
0.01920
0.00364
-0.01234
-0.02101
-0.01875
-0.00626
0.01076
0.02269
0.02153
0.00751
-0.01047
-0.02166
-0.02091
-0.01031
0.00434
0.01654
0.02032
0.01283
-0.00231
-0.01595
-0.01960
-0.01116
0.00415
0.01747
0.02113
0.01282
-0.00292
-0.01744
-0.02343
-0.01871
-0.00573
0.01017
0.02190
0.02300
0.01206
-0.00539
-0.02007
-0.02416
-0.01507
0.00290
0.02003
0.02652
0.01879
0.00161
-0.01510
-0.02214
-0.01611
-0.00148
0.01232
0.01730
0.01175
-0.00068
-0.01407
-0.02166
-0.01811
-0.00402
0.01277
0.02272
0.02114
0.00952
-0.00659
-0.01949
-0.02216
-0.01243
0.00476
0.01989
0.02460
0.01634
-0.00045
-0.01644
-0.02239
-0.01504
0.00038
0.01429
0.01946
0.01371
-0.00092
-0.01807
-0.02786
-0.02299
-0.00600
0.01216
0.02184
0.02053
0.01051
-0.00398
-0.01587
-0.01722
-0.00594
0.01119
0.02423
0.02702
0.01863
0.00224
-0.01501
-0.02393
-0.01950
-0.00576
0.00699
0.01020
0.00249
-0.01076
-0.02160
-0.02428
-0.01795
-0.00544
0.00966
0.02309
0.02848
0.02048
0.00186
-0.01551
-0.02025
-0.01097
0.00504
0.01970
0.02784
0.02623
0.01519
0.00101
-0.00742
-0.00605
0.00183
0.00929
0.01015
0.00129
-0.01571
-0.03422
-0.04547
-0.04401
-0.03158
-0.01575
-0.00437
-0.00127
-0.00584
-0.01351
-0.01637
-0.00741
0.01344
0.03908
0.06126
0.07460
0.07611
0.06621
0.05139
0.04109
0.03902
0.03963
0.03370
0.01529
-0.01661
-0.05934
-0.10709
-0.15065
-0.18012
-0.19198
-0.19399
-0.19622
-0.19250
-0.15735
-0.06890
0.07053
0.24305
0.43018
0.59785
0.67550
0.58946
0.33927
0.02188
-0.24368
-0.40866
-0.49871
-0.54498
-0.54207
-0.47169
-0.33785
-0.16716
0.00897
0.16236
0.27086
0.32571
0.33376
0.30740
0.25510
0.18382
0.10505
0.03320
-0.02104
-0.05441
-0.07076
-0.07860
-0.08652
-0.09775
-0.10877
-0.11304
-0.10541
-0.08386
-0.05067
-0.01379
0.01549
0.02936
0.02872
0.02186
0.01883
0.02576
0.04119
0.05669
0.06234
0.05333
0.03260
0.00844
-0.01040
-0.01879
-0.01619
-0.00607
0.00452
0.00696
-0.00314
-0.02151
-0.03792
-0.04346
-0.03499
-0.01591
0.00503
0.01803
0.01842
0.00903
-0.00330
-0.01164
-0.01075
0.00070
0.01745
0.02948
0.02887
0.01550
-0.00297
-0.01627
-0.01790
-0.00889
0.00380
0.01268
0.01363
0.00631
-0.00639
-0.01821
-0.02204
-0.01529
-0.00195
0.01126
0.01892
0.01732
0.00540
-0.01166
-0.02297
-0.02036
-0.00599
0.01048
0.02064
0.02112
0.01211
-0.00290
-0.01623
-0.01959
-0.01043
0.00570
0.01884
0.02097
0.01096
-0.00517
-0.01872
-0.02321
-0.01632
-0.00046
0.01677
0.02533
0.01940
0.00224
-0.01592
-0.02483
-0.02045
-0.00628
0.00975
0.01999
0.02000
0.00953
-0.00676
-0.02000
-0.02181
-0.01070
0.00628
0.01926
0.02239
0.01557
0.00214
-0.01237
-0.02065
-0.01693
-0.00235
0.01405
0.02166
0.01601
0.00076
-0.01572
-0.02473
-0.02108
-0.00648
0.01065
0.02059
0.01888
0.00772
-0.00695
-0.01825
-0.02020
-0.01072
0.00588
0.02052
0.02485
0.01617
-0.00095
-0.01699
-0.02295
-0.01583
-0.00002
0.01625
0.02515
0.02191
0.00698
-0.01251
-0.02552
-0.02465
-0.01164
0.00444
0.01386
0.01184
0.00049
-0.01307
-0.02094
-0.01837
-0.00572
0.01174
0.02603
0.03036
0.02275
0.00704
-0.00873
-0.01610
-0.01128
0.00195
0.01522
0.02126
0.01646
0.00079
-0.02064
-0.03685
-0.03743
-0.02217
-0.00169
0.01252
0.01614
0.01048
-0.00129
-0.01307
-0.01571
-0.00455
0.01378
0.02626
0.02542
0.01386
-0.00133
-0.01382
-0.01776
-0.00865
0.01125
0.03065
0.03690
0.02654
0.00675
-0.01211
-0.02323
-0.02449
-0.01745
-0.00679
0.00073
-0.00113
-0.01421
-0.03292
-0.04630
-0.04596
-0.03239
-0.01270
0.00590
0.01867
0.02289
0.01962
0.01569
0.01990
0.03590
0.05916
0.07984
0.08821
0.07990
0.05866
0.03317
0.01006
-0.00936
-0.02648
-0.04335
-0.06475
-0.09689
-0.13977
-0.18426
-0.22050
-0.24361
-0.24379
-0.19832
-0.08951
0.06885
0.23942
0.39724
0.53534
0.62521
0.60248
0.42705
0.14746
-0.12958
-0.33561
-0.47716
-0.57623
-0.61370
-0.55298
-0.39519
-0.18655
0.01770
0.17954
0.27947
0.31497
0.30200
0.26645
0.22723
0.18814
0.14393
0.09042
0.02973
-0.03012
-0.07930
-0.11064
-0.12114
-0.11261
-0.09327
-0.07593
-0.06923
-0.07055
-0.06953
-0.05753
-0.03294
-0.00049
0.03147
0.05450
0.06357
0.05858
0.04408
0.02842
0.02029
0.02272
0.03029
0.03400
0.02849
0.01404
-0.00581
-0.02524
-0.03661
-0.03472
-0.02203
-0.00720
0.00187
0.00175
-0.00725
-0.02037
-0.02812
-0.02278
-0.00636
0.01138
0.02236
0.02414
0.01680
0.00262
-0.01076
-0.01350
-0.00301
0.01272
0.02269
0.02171
0.01158
-0.00286
-0.01598
-0.02163
-0.01590
-0.00145
0.01275
0.01802
0.01199
-0.00153
-0.01601
-0.02461
-0.02206
-0.00816
0.01020
0.02273
0.02279
0.01148
-0.00442
-0.01695
-0.02017
-0.01194
0.00432
0.01956
0.02409
0.01484
-0.00241
-0.01776
-0.02365
-0.01787
-0.00352
0.01243
0.02202
0.02009
0.00755
-0.00851
-0.01895
-0.01819
-0.00680
0.00917
0.02064
0.01971
0.00536
-0.01433
-0.02705
-0.02499
-0.01007
0.00863
0.02187
0.02483
0.01711
0.00179
-0.01460
-0.02379
-0.02037
-0.00591
0.01144
0.02186
0.01977
0.00731
-0.00694
-0.01433
-0.01204
-0.00270
0.00923
0.01824
0.01784
0.00562
-0.01227
-0.02545
-0.02760
-0.01873
-0.00296
0.01254
0.01963
0.01480
0.00231
-0.00947
-0.01383
-0.00811
0.00561
0.02039
0.02743
0.02164
0.00525
-0.01356
-0.02544
-0.02457
-0.01151
0.00660
0.01935
0.01940
0.00753
-0.00856
-0.02027
-0.02245
-0.01413
0.00088
0.01411
0.01737
0.00931
-0.00432
-0.01630
-0.02122
-0.01523
0.00193
0.02309
0.03598
0.03250
0.01520
-0.00545
-0.01845
-0.01783
-0.00538
0.00983
0.01715
0.01167
-0.00400
-0.02309
-0.03708
-0.03749
-0.02145
0.00318
0.02218
0.02617
0.01646
0.00108
-0.01137
-0.01476
-0.00740
0.00638
0.01844
0.02209
0.01542
0.00161
-0.01179
-0.01575
-0.00586
0.01351
0.03176
0.03877
0.03009
0.00890
-0.01524
-0.03168
-0.03552
-0.02956
-0.02001
-0.01184
-0.00849
-0.01272
-0.02428
-0.03691
-0.04097
-0.03088
-0.00959
0.01446
0.03332
0.04293
0.04379
0.04046
0.03947
0.04603
0.06056
0.07676
0.08354
0.07233
0.04405
0.00745
-0.02880
-0.06007
-0.08400
-0.10087
-0.11615
-0.13728
-0.16636
-0.19934
-0.22792
-0.23366
-0.18622
-0.06560
0.11274
0.30951
0.49201
0.62884
0.66285
0.53682
0.26851
-0.03281
-0.25701
-0.38504
-0.46849
-0.53771
-0.56385
-0.50525
-0.35858
-0.15873
0.04742
0.21693
0.31988
0.35019
0.32567
0.27227
0.20989
0.15095
0.10197
0.06129
0.02064
-0.02575
-0.07434
-0.11489
-0.13754
-0.13776
-0.11858
-0.08998
-0.06356
-0.04568
-0.03599
-0.03052
-0.02357
-0.00908
0.01498
0.04321
0.06606
0.07610
0.07041
0.05089
0.02523
0.00510
-0.00091
0.00658
0.01833
0.02268
0.01285
-0.00847
-0.03085
-0.04360
-0.04228
-0.02884
-0.00919
0.00784
0.01319
0.00423
-0.01168
-0.02285
-0.02227
-0.01065
0.00686
0.02343
0.03128
0.02513
0.00794
-0.00913
-0.01564
-0.00987
0.00291
0.01594
0.02249
0.01731
0.00177
-0.01483
-0.02311
-0.02096
-0.01126
0.00251
0.01508
0.01883
0.01025
-0.00496
-0.01684
-0.01938
-0.01203
0.00220
0.01643
0.02146
0.01298
-0.00359
-0.01774
-0.02222
-0.01576
-0.00127
0.01488
0.02424
0.02149
0.00904
-0.00537
-0.01497
-0.01637
-0.00878
0.00471
0.01616
0.01716
0.00583
-0.01149
-0.02449
-0.02496
-0.01185
0.00743
0.02195
0.02479
0.01608
0.00045
-0.01534
-0.02327
-0.01779
-0.00130
0.01593
0.02350
0.01774
0.00212
-0.01573
-0.02649
-0.02325
-0.00657
0.01486
0.02956
0.02983
0.01513
-0.00747
-0.02593
-0.02987
-0.01761
0.00289
0.02003
0.02526
0.01649
-0.00136
-0.01856
-0.02590
-0.01996
-0.00437
0.01276
0.02289
0.02119
0.00902
-0.00698
-0.01827
-0.01850
-0.00727
0.00838
0.01844
0.01728
0.00676
-0.00713
-0.01802
-0.02053
-0.01223
0.00347
0.01813
0.02383
0.01785
0.00315
-0.01339
-0.02313
-0.01993
-0.00489
0.01313
0.02315
0.01904
0.00292
-0.01624
-0.02758
-0.02493
-0.01077
0.00636
0.01837
0.02108
0.01373
-0.00097
-0.01541
-0.01985
-0.00976
0.00982
0.02785
0.03454
0.02631
0.00712
-0.01312
-0.02386
-0.02104
-0.00979
0.00060
0.00354
-0.00223
-0.01330
-0.02288
-0.02480
-0.01815
-0.00604
0.00909
0.02433
0.03202
0.02459
0.00532
-0.01216
-0.01702
-0.00919
0.00550
0.02120
0.03156
0.03026
0.01641
-0.00246
-0.01512
-0.01469
-0.00354
0.00819
0.01021
-0.00015
-0.01766
-0.03522
-0.04725
-0.04858
-0.03645
-0.01600
0.00096
0.00616
0.00138
-0.00599
-0.00934
-0.00353
0.01455
0.04169
0.06749
0.08109
0.07857
0.06441
0.04775
0.03650
0.03249
0.03099
0.02433
0.00570
-0.02805
-0.07409
-0.12374
-0.16576
-0.19109
-0.19913
-0.19985
-0.20079
-0.18767
-0.12984
-0.01253
0.14893
0.33223
0.51872
0.66144
0.67410
0.50038
0.19285
-0.11662
-0.33346
-0.45939
-0.53525
-0.56749
-0.53204
-0.42115
-0.25749
-0.07447
0.09630
0.22644
0.30022
0.32395
0.31547
0.28461
0.23104
0.15821
0.08000
0.01206
-0.03735
-0.06714
-0.08039
-0.08456
-0.08978
-0.10112
-0.11325
-0.11566
-0.10293
-0.07754
-0.04462
-0.00895
0.02237
0.04040
0.04184
0.03355
0.02702
0.02936
0.04019
0.05330
0.05983
0.05304
0.03315
0.00738
-0.01503
-0.02712
-0.02606
-0.01448
-0.00084
0.00452
-0.00352
-0.02083
-0.03663
-0.04078
-0.03045
-0.01117
0.00811
0.02038
0.02187
0.01216
-0.00362
-0.01488
-0.01272
0.00185
0.01883
0.02816
0.02638
0.01567
0.00038
-0.01384
-0.02038
-0.01531
-0.00143
0.01273
0.01836
0.01174
-0.00360
-0.01865
-0.02463
-0.01876
-0.00484
0.01034
0.01970
0.01783
0.00498
-0.01098
-0.01974
-0.01668
-0.00483
0.00944
0.01999
0.02166
0.01205
-0.00505
-0.01975
-0.02250
-0.01177
0.00519
0.01884
0.02322
0.01664
0.00121
-0.01603
-0.02512
-0.01999
-0.00373
0.01378
0.02266
0.01845
0.00393
-0.01294
-0.02335
-0.02188
-0.00872
0.00963
0.02262
0.02231
0.00966
-0.00657
-0.01744
-0.01908
-0.01186
0.00130
0.01471
0.02121
0.01657
0.00283
-0.01249
-0.02063
-0.01673
-0.00283
0.01333
0.02270
0.01959
0.00481
-0.01385
-0.02556
-0.02335
-0.00901
0.00842
0.01913
0.01843
0.00808
-0.00600
-0.01686
-0.01904
-0.01085
0.00446
0.01943
0.02576
0.01916
0.00268
-0.01453
-0.02273
-0.01755
-0.00236
0.01387
0.02185
0.01716
0.00245
-0.01446
-0.02487
-0.02342
-0.01091
0.00588
0.01783
0.01871
0.00841
-0.00715
-0.01915
-0.02089
-0.01162
0.00398
0.01912
0.02750
0.02482
0.01170
-0.00444
-0.01319
-0.00938
0.00249
0.01270
0.01447
0.00713
-0.00634
-0.02122
-0.03094
-0.02969
-0.01740
-0.00037
0.01329
0.01751
0.01012
-0.00429
-0.01491
-0.01309
-0.00029
0.01481
0.02463
0.02531
0.01519
-0.00282
-0.01887
-0.02172
-0.00860
0.01262
0.03084
0.03875
0.03355
0.01603
-0.00787
-0.02758
-0.03431
-0.02732
-0.01366
-0.00330
-0.00419
-0.01742
-0.03512
-0.04570
-0.04315
-0.02977
-0.01055
0.01040
0.02745
0.03399
0.02966
0.02370
0.02713
0.04243
0.06321
0.08079
0.08828
0.08097
0.05798
0.02467
-0.00929
-0.03558
-0.05222
-0.06514
-0.08474
-0.11721
-0.15835
-0.19882
-0.23255
-0.25123
-0.23251
-0.15022
-0.00427
0.17287
0.34824
0.50769
0.62581
0.64045
0.49919
0.23286
-0.05289
-0.27133
-0.41509
-0.51572
-0.57631
-0.56810
-0.47350
-0.30724
-0.10401
0.09429
0.24526
0.32195
0.32889
0.29517
0.24975
0.20541
0.16164
0.11431
0.06102
0.00323
-0.05237
-0.09587
-0.12008
-0.12492
-0.11575
-0.09918
-0.08100
-0.06595
-0.05630
-0.04985
-0.04046
-0.02235
0.00489
0.03509
0.05895
0.06900
0.06298
0.04532
0.02603
0.01516
0.01586
0.02291
0.02804
0.02543
0.01334
-0.00586
-0.02536
-0.03640
-0.03428
-0.02190
-0.00670
0.00402
0.00480
-0.00598
-0.02212
-0.03143
-0.02579
-0.00855
0.00997
0.02175
0.02389
0.01672
0.00409
-0.00619
-0.00680
0.00266
0.01519
0.02255
0.02079
0.01101
-0.00296
-0.01620
-0.02355
-0.02130
-0.00982
0.00518
0.01502
0.01333
0.00089
-0.01416
-0.02190
-0.01736
-0.00265
0.01509
0.02689
0.02588
0.01205
-0.00697
-0.02109
-0.02389
-0.01477
0.00148
0.01587
0.01971
0.01126
-0.00299
-0.01444
-0.01810
-0.01302
-0.00091
0.01366
0.02375
0.02306
0.00969
-0.01078
-0.02621
-0.02588
-0.01026
0.00889
0.01961
0.01859
0.00936
-0.00333
-0.01464
-0.01915
-0.01356
-0.00007
0.01411
0.02072
0.01521
0.00017
-0.01553
-0.02243
-0.01681
-0.00223
0.01377
0.02342
0.02141
0.00783
-0.01015
-0.02170
-0.01958
-0.00529
0.01197
0.02148
0.01812
0.00492
-0.01058
-0.02166
-0.02420
-0.01653
-0.00082
0.01567
0.02375
0.01874
0.00408
-0.01123
-0.01851
-0.01389
0.00049
0.01720
0.02634
0.02147
0.00487
-0.01368
-0.02434
-0.02349
-0.01367
-0.00011
0.01142
0.01511
0.00774
-0.00719
-0.01979
-0.02090
-0.00934
0.00821
0.02296
0.02835
0.02149
0.00500
-0.01220
-0.01935
-0.01184
0.00528
0.02139
0.02710
0.01880
-0.00001
-0.02056
-0.03329
-0.03289
-0.02088
-0.00418
0.00902
0.01322
0.00726
-0.00517
-0.01605
-0.01689
-0.00493
0.01377
0.02836
0.03053
0.01888
-0.00081
-0.01770
-0.02138
-0.00942
0.01053
0.02758
0.03505
0.03093
0.01563
-0.00589
-0.02309
-0.02679
-0.01772
-0.00553
-0.00008
-0.00534
-0.01926
-0.03584
-0.04751
-0.04815
-0.03600
-0.01477
0.00795
0.02398
0.02846
0.02326
0.01702
0.01964
0.03458
0.05642
0.07589
0.08559
0.08149
0.06327
0.03601
0.00868
-0.01202
-0.02628
-0.03976
-0.06000
-0.09280
-0.13711
-0.18303
-0.21938
-0.24099
-0.24137
-0.20191
-0.10399
0.04540
0.21513
0.38019
0.52884
0.62851
0.61379
0.44401
0.16608
-0.11224
-0.31561
-0.44459
-0.52849
-0.56839
-0.54060
-0.43330
-0.26195
-0.06119
0.12522
0.25704
0.31692
0.31842
0.28971
0.25073
0.20727
0.15888
0.10459
0.04435
-0.01770
-0.07141
-0.10621
-0.11907
-0.11528
-0.10302
-0.08935
-0.07943
-0.07480
-0.07095
-0.05965
-0.03623
-0.00426
0.02733
0.05035
0.06049
0.05754
0.04533
0.03121
0.02314
0.02477
0.03246
0.03771
0.03352
0.01897
-0.00148
-0.02115
-0.03312
-0.03283
-0.02198
-0.00898
-0.00275
-0.00604
-0.01539
-0.02516
-0.02972
-0.02452
-0.00899
0.01113
0.02657
0.03032
0.02128
0.00438
-0.01102
-0.01535
-0.00543
0.01225
0.02603
0.02735
0.01556
-0.00294
-0.01910
-0.02581
-0.02068
-0.00638
0.01023
0.02018
0.01700
0.00224
-0.01463
-0.02350
-0.02067
-0.00872
0.00711
0.02001
0.02272
0.01252
-0.00468
-0.01823
-0.02085
-0.01238
0.00222
0.01603
0.02231
0.01723
0.00289
-0.01290
-0.02111
-0.01696
-0.00261
0.01425
0.02434
0.02151
0.00653
-0.01272
-0.02561
-0.02532
-0.01266
0.00502
0.01821
0.02014
0.01067
-0.00389
-0.01549
-0.01892
-0.01261
0.00163
0.01745
0.02533
0.01907
0.00156
-0.01660
-0.02466
-0.01866
-0.00307
0.01297
0.02138
0.01890
0.00743
-0.00723
-0.01753
-0.01795
-0.00888
0.00349
0.01205
0.01329
0.00739
-0.00342
-0.01470
-0.01976
-0.01338
0.00257
0.01848
0.02402
0.01639
0.00146
-0.01203
-0.01796
-0.01408
-0.00174
0.01349
0.02292
0.01971
0.00449
-0.01431
-0.02604
-0.02472
-0.01198
0.00477
0.01652
0.01724
0.00692
-0.00853
-0.02053
-0.02221
-0.01160
0.00685
0.02375
0.03004
0.02308
0.00795
-0.00669
-0.01349
-0.00948
0.00253
0.01500
0.01965
0.01204
-0.00569
-0.02502
-0.03545
-0.03152
-0.01631
0.00198
0.01535
0.01826
0.00917
-0.00664
-0.01830
-0.01718
-0.00381
0.01335
0.02463
0.02468
0.01440
0.00005
-0.01026
-0.01077
-0.00074
0.01545
0.02993
0.03476
0.02634
0.00768
-0.01360
-0.02925
-0.03380
-0.02692
-0.01438
-0.00538
-0.00687
-0.01890
-0.03454
-0.04420
-0.04154
-0.02692
-0.00587
0.01486
0.02959
0.03498
0.03249
0.02913
0.03288
0.04622
0.06451
0.07955
0.08394
0.07396
0.05090
0.02018
-0.01157
-0.03893
-0.05950
-0.07630
-0.09743
-0.12914
-0.16901
-0.20910
-0.24139
-0.25179
-0.21428
-0.10860
0.05278
0.23153
0.39963
0.54586
0.63770
0.61043
0.42923
0.14925
-0.12209
-0.32152
-0.45948
-0.55753
-0.59763
-0.54910
-0.41487
-0.22909
-0.02888
0.15214
0.27968
0.33331
0.32348
0.28114
0.23133
0.18275
0.13605
0.09057
0.04366
-0.00734
-0.05920
-0.10248
-0.12818
-0.13311
-0.12036
-0.09778
-0.07510
-0.05892
-0.04929
-0.04131
-0.02930
-0.00968
0.01716
0.04565
0.06648
0.07148
0.05948
0.03800
0.01842
0.00870
0.01002
0.01799
0.02491
0.02296
0.00946
-0.01025
-0.02699
-0.03451
-0.03161
-0.02039
-0.00596
0.00376
0.00237
-0.00868
-0.02053
-0.02464
-0.01885
-0.00580
0.01051
0.02453
0.02916
0.02067
0.00381
-0.01072
-0.01452
-0.00664
0.00758
0.02043
0.02494
0.01742
0.00004
-0.01863
-0.02787
-0.02211
-0.00545
0.01104
0.01734
0.01125
-0.00130
-0.01209
-0.01637
-0.01342
-0.00416
0.00875
0.01937
0.02069
0.01032
-0.00680
-0.02144
-0.02537
-0.01557
0.00345
0.02117
0.02758
0.01982
0.00309
-0.01355
-0.02179
-0.01750
-0.00335
0.01190
0.01918
0.01511
0.00270
-0.01179
-0.02139
-0.02049
-0.00841
0.00850
0.02039
0.02089
0.01082
-0.00371
-0.01551
-0.01920
-0.01282
0.00087
0.01470
0.02039
0.01379
-0.00152
-0.01592
-0.02059
-0.01344
0.00067
0.01415
0.02063
0.01699
0.00456
-0.01041
-0.01935
-0.01705
-0.00576
0.00715
0.01519
0.01543
0.00732
-0.00677
-0.01950
-0.02153
-0.01001
0.00761
0.01996
0.02098
0.01209
-0.00162
-0.01408
-0.01929
-0.01396
-0.00040
0.01456
0.02358
0.02198
0.00949
-0.00867
-0.02351
-0.02737
-0.01856
-0.00218
0.01283
0.01860
0.01257
-0.00152
-0.01611
-0.02309
-0.01731
-0.00040
0.01861
0.02880
0.02532
0.01193
-0.00277
-0.01069
-0.00799
0.00319
0.01539
0.01986
0.01211
-0.00519
-0.02400
-0.03583
-0.03599
-0.02509
-0.00819
0.00743
0.01536
0.01342
0.00502
-0.00295
-0.00471
0.00101
0.01072
0.01891
0.02120
0.01580
0.00390
-0.00928
-0.01536
-0.00859
0.00799
0.02436
0.03162
0.02653
0.01039
-0.01151
-0.02946
-0.03393
-0.02409
-0.00978
-0.00317
-0.00899
-0.02297
-0.03729
-0.04530
-0.04255
-0.02731
-0.00280
0.02221
0.03817
0.04145
0.03641
0.03145
0.03400
0.04676
0.06574
0.08146
0.08453
0.07129
0.04460
0.01088
-0.02263
-0.05009
-0.07048
-0.08950
-0.11494
-0.14878
-0.18582
-0.21984
-0.24378
-0.23999
-0.18084
-0.05279
0.12323
0.30736
0.47139
0.59514
0.63719
0.54463
0.31471
0.02647
-0.21795
-0.37770
-0.47853
-0.54542
-0.56237
-0.50198
-0.36560
-0.18199
0.01348
0.18513
0.29962
0.34154
0.32425
0.27692
0.22224
0.16915
0.11934
0.07227
0.02531
-0.02372
-0.07185
-0.11074
-0.13180
-0.13151
-0.11357
-0.08775
-0.06495
-0.05090
-0.04401
-0.03876
-0.02943
-0.01190
0.01392
0.04162
0.06098
0.06527
0.05579
0.03983
0.02562
0.01873
0.02011
0.02553
0.02800
0.02219
0.00719
-0.01336
-0.03249
-0.04232
-0.03852
-0.02391
-0.00693
0.00369
0.00349
-0.00628
-0.01912
-0.02584
-0.02003
-0.00349
0.01467
0.02547
0.02580
0.01761
0.00496
-0.00645
-0.01030
-0.00413
0.00779
0.01778
0.02021
0.01372
0.00084
-0.01288
-0.02103
-0.01989
-0.01040
0.00267
0.01274
0.01394
0.00491
-0.00908
-0.01903
-0.01862
-0.00806
0.00674
0.01773
0.01920
0.01107
-0.00157
-0.01219
-0.01600
-0.01105
0.00095
0.01420
0.02103
0.01654
0.00218
-0.01433
-0.02315
-0.01867
-0.00376
0.01218
0.02003
0.01668
0.00533
-0.00797
-0.01722
-0.01803
-0.00934
0.00484
0.01683
0.01969
0.01149
-0.00370
-0.01777
-0.02270
-0.01528
0.00027
0.01498
0.02109
0.01628
0.00366
-0.01028
-0.01799
-0.01456
-0.00148
0.01321
0.02039
0.01620
0.00362
-0.01073
-0.02022
-0.02020
-0.01011
0.00480
0.01574
0.01659
0.00780
-0.00529
-0.01610
-0.01894
-0.01103
0.00463
0.01946
0.02479
0.01807
0.00383
-0.01032
-0.01787
-0.01550
-0.00438
0.00953
0.01801
0.01560
0.00289
-0.01377
-0.02567
-0.02651
-0.01622
-0.00066
0.01253
0.01778
0.01314
0.00132
-0.01007
-0.01221
-0.00209
0.01432
0.02706
0.02979
0.02225
0.00782
-0.00846
-0.02023
-0.02229
-0.01481
-0.00407
0.00244
0.00104
-0.00728
-0.01838
-0.02580
-0.02341
-0.01027
0.00765
0.02221
0.02816
0.02369
0.01002
-0.00668
-0.01625
-0.01201
0.00277
0.01803
0.02561
0.02330
0.01296
-0.00083
-0.01092
-0.01108
-0.00147
0.01043
0.01552
0.00931
-0.00601
-0.02370
-0.03598
-0.03769
-0.02894
-0.01541
-0.00533
-0.00435
-0.01206
-0.02251
-0.02789
-0.02208
-0.00341
0.02336
0.04847
0.06300
0.06470
0.05833
0.05121
0.04836
0.05040
0.05434
0.05506
0.04594
0.02081
-0.02078
-0.07001
-0.11389
-0.14448
-0.16212
-0.17231
-0.18295
-0.19861
-0.20846
-0.18352
-0.09709
0.05127
0.23737
0.42934
0.58765
0.65526
0.57811
0.35564
0.06204
-0.20122
-0.37807
-0.47774
-0.52955
-0.53696
-0.48235
-0.36052
-0.19291
-0.01422
0.14401
0.25996
0.32347
0.33606
0.30711
0.24908
0.17618
0.10325
0.04199
-0.00244
-0.03168
-0.05216
-0.07127
-0.09219
-0.11164
-0.12294
-0.12060
-0.10290
-0.07301
-0.03884
-0.00977
0.00812
0.01443
0.01392
0.01396
0.02082
0.03574
0.05372
0.06595
0.06465
0.04816
0.02299
0.00020
-0.01165
-0.01108
-0.00308
0.00455
0.00490
-0.00481
-0.02150
-0.03727
-0.04344
-0.03567
-0.01709
0.00322
0.01576
0.01607
0.00642
-0.00612
-0.01364
-0.01144
-0.00012
0.01499
0.02634
0.02777
0.01796
0.00178
-0.01243
-0.01773
-0.01221
0.00022
0.01212
0.01685
0.01205
0.00006
-0.01370
-0.02218
-0.01958
-0.00612
0.01003
0.01829
0.01398
0.00095
-0.01266
-0.01964
-0.01640
-0.00432
0.01049
0.02080
0.02218
0.01381
-0.00192
-0.01831
-0.02568
-0.01815
0.00014
0.01769
0.02452
0.01817
0.00330
-0.01199
-0.01979
-0.01588
-0.00236
0.01275
0.02013
0.01545
0.00190
-0.01299
-0.02241
-0.02245
-0.01255
0.00358
0.01792
0.02217
0.01374
-0.00174
-0.01436
-0.01683
-0.00857
0.00531
0.01759
0.02176
0.01444
-0.00190
-0.01819
-0.02418
-0.01660
-0.00134
0.01267
0.01994
0.01871
0.00865
-0.00781
-0.02320
-0.02807
-0.01826
0.00117
0.01911
0.02556
0.01777
0.00152
-0.01325
-0.01847
-0.01140
0.00436
0.01956
0.02411
0.01491
-0.00163
-0.01596
-0.02246
-0.01971
-0.00841
0.00714
0.01819
0.01717
0.00462
-0.01125
-0.02108
-0.01994
-0.00905
0.00560
0.01684
0.02007
0.01448
0.00262
-0.00992
-0.01637
-0.01297
-0.00124
0.01342
0.02402
0.02399
0.01156
-0.00609
-0.01710
-0.01558
-0.00615
0.00284
0.00693
0.00483
-0.00428
-0.01824
-0.02927
-0.02891
-0.01568
0.00399
0.02113
0.02873
0.02358
0.00812
-0.00900
-0.01759
-0.01320
0.00069
0.01661
0.02750
0.02838
0.01844
0.00343
-0.00690
-0.00656
0.00194
0.01114
0.01438
0.00772
-0.00923
-0.03105
-0.04740
-0.04996
-0.03888
-0.02142
-0.00622
0.00055
-0.00325
-0.01398
-0.02234
-0.01854
0.00066
0.02967
0.05821
0.07735
0.08295
0.07614
0.06223
0.04814
0.03898
0.03520
0.03198
0.02116
-0.00413
-0.04441
-0.09237
-0.13654
-0.16704
-0.18006
-0.18050
-0.17981
-0.18351
-0.17652
-0.12819
-0.01899
0.14293
0.33296
0.51969
0.65032
0.65019
0.47668
0.17956
-0.12079
-0.33023
-0.44269
-0.50230
-0.53056
-0.51035
-0.42390
-0.27989
-0.10509
0.07020
0.21611
0.30922
0.34353
0.33059
0.28638
0.22211
0.14680
0.07187
0.00941
-0.03319
-0.05654
-0.06846
-0.07910
-0.09424
-0.11137
-0.12212
-0.11866
-0.09873
-0.06621
-0.02916
0.00263
0.02112
0.02444
0.01899
0.01601
0.02387
0.04199
0.06127
0.07041
0.06339
0.04269
0.01660
-0.00598
-0.01880
-0.01962
-0.01129
-0.00139
0.00166
-0.00604
-0.02127
-0.03548
-0.04001
-0.03158
-0.01400
0.00515
0.01888
0.02254
0.01478
-0.00030
-0.01331
-0.01550
-0.00559
0.00996
0.02218
0.02462
0.01580
0.00013
-0.01379
-0.01834
-0.01163
0.00207
0.01553
0.02162
0.01644
0.00199
-0.01425
-0.02400
-0.02260
-0.01063
0.00610
0.01821
0.01791
0.00514
-0.01159
-0.02143
-0.01876
-0.00591
0.00979
0.02039
0.02078
0.01133
-0.00220
-0.01267
-0.01590
-0.01109
0.00035
0.01381
0.02131
0.01660
0.00128
-0.01556
-0.02411
-0.02006
-0.00645
0.00870
0.01725
0.01574
0.00637
-0.00577
-0.01525
-0.01696
-0.00790
0.00848
0.02187
0.02266
0.01059
-0.00586
-0.01768
-0.02083
-0.01525
-0.00286
0.01158
0.02033
0.01721
0.00320
-0.01321
-0.02202
-0.01847
-0.00519
0.01061
0.02157
0.02288
0.01342
-0.00294
-0.01736
-0.02109
-0.01249
0.00174
0.01261
0.01491
0.00820
-0.00430
-0.01638
-0.02084
-0.01375
0.00249
0.01987
0.02885
0.02392
0.00756
-0.01097
-0.02190
-0.02077
-0.00970
0.00469
0.01435
0.01355
0.00235
-0.01311
-0.02412
-0.02427
-0.01280
0.00500
0.02074
0.02725
0.02199
0.00830
-0.00569
-0.01121
-0.00478
0.00890
0.02045
0.02260
0.01367
-0.00344
-0.02259
-0.03522
-0.03419
-0.02024
-0.00266
0.00864
0.01044
0.00473
-0.00522
-0.01371
-0.01263
0.00086
0.01855
0.02785
0.02369
0.01071
-0.00340
-0.01269
-0.01306
-0.00319
0.01281
0.02676
0.03200
0.02664
0.01210
-0.00769
-0.02497
-0.03085
-0.02298
-0.00900
-0.00037
-0.00361
-0.01731
-0.03439
-0.04571
-0.04445
-0.03003
-0.00842
0.01162
0.02327
0.02456
0.01926
0.01538
0.02096
0.03875
0.06352
0.08484
0.09294
0.08364
0.05962
0.02874
-0.00026
-0.02230
-0.03804
-0.05283
-0.07416
-0.10754
-0.15113
-0.19519
-0.22888
-0.24454
-0.23133
-0.17166
-0.05582
0.10166
0.27230
0.43621
0.57493
0.64197
0.57371
0.35572
0.06300
-0.19492
-0.36599
-0.47234
-0.54457
-0.57165
-0.52199
-0.38805
-0.19706
0.00677
0.17911
0.28798
0.32635
0.31357
0.27812
0.23731
0.19327
0.14284
0.08568
0.02482
-0.03437
-0.08405
-0.11606
-0.12671
-0.11930
-0.10225
-0.08479
-0.07288
-0.06696
-0.06228
-0.05162
-0.02994
0.00108
0.03282
0.05520
0.06297
0.05707
0.04278
0.02792
0.02033
0.02331
0.03268
0.03907
0.03418
0.01633
-0.00841
-0.02990
-0.03950
-0.03449
-0.01932
-0.00342
0.00429
0.00038
-0.01208
-0.02597
-0.03300
-0.02723
-0.00938
0.01210
0.02637
0.02765
0.01776
0.00318
-0.00853
-0.01128
-0.00327
0.01079
0.02225
0.02432
0.01551
-0.00049
-0.01592
-0.02198
-0.01528
-0.00133
0.01045
0.01416
0.00887
-0.00339
-0.01744
-0.02517
-0.02057
-0.00539
0.01193
0.02224
0.02074
0.00906
-0.00573
-0.01541
-0.01574
-0.00765
0.00500
0.01671
0.02099
0.01388
-0.00150
-0.01611
-0.02176
-0.01607
-0.00243
0.01234
0.02053
0.01739
0.00444
-0.01124
-0.02112
-0.01960
-0.00690
0.01016
0.02170
0.02114
0.00917
-0.00765
-0.02096
-0.02380
-0.01386
0.00390
0.01912
0.02300
0.01426
-0.00113
-0.01449
-0.01920
-0.01359
-0.00125
0.01127
0.01794
0.01571
0.00528
-0.00912
-0.02019
-0.02024
-0.00710
0.01158
0.02322
0.02086
0.00765
-0.00834
-0.02009
-0.02294
-0.01506
0.00048
0.01576
0.02219
0.01602
0.00120
-0.01289
-0.01784
-0.01134
0.00273
0.01713
0.02391
0.01790
0.00103
-0.01758
-0.02771
-0.02467
-0.01102
0.00584
0.01677
0.01540
0.00314
-0.01102
-0.01795
-0.01476
-0.00347
0.01241
0.02708
0.03235
0.02369
0.00570
-0.01130
-0.01913
-0.01530
-0.00262
0.01124
0.01639
0.00776
-0.01024
-0.02752
-0.03558
-0.03062
-0.01393
0.00728
0.02200
0.02333
0.01390
0.00162
-0.00789
-0.01205
-0.00829
0.00359
0.01688
0.02204
0.01644
0.00644
-0.00053
-0.00187
0.00202
0.01014
0.01899
0.02190
0.01384
-0.00364
-0.02329
-0.03660
-0.03774
-0.02692
-0.01161
-0.00216
-0.00424
-0.01580
-0.03022
-0.03961
-0.03683
-0.01929
0.00750
0.03263
0.04756
0.05092
0.04715
0.04297
0.04444
0.05399
0.06815
0.07865
0.07651
0.05625
0.01899
-0.02616
-0.06631
-0.09468
-0.11530
-0.13533
-0.15611
-0.17750
-0.20413
-0.23281
-0.23452
-0.16844
-0.02383
0.16565
0.35738
0.52790
0.64730
0.65281
0.49472
0.21081
-0.08362
-0.29600
-0.42230
-0.50447
-0.55536
-0.54941
-0.46580
-0.31269
-0.11785
0.08165
0.24384
0.33648
0.35512
0.32115
0.26148
0.19453
0.13117
0.07812
0.03647
0.00158
-0.03247
-0.06814
-0.10232
-0.12677
-0.13263
-0.11787
-0.09005
-0.06069
-0.03790
-0.02480
-0.02074
-0.02040
-0.01442
0.00386
0.03119
0.05659
0.07061
0.07065
0.05849
0.03777
0.01527
0.00055
-0.00051
0.00841
0.01647
0.01418
-0.00023
-0.02073
-0.03788
-0.04377
-0.03591
-0.01856
-0.00049
0.00987
0.00872
-0.00167
-0.01459
-0.02209
-0.01851
-0.00353
0.01634
0.03041
0.03097
0.01908
0.00291
-0.00933
-0.01333
-0.00783
0.00495
0.01748
0.02040
0.01081
-0.00506
-0.01819
-0.02329
-0.01906
-0.00662
0.00924
0.01972
0.01740
0.00290
-0.01484
-0.02508
-0.02182
-0.00643
0.01310
0.02579
0.02423
0.01002
-0.00760
-0.01908
-0.02014
-0.01154
0.00308
0.01729
0.02308
0.01588
-0.00064
-0.01633
-0.02205
-0.01545
-0.00064
0.01534
0.02468
0.02107
0.00448
-0.01574
-0.02654
-0.02196
-0.00725
0.00747
0.01535
0.01455
0.00611
-0.00637
-0.01623
-0.01681
-0.00682
0.00837
0.02091
0.02469
0.01699
0.00008
-0.01752
-0.02514
-0.01843
-0.00248
0.01364
0.02282
0.02090
0.00747
-0.01149
-0.02533
-0.02628
-0.01449
0.00363
0.01913
0.02349
0.01341
-0.00491
-0.01902
-0.02000
-0.00840
0.00831
0.02122
0.02352
0.01336
-0.00390
-0.01813
-0.02111
-0.01164
0.00452
0.01816
0.02167
0.01340
-0.00205
-0.01735
-0.02574
-0.02325
-0.01108
0.00420
0.01471
0.01577
0.00735
-0.00596
-0.01572
-0.01437
-0.00146
0.01574
0.02814
0.03016
0.02081
0.00359
-0.01366
-0.02194
-0.01716
-0.00371
0.00859
0.01135
0.00268
-0.01234
-0.02526
-0.02880
-0.02007
-0.00228
0.01552
0.02322
0.01770
0.00520
-0.00580
-0.01208
-0.01391
-0.00952
0.00259
0.01730
0.02479
0.02022
0.00850
-0.00095
-0.00169
0.00619
0.01678
0.02277
0.02042
0.00977
-0.00799
-0.02900
-0.04410
-0.04455
-0.03142
-0.01433
-0.00187
0.00176
-0.00582
-0.02250
-0.03736
-0.03723
-0.01891
0.00883
0.03445
0.05083
0.05568
0.05089
0.04292
0.04060
0.04946
0.06666
0.08052
0.07707
0.05021
0.00690
-0.03844
-0.07459
-0.09946
-0.11769
-0.13422
-0.15131
-0.17198
-0.20078
-0.23079
-0.23041
-0.15971
-0.00978
0.18505
0.38139
0.55281
0.66444
0.65010
0.46423
0.15898
-0.13571
-0.32785
-0.42891
-0.49344
-0.53458
-0.52486
-0.44653
-0.30682
-0.12306
0.07618
0.24486
0.34165
0.36023
0.32640
0.26897
0.20326
0.13739
0.07967
0.03486
-0.00089
-0.03607
-0.07461
-0.11122
-0.13570
-0.14104
-0.12749
-0.10054
-0.06807
-0.03884
-0.01955
-0.01085
-0.00712
-0.00046
0.01434
0.03625
0.05769
0.06940
0.06704
0.05262
0.03150
0.01095
-0.00072
0.00069
0.01006
0.01659
0.01284
-0.00133
-0.02080
-0.03757
-0.04354
-0.03593
-0.01984
-0.00362
0.00664
0.00773
-0.00088
-0.01385
-0.02064
-0.01444
0.00127
0.01792
0.02966
0.03266
0.02327
0.00410
-0.01261
-0.01542
-0.00574
0.00594
0.01250
0.01322
0.00787
-0.00431
-0.01892
-0.02609
-0.01942
-0.00276
0.01377
0.02201
0.01879
0.00510
-0.01338
-0.02665
-0.02584
-0.01014
0.01183
0.02731
0.02742
0.01292
-0.00644
-0.01920
-0.01989
-0.01037
0.00380
0.01593
0.01964
0.01241
-0.00176
-0.01495
-0.02068
-0.01634
-0.00329
0.01259
0.02242
0.02010
0.00724
-0.00849
-0.01924
-0.02064
-0.01218
0.00269
0.01646
0.02058
0.01152
-0.00552
-0.01964
-0.02192
-0.01103
0.00654
0.02055
0.02308
0.01326
-0.00301
-0.01760
-0.02356
-0.01663
0.00152
0.02087
0.02878
0.02050
0.00235
-0.01510
-0.02429
-0.02246
-0.01124
0.00396
0.01595
0.01887
0.01064
-0.00513
-0.01914
-0.02166
-0.01051
0.00693
0.02037
0.02372
0.01657
0.00271
-0.01109
-0.01756
-0.01327
-0.00104
0.01181
0.01779
0.01335
0.00065
-0.01391
-0.02348
-0.02408
-0.01548
-0.00097
0.01291
0.01851
0.01238
-0.00089
-0.01174
-0.01276
-0.00300
0.01276
0.02644
0.02999
0.01989
0.00055
-0.01748
-0.02460
-0.01860
-0.00501
0.00796
0.01414
0.01058
-0.00235
-0.01952
-0.03113
-0.02840
-0.01135
0.00982
0.02277
0.02224
0.01178
-0.00142
-0.01135
-0.01457
-0.01002
0.00094
0.01417
0.02320
0.02237
0.01205
-0.00001
-0.00476
0.00052
0.01140
0.02094
0.02312
0.01419
-0.00489
-0.02654
-0.04026
-0.04042
-0.03019
-0.01733
-0.00817
-0.00641
-0.01402
-0.02783
-0.03721
-0.03150
-0.01032
0.01674
0.03966
0.05355
0.05746
0.05342
0.04702
0.04523
0.05158
0.06326
0.07215
0.06865
0.04651
0.00726
-0.03910
-0.08017
-0.11015
-0.13211
-0.15066
-0.16731
-0.18542
-0.21004
-0.23074
-0.21148
-0.11718
0.04775
0.24354
0.43490
0.59817
0.68442
0.62030
0.38470
0.06392
-0.21081
-0.37755
-0.46701
-0.52385
-0.54615
-0.50711
-0.39878
-0.23694
-0.04640
0.14006
0.28295
0.35507
0.35805
0.31418
0.24673
0.17245
0.10446
0.05148
0.01318
-0.01794
-0.04857
-0.07963
-0.10774
-0.12773
-0.13349
-0.12061
-0.09145
-0.05672
-0.02888
-0.01341
-0.00724
-0.00417
0.00112
0.01300
0.03302
0.05574
0.06971
0.06688
0.05003
0.02877
0.01094
0.00070
0.00057
0.00855
0.01523
0.01049
-0.00639
-0.02686
-0.04154
-0.04514
-0.03616
-0.01736
0.00348
0.01655
0.01552
0.00176
-0.01547
-0.02424
-0.01821
-0.00086
0.01844
0.03100
0.03203
0.02105
0.00257
-0.01416
-0.01930
-0.00978
0.00721
0.01934
0.01916
0.00835
-0.00665
-0.01985
-0.02608
-0.02080
-0.00451
0.01394
0.02256
0.01655
0.00190
-0.01157
-0.01831
-0.01733
-0.00828
0.00753
0.02231
0.02436
0.00969
-0.01157
-0.02407
-0.02117
-0.00785
0.00761
0.01980
0.02438
0.01698
-0.00080
-0.01806
-0.02302
-0.01411
0.00092
0.01389
0.02005
0.01636
0.00297
-0.01374
-0.02410
-0.02222
-0.00930
0.00792
0.02029
0.02092
0.01003
-0.00524
-0.01658
-0.01924
-0.01251
0.00116
0.01615
0.02487
0.02133
0.00565
-0.01373
-0.02431
-0.01936
-0.00358
0.01201
0.01928
0.01617
0.00441
-0.01122
-0.02269
-0.02226
-0.00909
0.00881
0.02074
0.02113
0.01145
-0.00306
-0.01601
-0.02091
-0.01434
0.00051
0.01501
0.02092
0.01515
0.00067
-0.01460
-0.02127
-0.01455
0.00182
0.01832
0.02586
0.02026
0.00415
-0.01368
-0.02341
-0.02100
-0.00961
0.00444
0.01488
0.01604
0.00566
-0.01100
-0.02297
-0.02225
-0.01006
0.00596
0.01861
0.02364
0.01866
0.00461
-0.01135
-0.01842
-0.01067
0.00742
0.02435
0.03022
0.02247
0.00560
-0.01277
-0.02579
-0.02952
-0.02332
-0.01011
0.00329
0.00886
0.00365
-0.00712
-0.01527
-0.01622
-0.00910
0.00542
0.02248
0.03169
0.02436
0.00307
-0.01862
-0.02676
-0.01705
0.00392
0.02508
0.03755
0.03715
0.02423
0.00402
-0.01420
-0.02160
-0.01571
-0.00276
0.00609
0.00245
-0.01306
-0.03162
-0.04325
-0.04285
-0.03104
-0.01297
0.00289
0.00879
0.00339
-0.00719
-0.01385
-0.00938
0.00858
0.03570
0.06212
0.07789
0.07870
0.06722
0.05071
0.03709
0.03051
0.02859
0.02368
0.00790
-0.02207
-0.06382
-0.11078
-0.15344
-0.18217
-0.19435
-0.19866
-0.20305
-0.19514
-0.14516
-0.03609
0.11957
0.29966
0.48712
0.64247
0.68418
0.54455
0.25400
-0.06545
-0.30647
-0.45214
-0.53853
-0.57833
-0.55019
-0.44269
-0.27713
-0.09051
0.08298
0.21615
0.29428
0.32197
0.31577
0.28711
0.23776
0.16976
0.09269
0.02023
-0.03600
-0.07011
-0.08427
-0.08775
-0.09027
-0.09538
-0.10086
-0.10318
-0.09876
-0.08312
-0.05408
-0.01709
0.01589
0.03472
0.03808
0.03260
0.02723
0.02848
0.03779
0.05051
0.05797
0.05339
0.03684
0.01449
-0.00621
-0.01968
-0.02277
-0.01602
-0.00547
-0.00011
-0.00519
-0.01807
-0.03130
-0.03825
-0.03515
-0.02106
0.00012
0.01857
0.02426
0.01573
0.00137
-0.00859
-0.00945
-0.00211
0.01016
0.02232
0.02764
0.02137
0.00540
-0.01184
-0.02083
-0.01701
-0.00323
0.01203
0.01960
0.01510
0.00120
-0.01500
-0.02626
-0.02731
-0.01614
0.00342
0.02121
0.02632
0.01534
-0.00472
-0.02118
-0.02412
-0.01234
0.00663
0.02203
0.02608
0.01703
-0.00062
-0.01774
-0.02482
-0.01797
-0.00144
0.01535
0.02353
0.01957
0.00670
-0.00803
-0.01832
-0.01993
-0.01085
0.00557
0.01899
0.01923
0.00598
-0.01132
-0.02250
-0.02269
-0.01216
0.00461
0.01957
0.02487
0.01806
0.00319
-0.01231
-0.02125
-0.01919
-0.00660
0.01016
0.02140
0.02004
0.00685
-0.00955
-0.01869
-0.01571
-0.00369
0.01030
0.01963
0.01973
0.00906
-0.00858
-0.02425
-0.02896
-0.01955
-0.00080
0.01725
0.02481
0.01811
0.00167
-0.01467
-0.02154
-0.01510
0.00081
0.01690
0.02460
0.02110
0.00895
-0.00680
-0.01949
-0.02184
-0.01081
0.00786
0.02199
0.02168
0.00683
-0.01323
-0.02700
-0.02815
-0.01770
-0.00147
0.01323
0.02021
0.01649
0.00379
-0.01116
-0.01881
-0.01261
0.00499
0.02334
0.03160
0.02605
0.01058
-0.00704
-0.01884
-0.02005
-0.01126
0.00205
0.01216
0.01252
0.00147
-0.01572
-0.02928
-0.03104
-0.01936
0.00003
0.01719
0.02377
0.01799
0.00488
-0.00805
-0.01482
-0.01223
-0.00070
0.01417
0.02352
0.02164
0.01099
-0.00017
-0.00484
-0.00154
0.00683
0.01606
0.02167
0.01923
0.00654
-0.01340
-0.03235
-0.04105
-0.03561
-0.02098
-0.00767
-0.00403
-0.01116
-0.02377
-0.03402
-0.03494
-0.02317
-0.00075
0.02521
0.04570
0.05470
0.05276
0.04632
0.04319
0.04796
0.05952
0.07080
0.07196
0.05655
0.02545
-0.01483
-0.05600
-0.09055
-0.11433
-0.12909
-0.14111
-0.15724
-0.18199
-0.21191
-0.22619
-0.18945
-0.07734
0.09908
0.30049
0.48495
0.61386
0.64089
0.52662
0.28450
-0.00238
-0.23700
-0.38297
-0.46907
-0.52512
-0.53912
-0.48285
-0.35449
-0.18094
0.00534
0.17498
0.29821
0.35328
0.34157
0.28697
0.21850
0.15495
0.10204
0.05802
0.01910
-0.01831
-0.05668
-0.09509
-0.12716
-0.14353
-0.13830
-0.11377
-0.07943
-0.04673
-0.02361
-0.01174
-0.00706
-0.00275
0.00723
0.02493
0.04625
0.06265
0.06705
0.05863
0.04150
0.02128
0.00477
-0.00098
0.00558
0.01631
0.01906
0.00817
-0.01221
-0.03309
-0.04607
-0.04601
-0.03294
-0.01290
0.00482
0.01254
0.00806
-0.00424
-0.01544
-0.01727
-0.00737
0.00937
0.02416
0.02961
0.02367
0.01010
-0.00411
-0.01222
-0.01036
0.00043
0.01354
0.01985
0.01408
-0.00097
-0.01690
-0.02585
-0.02444
-0.01357
0.00255
0.01666
0.02061
0.01122
-0.00540
-0.01766
-0.01829
-0.00885
0.00471
0.01703
0.02295
0.01759
0.00145
-0.01646
-0.02474
-0.01894
-0.00377
0.01217
0.02160
0.02029
0.00833
-0.00822
-0.01944
-0.01842
-0.00668
0.00817
0.01860
0.01999
0.01072
-0.00606
-0.02123
-0.02477
-0.01400
0.00399
0.01822
0.02103
0.01144
-0.00499
-0.01890
-0.02230
-0.01363
0.00186
0.01622
0.02313
0.01979
0.00732
-0.00881
-0.01995
-0.01894
-0.00596
0.01063
0.02064
0.01926
0.00825
-0.00716
-0.02029
-0.02450
-0.01676
-0.00090
0.01425
0.02043
0.01454
0.00017
-0.01429
-0.02040
-0.01479
-0.00069
0.01462
0.02348
0.02119
0.00869
-0.00727
-0.01797
-0.01797
-0.00765
0.00727
0.01835
0.01869
0.00764
-0.00852
-0.02084
-0.02321
-0.01496
-0.00044
0.01290
0.01801
0.01210
-0.00174
-0.01607
-0.02274
-0.01704
-0.00097
0.01716
0.02788
0.02643
0.01485
-0.00016
-0.01082
-0.01184
-0.00320
0.00943
0.01769
0.01518
0.00101
-0.01886
-0.03400
-0.03591
-0.02404
-0.00528
0.01182
0.02097
0.01854
0.00532
-0.01095
-0.01887
-0.01238
0.00424
0.02023
0.02611
0.01908
0.00393
-0.01009
-0.01476
-0.00726
0.00860
0.02457
0.03249
0.02867
0.01468
-0.00475
-0.02326
-0.03337
-0.02991
-0.01561
-0.00134
0.00226
-0.00686
-0.02278
-0.03764
-0.04468
-0.03889
-0.02011
0.00394
0.02178
0.02719
0.02347
0.01931
0.02217
0.03472
0.05456
0.07519
0.08787
0.08520
0.06583
0.03621
0.00611
-0.01852
-0.03759
-0.05427
-0.07358
-0.10141
-0.13914
-0.18033
-0.21644
-0.24117
-0.24134
-0.19210
-0.07783
0.08427
0.25798
0.42146
0.56175
0.63656
0.58057
0.37573
0.09325
-0.16324
-0.34559
-0.47024
-0.55540
-0.58396
-0.52940
-0.39142
-0.19840
0.00745
0.18173
0.29092
0.32739
0.31038
0.26892
0.22347
0.18021
0.13607
0.08645
0.03077
-0.02630
-0.07688
-0.11249
-0.12703
-0.12043
-0.10047
-0.07915
-0.06548
-0.06062
-0.05873
-0.05174
-0.03440
-0.00690
0.02473
0.05092
0.06346
0.06051
0.04729
0.03188
0.02083
0.01763
0.02230
0.03046
0.03386
0.02490
0.00302
-0.02277
-0.03943
-0.03968
-0.02668
-0.00995
0.00177
0.00385
-0.00405
-0.01765
-0.02845
-0.02794
-0.01412
0.00616
0.02226
0.02751
0.02189
0.00936
-0.00481
-0.01410
-0.01261
-0.00006
0.01603
0.02572
0.02390
0.01219
-0.00388
-0.01737
-0.02203
-0.01554
-0.00193
0.01019
0.01303
0.00477
-0.00902
-0.01923
-0.01963
-0.01031
0.00399
0.01704
0.02277
0.01743
0.00303
-0.01253
-0.02092
-0.01884
-0.00798
0.00740
0.02067
0.02388
0.01340
-0.00495
-0.01904
-0.01978
-0.00747
0.00952
0.02083
0.02009
0.00786
-0.00929
-0.02268
-0.02587
-0.01724
-0.00031
0.01705
0.02514
0.01839
0.00096
-0.01540
-0.02091
-0.01433
-0.00073
0.01331
0.02111
0.01754
0.00336
-0.01337
-0.02267
-0.01950
-0.00585
0.01148
0.02384
0.02450
0.01275
-0.00507
-0.01930
-0.02251
-0.01368
0.00118
0.01301
0.01582
0.00966
-0.00158
-0.01298
-0.01902
-0.01509
-0.00202
0.01225
0.01883
0.01534
0.00583
-0.00514
-0.01437
-0.01736
-0.00975
0.00639
0.02116
0.02437
0.01360
-0.00468
-0.01983
-0.02312
-0.01318
0.00308
0.01584
0.01919
0.01273
-0.00061
-0.01548
-0.02444
-0.02170
-0.00813
0.00835
0.01838
0.01710
0.00603
-0.00861
-0.01875
-0.01791
-0.00488
0.01437
0.02938
0.03182
0.02133
0.00499
-0.00866
-0.01474
-0.01261
-0.00476
0.00349
0.00542
-0.00291
-0.01854
-0.03199
-0.03323
-0.01962
0.00150
0.01913
0.02689
0.02427
0.01315
-0.00274
-0.01602
-0.01894
-0.00984
0.00584
0.02051
0.02810
0.02537
0.01424
0.00239
-0.00217
0.00205
0.00967
0.01388
0.01081
0.00013
-0.01585
-0.03219
-0.04209
-0.04056
-0.02903
-0.01523
-0.00734
-0.00850
-0.01649
-0.02573
-0.02862
-0.01842
0.00543
0.03506
0.05934
0.07111
0.06972
0.05943
0.04782
0.04278
0.04672
0.05345
0.05273
0.03763
0.00776
-0.03198
-0.07422
-0.11207
-0.14082
-0.15819
-0.16622
-0.17324
-0.18731
-0.20067
-0.18395
-0.10588
0.03928
0.22860
0.42829
0.59671
0.67199
0.59147
0.35280
0.04355
-0.21907
-0.37968
-0.46272
-0.50946
-0.52428
-0.48484
-0.37957
-0.22134
-0.03826
0.13569
0.26832
0.34072
0.35339
0.31974
0.25609
0.17857
0.10293
0.04100
-0.00311
-0.03268
-0.05491
-0.07633
-0.09854
-0.11707
-0.12499
-0.11777
-0.09599
-0.06525
-0.03423
-0.01081
0.00164
0.00538
0.00621
0.01044
0.02220
0.04079
0.05960
0.06915
0.06349
0.04443
0.02034
0.00102
-0.00736
-0.00513
0.00179
0.00591
0.00239
-0.00917
-0.02488
-0.03767
-0.04042
-0.03076
-0.01334
0.00319
0.01160
0.00924
-0.00150
-0.01390
-0.01944
-0.01255
0.00510
0.02486
0.03615
0.03315
0.01835
0.00004
-0.01338
-0.01716
-0.01076
0.00212
0.01395
0.01662
0.00693
-0.01025
-0.02443
-0.02653
-0.01523
0.00250
0.01681
0.02105
0.01431
0.00069
-0.01280
-0.01955
-0.01654
-0.00532
0.00903
0.01954
0.02016
0.00986
-0.00554
-0.01680
-0.01751
-0.00779
0.00662
0.01780
0.01937
0.00994
-0.00539
-0.01810
-0.02173
-0.01482
-0.00016
0.01582
0.02438
0.01954
0.00383
-0.01298
-0.02155
-0.01871
-0.00714
0.00715
0.01676
0.01588
0.00456
-0.01036
-0.01974
-0.01824
-0.00682
0.00875
0.02090
0.02352
0.01507
-0.00006
-0.01381
-0.01897
-0.01294
0.00096
0.01461
0.01927
0.01159
-0.00378
-0.01792
-0.02367
-0.01856
-0.00480
0.01129
0.02117
0.01884
0.00547
-0.01085
-0.02051
-0.01829
-0.00573
0.01063
0.02263
0.02403
0.01368
-0.00283
-0.01576
-0.01785
-0.00937
0.00355
0.01412
0.01759
0.01149
-0.00307
-0.01947
-0.02815
-0.02363
-0.00883
0.00769
0.01770
0.01704
0.00647
-0.00825
-0.01812
-0.01596
-0.00164
0.01724
0.03028
0.03077
0.01930
0.00254
-0.01132
-0.01687
-0.01295
-0.00251
0.00798
0.01092
0.00247
-0.01395
-0.02951
-0.03538
-0.02736
-0.00788
0.01413
0.02707
0.02471
0.01143
-0.00233
-0.00953
-0.00959
-0.00420
0.00499
0.01428
0.01796
0.01293
0.00238
-0.00620
-0.00641
0.00289
0.01680
0.02712
0.02712
0.01524
-0.00437
-0.02418
-0.03672
-0.03771
-0.02789
-0.01322
-0.00287
-0.00434
-0.01756
-0.03363
-0.04130
-0.03489
-0.01623
0.00873
0.03258
0.04814
0.05179
0.04663
0.04109
0.04290
0.05346
0.06684
0.07416
0.06913
0.04976
0.01762
-0.02150
-0.05798
-0.08485
-0.10428
-0.12372
-0.14647
-0.17123
-0.19823
-0.22435
-0.22893
-0.17786
-0.05376
0.12443
0.31966
0.50065
0.63077
0.65066
0.51310
0.24695
-0.04285
-0.26041
-0.39073
-0.47536
-0.53719
-0.55299
-0.49002
-0.34527
-0.14835
0.05572
0.22259
0.32261
0.35103
0.32508
0.26942
0.20403
0.14168
0.08908
0.04665
0.00951
-0.02797
-0.06696
-0.10263
-0.12682
-0.13289
-0.12008
-0.09455
-0.06581
-0.04181
-0.02664
-0.01992
-0.01659
-0.00916
0.00709
0.03021
0.05274
0.06613
0.06524
0.05115
0.03115
0.01463
0.00750
0.00951
0.01566
0.01902
0.01382
-0.00125
-0.02132
-0.03759
-0.04244
-0.03416
-0.01798
-0.00266
0.00479
0.00238
-0.00709
-0.01759
-0.02183
-0.01463
0.00293
0.02266
0.03409
0.03152
0.01737
-0.00011
-0.01228
-0.01423
-0.00604
0.00782
0.01952
0.02083
0.00868
-0.01084
-0.02589
-0.02804
-0.01779
-0.00171
0.01290
0.02023
0.01714
0.00538
-0.00857
-0.01736
-0.01656
-0.00637
0.00781
0.01738
0.01606
0.00460
-0.01029
-0.02055
-0.02034
-0.00856
0.00965
0.02456
0.02768
0.01725
-0.00086
-0.01714
-0.02374
-0.01786
-0.00274
0.01348
0.02150
0.01645
0.00115
-0.01565
-0.02448
-0.02024
-0.00513
0.01232
0.02248
0.02060
0.00863
-0.00705
-0.01885
-0.02077
-0.01163
0.00341
0.01581
0.01920
0.01265
0.00012
-0.01184
-0.01677
-0.01156
0.00096
0.01318
0.01784
0.01251
0.00014
-0.01289
-0.01932
-0.01445
-0.00012
0.01497
0.02106
0.01485
0.00092
-0.01344
-0.02283
-0.02376
-0.01447
0.00237
0.01853
0.02476
0.01738
0.00123
-0.01336
-0.01752
-0.00983
0.00372
0.01535
0.02022
0.01666
0.00533
-0.00967
-0.02051
-0.02006
-0.00835
0.00653
0.01489
0.01267
0.00241
-0.01064
-0.02096
-0.02298
-0.01350
0.00396
0.01927
0.02274
0.01282
-0.00309
-0.01454
-0.01476
-0.00380
0.01247
0.02632
0.03179
0.02579
0.00882
-0.01307
-0.02903
-0.03028
-0.01767
-0.00103
0.00876
0.00715
-0.00276
-0.01424
-0.02176
-0.02238
-0.01445
0.00147
0.01954
0.02970
0.02494
0.00800
-0.01025
-0.01887
-0.01353
0.00276
0.02259
0.03696
0.03828
0.02457
0.00245
-0.01602
-0.02169
-0.01452
-0.00229
0.00576
0.00398
-0.00766
-0.02395
-0.03698
-0.04055
-0.03361
-0.02047
-0.00826
-0.00318
-0.00674
-0.01400
-0.01601
-0.00591
0.01582
0.04173
0.06322
0.07558
0.07787
0.07089
0.05757
0.04369
0.03488
0.03151
0.02729
0.01333
-0.01577
-0.05866
-0.10830
-0.15462
-0.18745
-0.20186
-0.20343
-0.20203
-0.19326
-0.15189
-0.05432
0.09538
0.27227
0.45280
0.60652
0.67058
0.57507
0.31947
0.00079
-0.26308
-0.42637
-0.51404
-0.55191
-0.53442
-0.45296
-0.31976
-0.15735
0.01244
0.16366
0.26975
0.32083
0.32804
0.30627
0.26080
0.19366
0.11441
0.03870
-0.02048
-0.05780
-0.07607
-0.08429
-0.09244
-0.10457
-0.11622
-0.11893
-0.10728
-0.08208
-0.04862
-0.01370
0.01549
0.03259
0.03555
0.02969
0.02507
0.02884
0.03972
0.05040
0.05445
0.04970
0.03629
0.01595
-0.00554
-0.01906
-0.01917
-0.00953
0.00031
0.00249
-0.00510
-0.01925
-0.03330
-0.03965
-0.03370
-0.01725
0.00201
0.01490
0.01626
0.00767
-0.00408
-0.01106
-0.00842
0.00318
0.01799
0.02852
0.02958
0.02009
0.00326
-0.01349
-0.02123
-0.01574
-0.00174
0.01096
0.01518
0.00980
-0.00205
-0.01521
-0.02330
-0.02088
-0.00758
0.00997
0.02160
0.02029
0.00654
-0.01189
-0.02408
-0.02243
-0.00798
0.01040
0.02284
0.02429
0.01525
0.00011
-0.01411
-0.02006
-0.01440
-0.00051
0.01356
0.02014
0.01585
0.00291
-0.01212
-0.02181
-0.02138
-0.01028
0.00703
0.02130
0.02285
0.00966
-0.00936
-0.02136
-0.01993
-0.00798
0.00709
0.01828
0.02086
0.01348
-0.00098
-0.01623
-0.02483
-0.02105
-0.00499
0.01484
0.02603
0.02198
0.00691
-0.00913
-0.01820
-0.01704
-0.00627
0.00900
0.01980
0.01873
0.00595
-0.01108
-0.02306
-0.02385
-0.01264
0.00523
0.01990
0.02266
0.01221
-0.00486
-0.01916
-0.02356
-0.01540
0.00203
0.01978
0.02808
0.02315
0.00894
-0.00700
-0.01782
-0.01908
-0.00997
0.00470
0.01564
0.01524
0.00379
-0.01107
-0.02086
-0.02127
-0.01257
0.00130
0.01326
0.01623
0.00862
-0.00421
-0.01450
-0.01665
-0.00823
0.00877
0.02618
0.03367
0.02703
0.01085
-0.00686
-0.01924
-0.02091
-0.01035
0.00559
0.01457
0.00932
-0.00649
-0.02345
-0.03360
-0.03201
-0.01743
0.00446
0.02180
0.02574
0.01773
0.00550
-0.00536
-0.01198
-0.01049
0.00089
0.01568
0.02287
0.01813
0.00703
-0.00264
-0.00673
-0.00326
0.00779
0.02087
0.02625
0.01824
-0.00007
-0.02042
-0.03499
-0.03853
-0.03029
-0.01610
-0.00555
-0.00474
-0.01283
-0.02482
-0.03443
-0.03478
-0.02146
0.00249
0.02725
0.04374
0.04962
0.04813
0.04418
0.04290
0.04865
0.06124
0.07342
0.07516
0.06074
0.03075
-0.01024
-0.05436
-0.09164
-0.11602
-0.13078
-0.14521
-0.16709
-0.19824
-0.22963
-0.23576
-0.18372
-0.06000
0.11516
0.30728
0.48940
0.62815
0.66302
0.53907
0.27537
-0.02473
-0.25574
-0.39202
-0.47404
-0.53154
-0.54780
-0.49259
-0.36120
-0.17657
0.02516
0.20232
0.31797
0.35777
0.33621
0.28084
0.21371
0.14774
0.09131
0.04802
0.01377
-0.01977
-0.05720
-0.09494
-0.12395
-0.13589
-0.12792
-0.10392
-0.07267
-0.04448
-0.02679
-0.02022
-0.01837
-0.01277
0.00155
0.02401
0.04946
0.06945
0.07533
0.06376
0.04020
0.01625
0.00235
0.00193
0.01033
0.01827
0.01735
0.00456
-0.01617
-0.03620
-0.04686
-0.04366
-0.02826
-0.00800
0.00698
0.00964
0.00102
-0.01072
-0.01668
-0.01276
-0.00049
0.01504
0.02714
0.02987
0.02098
0.00424
-0.01155
-0.01764
-0.01129
0.00257
0.01541
0.02057
0.01558
0.00220
-0.01359
-0.02336
-0.02135
-0.00912
0.00550
0.01431
0.01380
0.00557
-0.00623
-0.01656
-0.01985
-0.01225
0.00402
0.01949
0.02382
0.01445
-0.00185
-0.01534
-0.01964
-0.01314
0.00137
0.01660
0.02348
0.01734
0.00163
-0.01481
-0.02366
-0.02081
-0.00727
0.01061
0.02294
0.02215
0.00897
-0.00830
-0.02019
-0.02126
-0.01122
0.00505
0.01872
0.02148
0.01133
-0.00587
-0.02034
-0.02417
-0.01536
0.00145
0.01731
0.02377
0.01805
0.00441
-0.00948
-0.01736
-0.01613
-0.00586
0.00917
0.02062
0.02063
0.00824
-0.00943
-0.02240
-0.02406
-0.01376
0.00342
0.01826
0.02196
0.01220
-0.00474
-0.01860
-0.02201
-0.01404
0.00064
0.01507
0.02300
0.02050
0.00759
-0.00945
-0.01993
-0.01663
-0.00230
0.01323
0.02126
0.01846
0.00625
-0.01014
-0.02281
-0.02502
-0.01550
0.00058
0.01438
0.01806
0.00949
-0.00594
-0.01867
-0.02122
-0.01224
0.00389
0.01971
0.02750
0.02268
0.00724
-0.00986
-0.01802
-0.01266
0.00205
0.01739
0.02553
0.02211
0.00728
-0.01315
-0.02941
-0.03349
-0.02454
-0.00888
0.00495
0.01119
0.00824
-0.00204
-0.01421
-0.01968
-0.01131
0.00898
0.02857
0.03353
0.02083
0.00027
-0.01507
-0.01828
-0.00991
0.00565
0.02241
0.03329
0.03210
0.01785
-0.00291
-0.01923
-0.02350
-0.01677
-0.00647
0.00006
-0.00134
-0.01220
-0.03001
-0.04590
-0.04891
-0.03557
-0.01331
0.00658
0.01714
0.01742
0.01074
0.00413
0.00657
0.02272
0.04787
0.07130
0.08460
0.08487
0.07244
0.05037
0.02566
0.00545
-0.00940
-0.02411
-0.04407
-0.07247
-0.11082
-0.15520
-0.19394
-0.21674
-0.22349
-0.21375
-0.17114
-0.07558
0.06839
0.23389
0.40144
0.55659
0.65059
0.60521
0.39288
0.09108
-0.17980
-0.36372
-0.48448
-0.56812
-0.59392
-0.52882
-0.37624
-0.17579
0.02463
0.18518
0.28164
0.31427
0.30509
0.27800
0.24264
0.19747
0.14100
0.07663
0.01130
-0.04627
-0.08771
-0.10861
-0.11116
-0.10337
-0.09451
-0.08983
-0.08813
-0.08372
-0.07093
-0.04786
-0.01709
0.01563
0.04333
0.05937
0.05999
0.04766
0.03168
0.02319
0.02693
0.03751
0.04419
0.03965
0.02395
0.00194
-0.02011
-0.03521
-0.03726
-0.02597
-0.00936
0.00124
-0.00038
-0.01161
-0.02420
-0.03003
-0.02499
-0.01040
0.00773
0.02142
0.02474
0.01691
0.00293
-0.00873
-0.01115
-0.00330
0.01003
0.02199
0.02672
0.02044
0.00364
-0.01638
-0.02787
-0.02318
-0.00588
0.01201
0.02010
0.01627
0.00458
-0.00996
-0.02240
-0.02663
-0.01818
0.00017
0.01786
0.02394
0.01571
0.00006
-0.01278
-0.01661
-0.01089
0.00181
0.01664
0.02553
0.02084
0.00326
-0.01630
-0.02558
-0.02110
-0.00857
0.00449
0.01382
0.01716
0.01219
-0.00069
-0.01426
-0.01813
-0.00875
0.00666
0.01761
0.01854
0.00943
-0.00594
-0.01970
-0.02302
-0.01336
0.00312
0.01749
0.02352
0.01837
0.00342
-0.01407
-0.02421
-0.02146
-0.00777
0.00968
0.02208
0.02250
0.01016
-0.00789
-0.02078
-0.02085
-0.00836
0.00908
0.02145
0.02227
0.01136
-0.00596
-0.02103
-0.02548
-0.01666
-0.00033
0.01392
0.01970
0.01559
0.00359
-0.01073
-0.01902
-0.01542
-0.00166
0.01434
0.02390
0.02193
0.00908
-0.00841
-0.02183
-0.02441
-0.01449
0.00302
0.01801
0.02100
0.01051
-0.00584
-0.01794
-0.02040
-0.01364
-0.00130
0.01103
0.01695
0.01268
0.00052
-0.01210
-0.01721
-0.01103
0.00373
0.01959
0.02900
0.02788
0.01622
-0.00153
-0.01670
-0.02125
-0.01465
-0.00383
0.00359
0.00378
-0.00385
-0.01645
-0.02713
-0.02836
-0.01764
0.00128
0.02099
0.03296
0.03083
0.01507
-0.00556
-0.01943
-0.01981
-0.00770
0.01070
0.02725
0.03372
0.02559
0.00712
-0.00957
-0.01394
-0.00553
0.00737
0.01522
0.01222
-0.00211
-0.02258
-0.04044
-0.04831
-0.04367
-0.02886
-0.01064
0.00161
0.00196
-0.00679
-0.01586
-0.01744
-0.00725
0.01542
0.04499
0.06929
0.07797
0.07113
0.05761
0.04653
0.04220
0.04337
0.04364
0.03419
0.00944
-0.02915
-0.07454
-0.11809
-0.15217
-0.17216
-0.17978
-0.18429
-0.19345
-0.19739
-0.16580
-0.07075
0.08682
0.27862
0.46959
0.61993
0.67074
0.56336
0.30203
-0.01801
-0.27787
-0.43040
-0.50778
-0.54534
-0.53436
-0.45338
-0.31095
-0.14024
0.02829
0.17349
0.27738
0.32937
0.33311
0.30066
0.24252
0.16856
0.09303
0.02999
-0.01509
-0.04509
-0.06484
-0.07905
-0.09308
-0.10931
-0.12278
-0.12439
-0.10866
-0.07740
-0.03841
-0.00257
0.02075
0.02885
0.02645
0.02185
0.02275
0.03278
0.04855
0.06099
0.06190
0.04933
0.02742
0.00355
-0.01422
-0.02039
-0.01503
-0.00419
0.00313
-0.00017
-0.01440
-0.03191
-0.04210
-0.03866
-0.02279
-0.00136
0.01641
0.02284
0.01592
0.00126
-0.01120
-0.01383
-0.00566
0.00883
0.02315
0.03043
0.02504
0.00741
-0.01319
-0.02417
-0.01964
-0.00446
0.01070
0.01736
0.01342
0.00215
-0.01103
-0.02046
-0.02123
-0.01132
0.00552
0.01986
0.02236
0.01135
-0.00521
-0.01655
-0.01783
-0.01095
0.00070
0.01360
0.02112
0.01621
-0.00007
-0.01689
-0.02343
-0.01767
-0.00438
0.01088
0.02242
0.02381
0.01259
-0.00536
-0.01945
-0.02199
-0.01175
0.00591
0.02055
0.02253
0.01060
-0.00741
-0.02159
-0.02559
-0.01738
0.00007
0.01797
0.02585
0.01940
0.00347
-0.01262
-0.02116
-0.01864
-0.00652
0.00890
0.01912
0.01826
0.00663
-0.00891
-0.01863
-0.01640
-0.00415
0.01051
0.02023
0.02077
0.01103
-0.00552
-0.02045
-0.02543
-0.01832
-0.00355
0.01166
0.02014
0.01711
0.00388
-0.01130
-0.01868
-0.01420
-0.00113
0.01369
0.02363
0.02376
0.01264
-0.00546
-0.02115
-0.02531
-0.01553
0.00181
0.01584
0.01826
0.00829
-0.00782
-0.02137
-0.02588
-0.01915
-0.00331
0.01502
0.02611
0.02286
0.00758
-0.00847
-0.01451
-0.00839
0.00483
0.01880
0.02764
0.02570
0.01138
-0.00911
-0.02532
-0.03011
-0.02313
-0.00927
0.00391
0.00923
0.00411
-0.00742
-0.01793
-0.02147
-0.01522
0.00032
0.01938
0.03124
0.02740
0.00985
-0.00975
-0.01976
-0.01614
-0.00172
0.01761
0.03372
0.03748
0.02482
0.00250
-0.01601
-0.02173
-0.01568
-0.00424
0.00622
0.00986
0.00181
-0.01686
-0.03654
-0.04542
-0.03920
-0.02351
-0.00757
0.00186
0.00171
-0.00672
-0.01571
-0.01407
0.00344
0.03080
0.05689
0.07445
0.08081
0.07452
0.05741
0.03810
0.02700
0.02616
0.02685
0.01793
-0.00573
-0.04246
-0.08739
-0.13338
-0.17052
-0.19138
-0.19928
-0.20403
-0.20249
-0.17025
-0.08328
0.05692
0.22967
0.41400
0.57860
0.66044
0.59145
0.36668
0.06849
-0.19714
-0.38131
-0.49782
-0.56468
-0.56923
-0.49274
-0.34475
-0.16106
0.01923
0.16676
0.26484
0.31215
0.31989
0.29986
0.25637
0.19156
0.11474
0.04131
-0.01653
-0.05509
-0.07638
-0.08502
-0.08843
-0.09421
-0.10368
-0.11013
-0.10542
-0.08667
-0.05637
-0.02021
0.01349
0.03570
0.04203
0.03588
0.02595
0.02129
0.02703
0.04109
0.05411
0.05553
0.04179
0.01842
-0.00499
-0.02044
-0.02369
-0.01546
-0.00248
0.00500
-0.00005
-0.01563
-0.03212
-0.03965
-0.03442
-0.01897
0.00093
0.01797
0.02495
0.01887
0.00396
-0.01078
-0.01731
-0.01230
0.00205
0.01889
0.02971
0.02840
0.01442
-0.00576
-0.02041
-0.02029
-0.00692
0.00883
0.01712
0.01521
0.00493
-0.01014
-0.02370
-0.02783
-0.01843
0.00036
0.01796
0.02438
0.01676
0.00048
-0.01500
-0.02138
-0.01518
0.00027
0.01607
0.02306
0.01767
0.00362
-0.01105
-0.01852
-0.01492
-0.00206
0.01305
0.02125
0.01654
0.00093
-0.01642
-0.02571
-0.02255
-0.00906
0.00793
0.01984
0.02110
0.01290
0.00122
-0.00862
-0.01379
-0.01196
-0.00241
0.00986
0.01568
0.01008
-0.00302
-0.01556
-0.02143
-0.01751
-0.00387
0.01387
0.02558
0.02412
0.01136
-0.00435
-0.01517
-0.01745
-0.01119
0.00061
0.01174
0.01499
0.00706
-0.00803
-0.02102
-0.02347
-0.01305
0.00513
0.02161
0.02814
0.02200
0.00662
-0.01069
-0.02196
-0.02189
-0.01085
0.00466
0.01588
0.01762
0.01048
-0.00149
-0.01320
-0.01855
-0.01227
0.00409
0.01964
0.02211
0.00949
-0.00862
-0.02103
-0.02321
-0.01619
-0.00266
0.01238
0.02067
0.01584
0.00041
-0.01477
-0.01903
-0.00981
0.00691
0.02239
0.03025
0.02746
0.01418
-0.00479
-0.02042
-0.02485
-0.01719
-0.00370
0.00686
0.00799
-0.00141
-0.01634
-0.02845
-0.03075
-0.02051
-0.00014
0.02261
0.03684
0.03472
0.01756
-0.00454
-0.01956
-0.02021
-0.00666
0.01379
0.02976
0.03247
0.02171
0.00497
-0.00886
-0.01438
-0.01086
-0.00175
0.00658
0.00769
-0.00141
-0.01814
-0.03504
-0.04373
-0.04004
-0.02653
-0.01073
-0.00046
0.00042
-0.00606
-0.01300
-0.01212
0.00115
0.02429
0.04933
0.06831
0.07700
0.07462
0.06302
0.04752
0.03585
0.03255
0.03321
0.02592
0.00083
-0.04122
-0.09026
-0.13589
-0.17146
-0.19235
-0.19801
-0.19548
-0.18992
-0.16848
-0.10452
0.01620
0.18191
0.36699
0.53872
0.64454
0.61879
0.43383
0.14428
-0.14254
-0.34870
-0.46833
-0.53091
-0.54629
-0.50012
-0.38683
-0.22647
-0.05198
0.10652
0.22733
0.29995
0.32632
0.31503
0.27391
0.21042
0.13578
0.06315
0.00252
-0.04066
-0.06465
-0.07350
-0.07762
-0.08676
-0.10119
-0.11246
-0.11237
-0.09858
-0.07269
-0.03845
-0.00316
0.02324
0.03455
0.03331
0.02846
0.02841
0.03589
0.04742
0.05627
0.05649
0.04561
0.02553
0.00229
-0.01571
-0.02212
-0.01703
-0.00693
-0.00032
-0.00329
-0.01631
-0.03252
-0.04079
-0.03454
-0.01742
0.00161
0.01640
0.02401
0.02108
0.00683
-0.01130
-0.02077
-0.01471
0.00270
0.02091
0.03031
0.02636
0.01098
-0.00796
-0.02021
-0.01903
-0.00581
0.01050
0.01952
0.01644
0.00407
-0.01062
-0.02089
-0.02217
-0.01336
0.00176
0.01531
0.01963
0.01216
-0.00293
-0.01729
-0.02319
-0.01732
-0.00215
0.01491
0.02467
0.02145
0.00749
-0.00839
-0.01717
-0.01504
-0.00411
0.00970
0.01899
0.01797
0.00611
-0.01066
-0.02308
-0.02388
-0.01182
0.00689
0.02127
0.02270
0.01147
-0.00450
-0.01655
-0.01974
-0.01296
0.00089
0.01461
0.02031
0.01489
0.00165
-0.01263
-0.02111
-0.01936
-0.00752
0.00893
0.02134
0.02247
0.01084
-0.00742
-0.02126
-0.02166
-0.00821
0.01053
0.02343
0.02390
0.01242
-0.00517
-0.02067
-0.02687
-0.02098
-0.00588
0.01138
0.02221
0.02025
0.00606
-0.01144
-0.02076
-0.01620
-0.00115
0.01517
0.02370
0.02055
0.00839
-0.00642
-0.01759
-0.02030
-0.01244
0.00248
0.01500
0.01618
0.00505
-0.01100
-0.02288
-0.02541
-0.01802
-0.00329
0.01371
0.02603
0.02737
0.01647
-0.00029
-0.01206
-0.01125
0.00102
0.01639
0.02518
0.02167
0.00652
-0.01370
-0.02961
-0.03370
-0.02452
-0.00780
0.00667
0.01112
0.00449
-0.00776
-0.01780
-0.01948
-0.01044
0.00667
0.02421
0.03275
0.02707
0.01014
-0.00851
-0.01825
-0.01314
0.00437
0.02415
0.03477
0.03101
0.01556
-0.00474
-0.02234
-0.03033
-0.02542
-0.01142
0.00215
0.00633
-0.00200
-0.01902
-0.03619
-0.04416
-0.03811
-0.02141
-0.00311
0.00894
0.01256
0.01027
0.00703
0.00943
0.02287
0.04631
0.07081
0.08553
0.08487
0.07016
0.04707
0.02297
0.00386
-0.00917
-0.02037
-0.03597
-0.06142
-0.09930
-0.14525
-0.18741
-0.21546
-0.22776
-0.22138
-0.17961
-0.08445
0.05838
0.22274
0.38871
0.54035
0.63157
0.59095
0.39274
0.10648
-0.15546
-0.33520
-0.45109
-0.53232
-0.56661
-0.52100
-0.38928
-0.20304
-0.00863
0.15416
0.26050
0.30527
0.30337
0.27814
0.24450
0.20324
0.15002
0.08591
0.01882
-0.04121
-0.08577
-0.10993
-0.11426
-0.10542
-0.09282
-0.08345
-0.07884
-0.07536
-0.06709
-0.04937
-0.02184
0.01034
0.03827
0.05376
0.05400
0.04300
0.02922
0.02136
0.02400
0.03461
0.04441
0.04414
0.03037
0.00727
-0.01648
-0.03216
-0.03486
-0.02609
-0.01273
-0.00250
-0.00010
-0.00664
-0.01927
-0.03012
-0.02982
-0.01573
0.00454
0.01993
0.02436
0.01831
0.00582
-0.00674
-0.01207
-0.00632
0.00731
0.02044
0.02543
0.01964
0.00602
-0.00889
-0.01816
-0.01773
-0.00852
0.00381
0.01208
0.01182
0.00331
-0.00920
-0.01957
-0.02197
-0.01394
0.00124
0.01573
0.02203
0.01718
0.00363
-0.01185
-0.02056
-0.01668
-0.00194
0.01482
0.02371
0.01992
0.00573
-0.01142
-0.02258
-0.02153
-0.00841
0.00975
0.02253
0.02237
0.00947
-0.00841
-0.02123
-0.02275
-0.01293
0.00308
0.01719
0.02192
0.01486
0.00042
-0.01363
-0.02070
-0.01741
-0.00469
0.01105
0.02047
0.01800
0.00582
-0.00882
-0.01861
-0.01902
-0.00951
0.00570
0.01889
0.02249
0.01367
-0.00289
-0.01702
-0.02003
-0.01098
0.00376
0.01595
0.01955
0.01209
-0.00377
-0.01959
-0.02556
-0.01799
-0.00206
0.01297
0.02027
0.01780
0.00751
-0.00563
-0.01488
-0.01474
-0.00442
0.01095
0.02258
0.02287
0.01031
-0.00881
-0.02382
-0.02675
-0.01729
-0.00168
0.01195
0.01708
0.01068
-0.00430
-0.01863
-0.02270
-0.01400
0.00205
0.01791
0.02790
0.02807
0.01733
0.00055
-0.01259
-0.01443
-0.00500
0.00870
0.01751
0.01515
0.00162
-0.01669
-0.03068
-0.03351
-0.02374
-0.00602
0.01051
0.01705
0.01117
-0.00149
-0.01182
-0.01352
-0.00571
0.00795
0.02084
0.02580
0.01945
0.00546
-0.00727
-0.01100
-0.00411
0.00928
0.02265
0.02974
0.02599
0.01055
-0.01156
-0.03057
-0.03729
-0.02913
-0.01207
0.00273
0.00543
-0.00651
-0.02648
-0.04312
-0.04721
-0.03620
-0.01442
0.00937
0.02647
0.03274
0.03034
0.02573
0.02642
0.03728
0.05711
0.07796
0.08926
0.08393
0.06154
0.02753
-0.00920
-0.03957
-0.05903
-0.07139
-0.08689
-0.11360
-0.15025
-0.18907
-0.22252
-0.24041
-0.22211
-0.14525
-0.00912
0.16049
0.33554
0.49839
0.61691
0.62915
0.48908
0.22998
-0.04717
-0.26037
-0.40294
-0.50693
-0.57605
-0.57663
-0.48232
-0.30628
-0.09271
0.10731
0.25297
0.32491
0.33032
0.29479
0.24465
0.19500
0.14966
0.10627
0.06030
0.00886
-0.04520
-0.09286
-0.12379
-0.13265
-0.12192
-0.10006
-0.07715
-0.06047
-0.05183
-0.04740
-0.04005
-0.02378
0.00237
0.03319
0.05959
0.07279
0.06898
0.05183
0.03061
0.01523
0.01114
0.01654
0.02340
0.02286
0.01156
-0.00661
-0.02427
-0.03497
-0.03522
-0.02537
-0.01033
0.00171
0.00376
-0.00493
-0.01796
-0.02628
-0.02411
-0.01138
0.00729
0.02437
0.03213
0.02691
0.01235
-0.00272
-0.01035
-0.00804
0.00133
0.01198
0.01769
0.01435
0.00219
-0.01393
-0.02608
-0.02642
-0.01254
0.00836
0.02298
0.02237
0.00852
-0.00937
-0.02214
-0.02365
-0.01212
0.00720
0.02302
0.02587
0.01509
-0.00219
-0.01704
-0.02318
-0.01841
-0.00494
0.01110
0.02168
0.02080
0.00867
-0.00756
-0.01838
-0.01823
-0.00823
0.00579
0.01666
0.01876
0.01067
-0.00361
-0.01633
-0.02018
-0.01259
0.00232
0.01572
0.01938
0.01094
-0.00461
-0.01833
-0.02253
-0.01470
0.00137
0.01762
0.02591
0.02216
0.00818
-0.00938
-0.02216
-0.02365
-0.01266
0.00467
0.01748
0.01804
0.00804
-0.00435
-0.01253
-0.01431
-0.00913
0.00243
0.01550
0.02164
0.01500
-0.00221
-0.02042
-0.02877
-0.02232
-0.00505
0.01353
0.02470
0.02418
0.01280
-0.00347
-0.01529
-0.01525
-0.00381
0.01080
0.01899
0.01598
0.00294
-0.01468
-0.02885
-0.03190
-0.02137
-0.00269
0.01435
0.02188
0.01779
0.00574
-0.00691
-0.01244
-0.00677
0.00790
0.02394
0.03231
0.02735
0.01019
-0.01105
-0.02544
-0.02627
-0.01561
-0.00186
0.00667
0.00617
-0.00260
-0.01548
-0.02598
-0.02744
-0.01696
0.00192
0.02054
0.03010
0.02676
0.01310
-0.00394
-0.01610
-0.01675
-0.00454
0.01440
0.02923
0.03152
0.02079
0.00422
-0.00880
-0.01237
-0.00644
0.00407
0.01163
0.00957
-0.00361
-0.02221
-0.03667
-0.04034
-0.03356
-0.02194
-0.01165
-0.00661
-0.00825
-0.01505
-0.02133
-0.01896
-0.00292
0.02359
0.05055
0.06812
0.07285
0.06793
0.05908
0.05111
0.04681
0.04629
0.04540
0.03600
0.01090
-0.02957
-0.07705
-0.12152
-0.15608
-0.17675
-0.18404
-0.18649
-0.19331
-0.19550
-0.16168
-0.06454
0.09108
0.27555
0.45952
0.60972
0.66592
0.56336
0.30460
-0.01281
-0.26993
-0.42039
-0.49397
-0.52576
-0.51496
-0.44786
-0.32767
-0.17238
-0.00360
0.15334
0.27153
0.33474
0.34409
0.31106
0.24918
0.17303
0.09761
0.03384
-0.01417
-0.04671
-0.06640
-0.07912
-0.09214
-0.10768
-0.11967
-0.11910
-0.10218
-0.07266
-0.03837
-0.00753
0.01325
0.02113
0.01935
0.01640
0.02039
0.03295
0.04862
0.05971
0.06097
0.05067
0.03042
0.00618
-0.01253
-0.01788
-0.01025
0.00123
0.00577
-0.00109
-0.01557
-0.02992
-0.03751
-0.03518
-0.02335
-0.00612
0.00922
0.01565
0.01111
-0.00009
-0.01028
-0.01271
-0.00465
0.01048
0.02422
0.02832
0.02020
0.00396
-0.01228
-0.02030
-0.01609
-0.00244
0.01280
0.02151
0.01931
0.00715
-0.00897
-0.02057
-0.02153
-0.01191
0.00241
0.01361
0.01570
0.00698
-0.00854
-0.02184
-0.02387
-0.01237
0.00608
0.02122
0.02583
0.01851
0.00314
-0.01273
-0.02096
-0.01731
-0.00414
0.01121
0.02063
0.01924
0.00757
-0.00840
-0.01982
-0.01994
-0.00850
0.00792
0.02004
0.02124
0.01065
-0.00676
-0.02189
-0.02563
-0.01507
0.00301
0.01704
0.01996
0.01247
-0.00071
-0.01384
-0.02041
-0.01566
-0.00118
0.01504
0.02408
0.02149
0.00889
-0.00745
-0.01934
-0.02036
-0.00985
0.00571
0.01682
0.01745
0.00787
-0.00716
-0.02037
-0.02394
-0.01413
0.00435
0.02073
0.02599
0.01824
0.00217
-0.01427
-0.02324
-0.02034
-0.00683
0.01062
0.02285
0.02296
0.01089
-0.00619
-0.01860
-0.02018
-0.01100
0.00301
0.01292
0.01235
0.00227
-0.01037
-0.01874
-0.01937
-0.01100
0.00522
0.02287
0.03160
0.02524
0.00812
-0.00863
-0.01603
-0.01208
-0.00046
0.01214
0.01814
0.01259
-0.00287
-0.01997
-0.02965
-0.02821
-0.01786
-0.00321
0.01029
0.01625
0.01083
-0.00191
-0.01168
-0.01148
-0.00303
0.00789
0.01714
0.02132
0.01671
0.00442
-0.00672
-0.00788
0.00092
0.01310
0.02342
0.02874
0.02454
0.00793
-0.01549
-0.03342
-0.03731
-0.02856
-0.01487
-0.00417
-0.00237
-0.01184
-0.02834
-0.04162
-0.04234
-0.02873
-0.00632
0.01692
0.03414
0.04115
0.03869
0.03350
0.03467
0.04655
0.06499
0.08013
0.08259
0.06836
0.04006
0.00493
-0.02892
-0.05570
-0.07434
-0.08963
-0.10908
-0.13625
-0.16862
-0.20218
-0.23027
-0.23330
-0.18107
-0.05909
0.11247
0.29723
0.46897
0.60018
0.63703
0.52614
0.28166
-0.00139
-0.22475
-0.36536
-0.46064
-0.53342
-0.55927
-0.50292
-0.36095
-0.16444
0.04084
0.21004
0.31164
0.33951
0.31271
0.25972
0.20262
0.15211
0.10920
0.06863
0.02456
-0.02367
-0.07063
-0.10833
-0.12973
-0.13109
-0.11453
-0.08855
-0.06397
-0.04776
-0.03983
-0.03460
-0.02537
-0.00812
0.01645
0.04256
0.06158
0.06683
0.05794
0.04085
0.02394
0.01393
0.01321
0.01884
0.02398
0.02162
0.00865
-0.01189
-0.03180
-0.04192
-0.03791
-0.02312
-0.00620
0.00422
0.00373
-0.00590
-0.01758
-0.02292
-0.01763
-0.00367
0.01304
0.02586
0.02924
0.02091
0.00463
-0.01062
-0.01651
-0.01066
0.00314
0.01770
0.02503
0.01986
0.00382
-0.01434
-0.02457
-0.02205
-0.00924
0.00645
0.01662
0.01607
0.00546
-0.00925
-0.02011
-0.02085
-0.01014
0.00663
0.01959
0.02078
0.00980
-0.00647
-0.01884
-0.02068
-0.01067
0.00620
0.02071
0.02480
0.01673
0.00112
-0.01459
-0.02326
-0.01989
-0.00477
0.01414
0.02492
0.02081
0.00531
-0.01180
-0.02191
-0.02091
-0.00934
0.00693
0.01807
0.01704
0.00556
-0.00848
-0.01815
-0.01990
-0.01218
0.00319
0.01861
0.02440
0.01679
0.00105
-0.01339
-0.01936
-0.01449
-0.00086
0.01537
0.02521
0.02192
0.00679
-0.01137
-0.02342
-0.02524
-0.01681
-0.00092
0.01503
0.02058
0.01064
-0.00819
-0.02215
-0.02165
-0.00781
0.01045
0.02352
0.02594
0.01774
0.00347
-0.01027
-0.01764
-0.01544
-0.00419
0.01058
0.01963
0.01598
0.00111
-0.01613
-0.02650
-0.02553
-0.01387
0.00343
0.01775
0.02103
0.01167
-0.00393
-0.01613
-0.01826
-0.00933
0.00672
0.02263
0.03018
0.02460
0.00877
-0.00799
-0.01692
-0.01537
-0.00604
0.00588
0.01350
0.01035
-0.00411
-0.02206
-0.03263
-0.02975
-0.01500
0.00452
0.01991
0.02459
0.01735
0.00268
-0.01153
-0.01746
-0.01156
0.00257
0.01622
0.02177
0.01734
0.00680
-0.00300
-0.00592
-0.00006
0.01120
0.02188
0.02628
0.02046
0.00428
-0.01652
-0.03253
-0.03708
-0.03056
-0.01894
-0.00924
-0.00650
-0.01267
-0.02553
-0.03753
-0.03853
-0.02341
0.00221
0.02617
0.04025
0.04494
0.04493
0.04425
0.04632
0.05389
0.06532
0.07327
0.06985
0.05255
0.02436
-0.00980
-0.04460
-0.07451
-0.09649
-0.11336
-0.13156
-0.15500
-0.18336
-0.21265
-0.22899
-0.20387
-0.11085
0.04695
0.23668
0.42340
0.57775
0.65204
0.58496
0.36406
0.06890
-0.18410
-0.34094
-0.43179
-0.49988
-0.54099
-0.51930
-0.41538
-0.24373
-0.04107
0.14766
0.28270
0.34559
0.34434
0.30080
0.23627
0.16820
0.11009
0.06632
0.02976
-0.00976
-0.05383
-0.09418
-0.12123
-0.13091
-0.12411
-0.10424
-0.07752
-0.05245
-0.03541
-0.02685
-0.02198
-0.01430
0.00110
0.02451
0.04994
0.06769
0.07035
0.05758
0.03608
0.01563
0.00429
0.00470
0.01301
0.02097
0.02043
0.00804
-0.01252
-0.03261
-0.04346
-0.04063
-0.02612
-0.00763
0.00526
0.00662
-0.00249
-0.01499
-0.02188
-0.01730
-0.00217
0.01638
0.02956
0.03153
0.02158
0.00462
-0.01057
-0.01614
-0.01006
0.00331
0.01636
0.02153
0.01469
-0.00142
-0.01750
-0.02384
-0.01742
-0.00327
0.00996
0.01548
0.01112
-0.00082
-0.01470
-0.02337
-0.02120
-0.00753
0.01169
0.02645
0.02845
0.01645
-0.00266
-0.01834
-0.02293
-0.01524
0.00031
0.01592
0.02311
0.01720
0.00141
-0.01473
-0.02247
-0.01880
-0.00619
0.00940
0.02019
0.01976
0.00739
-0.01038
-0.02320
-0.02318
-0.00979
0.00957
0.02395
0.02565
0.01462
-0.00251
-0.01703
-0.02220
-0.01567
-0.00110
0.01294
0.01852
0.01364
0.00183
-0.01132
-0.01973
-0.01802
-0.00532
0.01188
0.02309
0.02118
0.00696
-0.01175
-0.02470
-0.02453
-0.01083
0.00891
0.02319
0.02407
0.01256
-0.00328
-0.01485
-0.01715
-0.00960
0.00370
0.01507
0.01782
0.01039
-0.00356
-0.01710
-0.02266
-0.01634
-0.00151
0.01345
0.02100
0.01761
0.00415
-0.01360
-0.02575
-0.02413
-0.00913
0.00977
0.02165
0.02173
0.01207
-0.00216
-0.01449
-0.01778
-0.00827
0.00964
0.02533
0.02994
0.02155
0.00429
-0.01447
-0.02638
-0.02596
-0.01472
-0.00042
0.00850
0.00767
-0.00220
-0.01583
-0.02502
-0.02283
-0.00842
0.01204
0.02850
0.03210
0.02041
0.00014
-0.01685
-0.02179
-0.01333
0.00430
0.02351
0.03469
0.03097
0.01471
-0.00334
-0.01294
-0.01160
-0.00349
0.00536
0.00970
0.00554
-0.00807
-0.02683
-0.04226
-0.04669
-0.03827
-0.02186
-0.00575
0.00261
-0.00005
-0.01021
-0.01779
-0.01228
0.00843
0.03616
0.06020
0.07492
0.07908
0.07233
0.05734
0.04251
0.03616
0.03713
0.03465
0.01831
-0.01416
-0.05820
-0.10678
-0.15117
-0.18145
-0.19305
-0.19381
-0.19628
-0.19579
-0.16340
-0.07325
0.06871
0.23648
0.41280
0.57694
0.66756
0.60321
0.36730
0.04998
-0.22316
-0.39405
-0.48617
-0.53530
-0.54046
-0.48246
-0.36010
-0.19502
-0.01704
0.14366
0.26111
0.32353
0.33703
0.31456
0.26505
0.19568
0.11802
0.04592
-0.01098
-0.04929
-0.07070
-0.08117
-0.08919
-0.10062
-0.11361
-0.11960
-0.11069
-0.08590
-0.05083
-0.01398
0.01561
0.03077
0.03053
0.02242
0.01786
0.02383
0.03838
0.05350
0.06111
0.05671
0.04007
0.01573
-0.00764
-0.02130
-0.02154
-0.01160
0.00028
0.00490
-0.00237
-0.01795
-0.03259
-0.03800
-0.03104
-0.01438
0.00426
0.01550
0.01451
0.00442
-0.00729
-0.01416
-0.01236
-0.00061
0.01748
0.03227
0.03385
0.02085
0.00174
-0.01336
-0.01971
-0.01695
-0.00610
0.00854
0.01792
0.01440
-0.00043
-0.01662
-0.02402
-0.01874
-0.00412
0.01158
0.01967
0.01617
0.00379
-0.01070
-0.02021
-0.01959
-0.00796
0.00911
0.02174
0.02264
0.01212
-0.00359
-0.01681
-0.02096
-0.01309
0.00288
0.01726
0.02175
0.01503
0.00152
-0.01243
-0.02030
-0.01742
-0.00467
0.01042
0.01862
0.01546
0.00335
-0.01116
-0.02087
-0.02048
-0.00921
0.00764
0.02086
0.02299
0.01288
-0.00394
-0.01823
-0.02179
-0.01238
0.00433
0.01826
0.02168
0.01382
-0.00019
-0.01358
-0.02039
-0.01652
-0.00262
0.01353
0.02147
0.01658
0.00287
-0.01210
-0.02188
-0.02218
-0.01198
0.00444
0.01848
0.02217
0.01342
-0.00240
-0.01566
-0.01854
-0.00959
0.00593
0.01905
0.02219
0.01400
-0.00032
-0.01364
-0.02066
-0.01797
-0.00535
0.01079
0.01960
0.01517
0.00149
-0.01319
-0.02297
-0.02394
-0.01361
0.00462
0.02009
0.02290
0.01262
-0.00258
-0.01319
-0.01356
-0.00347
0.01200
0.02465
0.02750
0.01865
0.00202
-0.01480
-0.02406
-0.02186
-0.01087
0.00138
0.00774
0.00521
-0.00488
-0.01760
-0.02563
-0.02283
-0.00884
0.01022
0.02586
0.03145
0.02397
0.00557
-0.01498
-0.02537
-0.01847
0.00142
0.02210
0.03316
0.03134
0.01907
0.00196
-0.01174
-0.01414
-0.00421
0.00956
0.01558
0.00828
-0.00921
-0.02929
-0.04446
-0.04912
-0.04103
-0.02381
-0.00701
-0.00014
-0.00468
-0.01315
-0.01585
-0.00738
0.01217
0.03842
0.06376
0.07989
0.08195
0.07117
0.05422
0.03980
0.03323
0.03223
0.02822
0.01316
-0.01526
-0.05451
-0.09957
-0.14265
-0.17413
-0.18943
-0.19535
-0.20227
-0.20371
-0.17024
-0.07630
0.07049
0.24143
0.41848
0.58324
0.67569
0.61198
0.37330
0.05081
-0.22908
-0.40962
-0.51261
-0.56610
-0.56240
-0.48501
-0.34303
-0.16710
0.01095
0.16529
0.27559
0.33190
0.33868
0.30912
0.25521
0.18466
0.10602
0.03291
-0.02112
-0.05225
-0.06815
-0.07891
-0.08941
-0.10039
-0.11118
-0.11749
-0.11103
-0.08671
-0.04962
-0.01198
0.01589
0.03037
0.03332
0.02983
0.02671
0.02971
0.03961
0.05100
0.05576
0.04897
0.03192
0.01055
-0.00791
-0.01770
-0.01692
-0.00902
-0.00097
0.00115
-0.00504
-0.01795
-0.03191
-0.03816
-0.03065
-0.01231
0.00663
0.01721
0.01666
0.00697
-0.00644
-0.01528
-0.01302
-0.00059
0.01489
0.02641
0.02935
0.02082
0.00288
-0.01454
-0.02000
-0.01110
0.00407
0.01520
0.01673
0.00864
-0.00527
-0.01885
-0.02555
-0.02137
-0.00729
0.01011
0.02121
0.01945
0.00616
-0.01053
-0.02108
-0.01934
-0.00554
0.01270
0.02415
0.02223
0.00960
-0.00560
-0.01621
-0.01849
-0.01185
0.00047
0.01185
0.01609
0.01130
0.00038
-0.01122
-0.01763
-0.01460
-0.00227
0.01330
0.02289
0.02028
0.00657
-0.01078
-0.02254
-0.02262
-0.01142
0.00421
0.01526
0.01638
0.00828
-0.00415
-0.01469
-0.01747
-0.00932
0.00701
0.02253
0.02732
0.01753
-0.00161
-0.01919
-0.02572
-0.01888
-0.00373
0.01139
0.01915
0.01595
0.00365
-0.01102
-0.02019
-0.01920
-0.00859
0.00657
0.01887
0.02193
0.01358
-0.00238
-0.01736
-0.02226
-0.01331
0.00481
0.02172
0.02776
0.01935
0.00065
-0.01835
-0.02690
-0.02043
-0.00399
0.01196
0.01928
0.01523
0.00127
-0.01640
-0.02732
-0.02365
-0.00790
0.00969
0.02049
0.02161
0.01358
-0.00021
-0.01214
-0.01380
-0.00289
0.01452
0.02846
0.03095
0.01979
-0.00037
-0.02071
-0.03307
-0.03309
-0.02103
-0.00288
0.01088
0.01236
0.00262
-0.01082
-0.02070
-0.02179
-0.01073
0.00983
0.02903
0.03472
0.02320
0.00152
-0.01787
-0.02428
-0.01446
0.00612
0.02711
0.03868
0.03503
0.01717
-0.00594
-0.02172
-0.02250
-0.01054
0.00456
0.01222
0.00631
-0.01176
-0.03349
-0.04811
-0.04902
-0.03690
-0.01820
-0.00120
0.00772
0.00654
-0.00113
-0.00679
-0.00154
0.01740
0.04421
0.06851
0.08157
0.07986
0.06603
0.04771
0.03343
0.02715
0.02520
0.01842
-0.00139
-0.03602
-0.08127
-0.13029
-0.17367
-0.20068
-0.20850
-0.20704
-0.20202
-0.17463
-0.09535
0.03955
0.20394
0.37554
0.54196
0.65881
0.64125
0.44183
0.12538
-0.17402
-0.37146
-0.47784
-0.53610
-0.55339
-0.50854
-0.39390
-0.22851
-0.04502
0.12150
0.24242
0.30792
0.32857
0.31899
0.28366
0.22276
0.14468
0.06516
-0.00283
-0.05271
-0.08163
-0.09122
-0.09004
-0.08944
-0.09496
-0.10316
-0.10582
-0.09580
-0.07104
-0.03628
-0.00125
0.02460
0.03689
0.03694
0.03008
0.02389
0.02543
0.03659
0.05167
0.06065
0.05586
0.03650
0.00863
-0.01741
-0.03114
-0.02773
-0.01273
0.00099
0.00372
-0.00444
-0.01760
-0.03045
-0.03804
-0.03447
-0.01779
0.00469
0.02044
0.02186
0.01160
-0.00155
-0.00986
-0.00953
0.00008
0.01574
0.02907
0.03061
0.01791
-0.00184
-0.01769
-0.02241
-0.01533
-0.00102
0.01284
0.01832
0.01114
-0.00566
-0.02215
-0.02775
-0.01918
-0.00217
0.01428
0.02347
0.02171
0.00871
-0.00948
-0.02147
-0.01939
-0.00600
0.00915
0.01841
0.01859
0.00931
-0.00602
-0.01913
-0.02137
-0.01069
0.00677
0.02116
0.02479
0.01586
-0.00088
-0.01688
-0.02425
-0.01962
-0.00541
0.01132
0.02190
0.02012
0.00611
-0.01243
-0.02446
-0.02307
-0.00982
0.00791
0.02170
0.02496
0.01546
-0.00178
-0.01662
-0.02120
-0.01455
-0.00079
0.01353
0.02085
0.01645
0.00288
-0.01142
-0.01856
-0.01554
-0.00433
0.00933
0.01788
0.01584
0.00371
-0.01199
-0.02263
-0.02215
-0.00996
0.00833
0.02297
0.02514
0.01324
-0.00500
-0.01820
-0.01984
-0.01089
0.00390
0.01856
0.02560
0.01907
0.00117
-0.01725
-0.02529
-0.02005
-0.00629
0.00863
0.01792
0.01647
0.00342
-0.01500
-0.02738
-0.02513
-0.00964
0.00947
0.02242
0.02487
0.01761
0.00478
-0.00728
-0.01203
-0.00617
0.00761
0.02119
0.02542
0.01617
-0.00257
-0.02132
-0.03117
-0.02849
-0.01596
-0.00059
0.00984
0.01017
0.00042
-0.01345
-0.02203
-0.01827
-0.00261
0.01723
0.03120
0.03225
0.01934
-0.00163
-0.01974
-0.02463
-0.01303
0.00906
0.02990
0.03868
0.03109
0.01154
-0.00930
-0.02114
-0.02021
-0.01009
0.00169
0.00718
0.00098
-0.01593
-0.03523
-0.04663
-0.04503
-0.03202
-0.01322
0.00386
0.01208
0.00905
0.00007
-0.00499
0.00176
0.02159
0.04877
0.07359
0.08706
0.08488
0.06920
0.04777
0.02962
0.01870
0.01111
-0.00112
-0.02415
-0.05984
-0.10552
-0.15321
-0.19182
-0.21524
-0.22650
-0.22607
-0.19722
-0.11684
0.01505
0.17195
0.33334
0.49544
0.62952
0.65717
0.51239
0.22757
-0.08026
-0.31597
-0.46778
-0.56067
-0.59336
-0.54619
-0.42133
-0.24742
-0.05881
0.11166
0.23419
0.29634
0.31094
0.29934
0.27116
0.22581
0.16525
0.09687
0.02817
-0.03363
-0.07926
-0.10113
-0.10115
-0.09157
-0.08597
-0.08925
-0.09584
-0.09606
-0.08329
-0.05690
-0.02195
0.01268
0.03778
0.04822
0.04510
0.03490
0.02668
0.02746
0.03716
0.04838
0.05235
0.04477
0.02635
0.00150
-0.02174
-0.03406
-0.03111
-0.01756
-0.00342
0.00326
-0.00027
-0.01261
-0.02837
-0.03797
-0.03260
-0.01302
0.00917
0.02121
0.01925
0.00869
-0.00244
-0.00825
-0.00581
0.00490
0.01964
0.03011
0.02859
0.01414
-0.00599
-0.02136
-0.02477
-0.01553
0.00049
0.01395
0.01762
0.01044
-0.00337
-0.01744
-0.02503
-0.02105
-0.00615
0.01170
0.02238
0.02063
0.00818
-0.00843
-0.02042
-0.02043
-0.00797
0.00892
0.01990
0.02012
0.01157
-0.00097
-0.01269
-0.01876
-0.01512
-0.00193
0.01420
0.02340
0.01954
0.00451
-0.01345
-0.02467
-0.02276
-0.00817
0.01096
0.02297
0.02049
0.00561
-0.01233
-0.02359
-0.02317
-0.01182
0.00528
0.02018
0.02512
0.01703
0.00065
-0.01399
-0.01870
-0.01219
0.00093
0.01388
0.02024
0.01596
0.00208
-0.01438
-0.02401
-0.02117
-0.00760
0.00927
0.02082
0.02119
0.00992
-0.00694
-0.01972
-0.02130
-0.01150
0.00358
0.01569
0.01883
0.01183
-0.00163
-0.01452
-0.01916
-0.01169
0.00416
0.01891
0.02419
0.01759
0.00246
-0.01382
-0.02236
-0.01797
-0.00392
0.01023
0.01645
0.01293
0.00218
-0.01158
-0.02241
-0.02385
-0.01373
0.00295
0.01733
0.02251
0.01651
0.00270
-0.01099
-0.01600
-0.00864
0.00752
0.02371
0.03034
0.02249
0.00409
-0.01451
-0.02446
-0.02354
-0.01447
-0.00195
0.00782
0.00856
-0.00107
-0.01462
-0.02232
-0.01919
-0.00750
0.00749
0.02071
0.02617
0.01857
0.00030
-0.01676
-0.02103
-0.01135
0.00507
0.02095
0.03127
0.03104
0.01825
-0.00051
-0.01279
-0.01107
0.00089
0.01275
0.01570
0.00654
-0.01170
-0.03118
-0.04360
-0.04489
-0.03591
-0.02065
-0.00572
0.00131
-0.00289
-0.01357
-0.02094
-0.01674
0.00134
0.02846
0.05480
0.07131
0.07491
0.06811
0.05603
0.04524
0.04180
0.04548
0.04653
0.03289
0.00120
-0.04209
-0.08917
-0.13456
-0.17024
-0.18694
-0.18730
-0.18854
-0.19849
-0.19318
-0.13472
-0.01198
0.15295
0.33636
0.52102
0.65990
0.66773
0.49139
0.18436
-0.12331
-0.33573
-0.45116
-0.51421
-0.54247
-0.51717
-0.42344
-0.27416
-0.09883
0.07261
0.21414
0.30664
0.34451
0.33558
0.29222
0.22538
0.14666
0.07000
0.00771
-0.03447
-0.05856
-0.07221
-0.08413
-0.09850
-0.11270
-0.12016
-0.11488
-0.09445
-0.06186
-0.02557
0.00401
0.01989
0.02212
0.01771
0.01667
0.02522
0.04137
0.05726
0.06523
0.06103
0.04415
0.01911
-0.00465
-0.01781
-0.01750
-0.00858
0.00043
0.00227
-0.00571
-0.02066
-0.03562
-0.04235
-0.03538
-0.01634
0.00535
0.01869
0.01869
0.00829
-0.00517
-0.01372
-0.01168
0.00116
0.01844
0.03061
0.03081
0.01872
0.00027
-0.01611
-0.02345
-0.01884
-0.00485
0.01077
0.01869
0.01409
0.00018
-0.01429
-0.02108
-0.01688
-0.00414
0.01052
0.01931
0.01711
0.00459
-0.01142
-0.02154
-0.01974
-0.00748
0.00796
0.01901
0.02131
0.01373
-0.00109
-0.01579
-0.02137
-0.01406
0.00138
0.01547
0.02051
0.01459
0.00157
-0.01151
-0.01806
-0.01485
-0.00336
0.01071
0.01967
0.01761
0.00422
-0.01367
-0.02526
-0.02320
-0.00933
0.00746
0.01897
0.02177
0.01539
0.00127
-0.01470
-0.02275
-0.01630
0.00121
0.01812
0.02358
0.01535
-0.00023
-0.01427
-0.02065
-0.01677
-0.00344
0.01335
0.02341
0.01970
0.00463
-0.01265
-0.02353
-0.02334
-0.01180
0.00560
0.01889
0.02038
0.01061
-0.00342
-0.01443
-0.01803
-0.01258
0.00047
0.01552
0.02416
0.01999
0.00410
-0.01431
-0.02398
-0.01961
-0.00482
0.01161
0.02161
0.02094
0.00966
-0.00769
-0.02247
-0.02548
-0.01343
0.00693
0.02244
0.02321
0.00959
-0.00933
-0.02285
-0.02478
-0.01527
0.00066
0.01560
0.02244
0.01732
0.00272
-0.01243
-0.01820
-0.01083
0.00528
0.02146
0.02974
0.02576
0.01039
-0.00963
-0.02433
-0.02655
-0.01697
-0.00319
0.00647
0.00769
0.00057
-0.01134
-0.02145
-0.02264
-0.01239
0.00491
0.02089
0.02814
0.02332
0.00853
-0.00896
-0.01978
-0.01792
-0.00443
0.01384
0.02831
0.03209
0.02301
0.00625
-0.00794
-0.01215
-0.00706
0.00158
0.00833
0.00880
-0.00062
-0.01885
-0.03738
-0.04571
-0.04007
-0.02512
-0.00909
0.00070
0.00023
-0.00846
-0.01684
-0.01545
-0.00075
0.02338
0.04901
0.06783
0.07404
0.06737
0.05386
0.04219
0.03804
0.04026
0.04145
0.03235
0.00775
-0.03073
-0.07668
-0.12216
-0.15890
-0.18078
-0.18965
-0.19546
-0.20192
-0.19132
-0.13432
-0.01901
0.13945
0.31952
0.50132
0.63990
0.65730
0.50169
0.21532
-0.08700
-0.31540
-0.45932
-0.54462
-0.57255
-0.52427
-0.40278
-0.24044
-0.07068
0.08651
0.21457
0.29685
0.32771
0.31615
0.27507
0.21370
0.14107
0.06935
0.00979
-0.03228
-0.05763
-0.07106
-0.07971
-0.08997
-0.10299
-0.11331
-0.11296
-0.09732
-0.06797
-0.03220
0.00028
0.02163
0.02947
0.02745
0.02322
0.02451
0.03481
0.05040
0.06157
0.05919
0.04202
0.01742
-0.00500
-0.01875
-0.02081
-0.01199
0.00064
0.00633
-0.00054
-0.01590
-0.03104
-0.03905
-0.03580
-0.02051
0.00116
0.01825
0.02237
0.01364
-0.00125
-0.01411
-0.01794
-0.00960
0.00730
0.02381
0.03146
0.02663
0.01099
-0.00864
-0.02176
-0.02024
-0.00544
0.01211
0.02102
0.01696
0.00338
-0.01285
-0.02489
-0.02689
-0.01604
0.00344
0.02015
0.02342
0.01219
-0.00513
-0.01838
-0.02140
-0.01275
0.00384
0.01919
0.02320
0.01315
-0.00330
-0.01503
-0.01647
-0.00891
0.00383
0.01675
0.02285
0.01656
-0.00012
-0.01779
-0.02675
-0.02281
-0.00836
0.00916
0.02077
0.02102
0.01093
-0.00382
-0.01604
-0.01951
-0.01214
0.00166
0.01354
0.01740
0.01243
0.00157
-0.01045
-0.01783
-0.01587
-0.00471
0.00976
0.01960
0.01969
0.01009
-0.00453
-0.01694
-0.02028
-0.01184
0.00430
0.01828
0.02048
0.00892
-0.00882
-0.02151
-0.02241
-0.01208
0.00418
0.01915
0.02523
0.01789
0.00035
-0.01707
-0.02457
-0.01980
-0.00702
0.00806
0.02007
0.02346
0.01514
-0.00102
-0.01517
-0.01879
-0.01059
0.00398
0.01709
0.02177
0.01413
-0.00355
-0.02178
-0.02926
-0.02167
-0.00473
0.01113
0.01769
0.01241
-0.00063
-0.01263
-0.01576
-0.00857
0.00453
0.01768
0.02551
0.02344
0.01091
-0.00568
-0.01647
-0.01608
-0.00645
0.00666
0.01688
0.01786
0.00602
-0.01442
-0.03164
-0.03461
-0.02175
-0.00149
0.01460
0.01923
0.01243
-0.00020
-0.01134
-0.01514
-0.00926
0.00384
0.01740
0.02379
0.01924
0.00647
-0.00667
-0.01174
-0.00495
0.01024
0.02532
0.03223
0.02741
0.01201
-0.00900
-0.02769
-0.03623
-0.03222
-0.02068
-0.01007
-0.00650
-0.01137
-0.02203
-0.03305
-0.03788
-0.03157
-0.01405
0.00859
0.02715
0.03573
0.03602
0.03485
0.03822
0.04816
0.06313
0.07825
0.08566
0.07795
0.05326
0.01701
-0.02138
-0.05378
-0.07732
-0.09509
-0.11328
-0.13637
-0.16537
-0.19877
-0.22940
-0.23698
-0.19217
-0.07977
0.08339
0.26305
0.43416
0.57509
0.63937
0.56762
0.35114
0.06610
-0.18244
-0.34674
-0.44966
-0.52274
-0.55806
-0.52392
-0.40603
-0.22332
-0.01660
0.16781
0.29250
0.34287
0.33154
0.28589
0.22956
0.17468
0.12503
0.07937
0.03318
-0.01663
-0.06656
-0.10779
-0.13222
-0.13659
-0.12295
-0.09796
-0.07074
-0.04921
-0.03667
-0.03045
-0.02346
-0.00922
0.01299
0.03773
0.05722
0.06512
0.05894
0.04196
0.02274
0.01049
0.00924
0.01602
0.02350
0.02448
0.01530
-0.00237
-0.02214
-0.03578
-0.03764
-0.02775
-0.01195
0.00108
0.00440
-0.00316
-0.01603
-0.02521
-0.02383
-0.01111
0.00763
0.02407
0.03091
0.02529
0.01044
-0.00566
-0.01448
-0.01149
0.00131
0.01642
0.02492
0.02121
0.00611
-0.01299
-0.02565
-0.02490
-0.01226
0.00393
0.01495
0.01647
0.00864
-0.00516
-0.01841
-0.02329
-0.01576
0.00048
0.01612
0.02260
0.01732
0.00443
-0.00859
-0.01548
-0.01363
-0.00397
0.00939
0.01952
0.01951
0.00768
-0.00980
-0.02256
-0.02331
-0.01232
0.00388
0.01697
0.02077
0.01358
-0.00057
-0.01358
-0.01811
-0.01209
0.00066
0.01322
0.01879
0.01399
0.00111
-0.01264
-0.01945
-0.01562
-0.00340
0.01026
0.01738
0.01374
0.00180
-0.01112
-0.01795
-0.01545
-0.00470
0.00974
0.02087
0.02207
0.01183
-0.00381
-0.01540
-0.01745
-0.01103
-0.00020
0.01081
0.01644
0.01126
-0.00388
-0.01959
-0.02527
-0.01794
-0.00262
0.01333
0.02368
0.02380
0.01295
-0.00325
-0.01519
-0.01599
-0.00582
0.00901
0.01991
0.02030
0.00902
-0.00873
-0.02389
-0.02831
-0.01969
-0.00341
0.01069
0.01471
0.00755
-0.00519
-0.01537
-0.01705
-0.00895
0.00599
0.02204
0.03222
0.03131
0.01931
0.00193
-0.01267
-0.01802
-0.01229
0.00002
0.00967
0.00900
-0.00228
-0.01777
-0.02963
-0.03209
-0.02273
-0.00444
0.01408
0.02306
0.01894
0.00678
-0.00452
-0.00895
-0.00584
0.00231
0.01201
0.01870
0.01765
0.00802
-0.00432
-0.01064
-0.00643
0.00581
0.01943
0.02753
0.02513
0.01118
-0.00959
-0.02782
-0.03503
-0.02972
-0.01785
-0.00771
-0.00480
-0.01045
-0.02213
-0.03393
-0.03844
-0.03068
-0.01151
0.01229
0.03179
0.04107
0.04051
0.03589
0.03484
0.04265
0.05867
0.07540
0.08246
0.07335
0.04867
0.01389
-0.02367
-0.05661
-0.08059
-0.09793
-0.11569
-0.13921
-0.16969
-0.20554
-0.23698
-0.23789
-0.17660
-0.04555
0.12773
0.30756
0.47375
0.60177
0.63622
0.52289
0.27731
-0.00579
-0.23071
-0.37455
-0.47116
-0.54119
-0.56247
-0.50295
-0.35947
-0.16153
0.04568
0.21675
0.31963
0.34832
0.32191
0.26785
0.20649
0.14875
0.09948
0.05731
0.01588
-0.02887
-0.07296
-0.10793
-0.12782
-0.13067
-0.11695
-0.09116
-0.06297
-0.04220
-0.03162
-0.02662
-0.02067
-0.00900
0.01071
0.03623
0.05900
0.06848
0.06104
0.04298
0.02427
0.01142
0.00674
0.01015
0.01819
0.02312
0.01705
-0.00117
-0.02361
-0.03883
-0.04016
-0.02926
-0.01303
0.00075
0.00572
-0.00068
-0.01441
-0.02585
-0.02598
-0.01222
0.01029
0.03087
0.03832
0.02830
0.00801
-0.00913
-0.01472
-0.01002
-0.00042
0.01002
0.01753
0.01709
0.00650
-0.00920
-0.02039
-0.02050
-0.01043
0.00317
0.01279
0.01382
0.00604
-0.00672
-0.01792
-0.02090
-0.01238
0.00448
0.02035
0.02538
0.01651
-0.00044
-0.01596
-0.02293
-0.01841
-0.00391
0.01387
0.02512
0.02331
0.00995
-0.00709
-0.01910
-0.02086
-0.01253
0.00070
0.01155
0.01466
0.00895
-0.00249
-0.01357
-0.01740
-0.01042
0.00399
0.01716
0.02145
0.01514
0.00202
-0.01148
-0.01883
-0.01606
-0.00445
0.00939
0.01728
0.01435
0.00188
-0.01325
-0.02246
-0.02050
-0.00809
0.00910
0.02305
0.02650
0.01703
-0.00022
-0.01503
-0.01917
-0.01168
0.00166
0.01277
0.01565
0.00869
-0.00499
-0.01879
-0.02547
-0.02089
-0.00656
0.01092
0.02330
0.02476
0.01483
-0.00060
-0.01179
-0.01161
-0.00150
0.00983
0.01436
0.01073
0.00246
-0.00692
-0.01504
-0.01905
-0.01639
-0.00765
0.00275
0.00901
0.00725
-0.00185
-0.01221
-0.01567
-0.00811
0.00733
0.02290
0.03106
0.02747
0.01297
-0.00560
-0.01834
-0.01874
-0.00801
0.00651
0.01639
0.01624
0.00547
-0.01141
-0.02609
-0.03049
-0.02209
-0.00585
0.00936
0.01623
0.01194
-0.00098
-0.01477
-0.01976
-0.01137
0.00561
0.02093
0.02664
0.02098
0.00758
-0.00627
-0.01214
-0.00547
0.01045
0.02623
0.03273
0.02639
0.01005
-0.00977
-0.02596
-0.03288
-0.02821
-0.01503
-0.00157
0.00314
-0.00513
-0.02298
-0.04096
-0.04843
-0.03969
-0.01794
0.00655
0.02354
0.02947
0.02785
0.02466
0.02478
0.03163
0.04648
0.06579
0.08079
0.08246
0.06789
0.04148
0.01094
-0.01683
-0.03770
-0.05248
-0.06842
-0.09489
-0.13390
-0.17674
-0.21213
-0.23332
-0.23186
-0.18989
-0.09158
0.05595
0.22429
0.38819
0.53143
0.61988
0.59352
0.41804
0.14155
-0.13021
-0.32358
-0.44253
-0.52220
-0.56490
-0.53971
-0.42787
-0.24788
-0.04301
0.14057
0.26785
0.32500
0.32332
0.28905
0.24485
0.19915
0.15006
0.09502
0.03561
-0.02322
-0.07436
-0.10990
-0.12497
-0.12132
-0.10604
-0.08734
-0.07192
-0.06316
-0.05876
-0.05141
-0.03446
-0.00761
0.02298
0.04861
0.06188
0.06001
0.04696
0.03169
0.02227
0.02126
0.02616
0.03171
0.03147
0.02080
0.00108
-0.02003
-0.03392
-0.03632
-0.02818
-0.01432
-0.00201
0.00216
-0.00354
-0.01466
-0.02371
-0.02442
-0.01470
0.00238
0.01965
0.02892
0.02527
0.01045
-0.00702
-0.01679
-0.01353
0.00002
0.01567
0.02492
0.02285
0.01009
-0.00710
-0.01975
-0.02148
-0.01239
0.00148
0.01230
0.01477
0.00790
-0.00510
-0.01766
-0.02185
-0.01346
0.00344
0.01833
0.02220
0.01372
-0.00138
-0.01506
-0.02094
-0.01632
-0.00298
0.01283
0.02265
0.02051
0.00727
-0.00940
-0.01999
-0.01897
-0.00744
0.00821
0.01981
0.02131
0.01158
-0.00477
-0.01917
-0.02366
-0.01603
-0.00110
0.01308
0.01992
0.01616
0.00313
-0.01233
-0.02051
-0.01570
-0.00089
0.01469
0.02200
0.01737
0.00373
-0.01155
-0.02097
-0.02046
-0.01040
0.00476
0.01750
0.02073
0.01283
-0.00107
-0.01301
-0.01691
-0.01103
0.00125
0.01281
0.01690
0.01128
-0.00101
-0.01385
-0.02069
-0.01708
-0.00354
0.01301
0.02288
0.02050
0.00798
-0.00776
-0.01942
-0.02137
-0.01146
0.00618
0.02143
0.02463
0.01369
-0.00482
-0.02068
-0.02610
-0.01911
-0.00379
0.01159
0.01849
0.01320
-0.00010
-0.01250
-0.01704
-0.01200
0.00066
0.01647
0.02801
0.02773
0.01452
-0.00397
-0.01699
-0.01841
-0.00946
0.00353
0.01288
0.01293
0.00246
-0.01433
-0.02889
-0.03265
-0.02248
-0.00317
0.01543
0.02420
0.01972
0.00601
-0.00812
-0.01460
-0.01066
0.00067
0.01341
0.02152
0.02087
0.01164
-0.00051
-0.00757
-0.00512
0.00507
0.01703
0.02389
0.02062
0.00688
-0.01201
-0.02809
-0.03526
-0.03199
-0.02158
-0.01043
-0.00490
-0.00839
-0.01975
-0.03286
-0.03842
-0.02941
-0.00717
0.01888
0.03842
0.04728
0.04787
0.04523
0.04428
0.04905
0.06034
0.07280
0.07674
0.06487
0.03681
-0.00191
-0.04269
-0.07715
-0.10171
-0.11972
-0.13718
-0.15808
-0.18506
-0.21704
-0.23767
-0.21259
-0.11436
0.04825
0.23788
0.42202
0.57694
0.65723
0.59903
0.38505
0.08986
-0.17255
-0.34464
-0.44743
-0.51671
-0.55004
-0.52068
-0.41596
-0.24896
-0.05003
0.14014
0.28057
0.34816
0.34786
0.30308
0.23870
0.17238
0.11441
0.06820
0.03062
-0.00486
-0.04291
-0.08226
-0.11595
-0.13562
-0.13656
-0.11991
-0.09141
-0.05931
-0.03254
-0.01745
-0.01315
-0.01071
-0.00010
0.02083
0.04521
0.06373
0.07050
0.06366
0.04511
0.02164
0.00366
-0.00093
0.00696
0.01774
0.02026
0.00989
-0.00916
-0.02814
-0.03959
-0.04013
-0.03030
-0.01435
0.00033
0.00633
0.00103
-0.01087
-0.02020
-0.01928
-0.00675
0.01185
0.02750
0.03298
0.02659
0.01216
-0.00355
-0.01368
-0.01366
-0.00344
0.01126
0.02128
0.01937
0.00513
-0.01424
-0.02834
-0.02970
-0.01773
0.00142
0.01773
0.02255
0.01408
-0.00137
-0.01438
-0.01840
-0.01174
0.00277
0.01748
0.02272
0.01416
-0.00284
-0.01800
-0.02387
-0.01844
-0.00409
0.01274
0.02315
0.02117
0.00837
-0.00744
-0.01761
-0.01730
-0.00716
0.00727
0.01828
0.01990
0.01111
-0.00387
-0.01760
-0.02274
-0.01596
-0.00068
0.01425
0.02003
0.01298
-0.00361
-0.02053
-0.02675
-0.01692
0.00365
0.02270
0.03021
0.02368
0.00708
-0.01203
-0.02502
-0.02562
-0.01309
0.00695
0.02425
0.02881
0.01771
-0.00178
-0.01773
-0.02265
-0.01681
-0.00498
0.00706
0.01355
0.01036
-0.00168
-0.01549
-0.02184
-0.01596
-0.00073
0.01592
0.02609
0.02531
0.01403
-0.00219
-0.01484
-0.01729
-0.00878
0.00546
0.01741
0.01982
0.00965
-0.00911
-0.02614
-0.03102
-0.02087
-0.00211
0.01495
0.02247
0.01757
0.00223
-0.01645
-0.02778
-0.02322
-0.00364
0.01974
0.03329
0.03103
0.01721
0.00068
-0.01092
-0.01283
-0.00424
0.00962
0.01880
0.01549
0.00011
-0.01960
-0.03447
-0.03809
-0.02806
-0.00771
0.01263
0.02098
0.01402
0.00047
-0.00814
-0.00829
-0.00379
0.00237
0.01058
0.01913
0.02150
0.01323
-0.00056
-0.00868
-0.00491
0.00746
0.02110
0.02989
0.02866
0.01415
-0.01005
-0.03257
-0.04210
-0.03606
-0.02081
-0.00579
0.00119
-0.00371
-0.01814
-0.03358
-0.04028
-0.03324
-0.01450
0.00849
0.02647
0.03354
0.03124
0.02732
0.02966
0.04089
0.05814
0.07563
0.08622
0.08281
0.06222
0.02857
-0.00889
-0.04179
-0.06648
-0.08479
-0.10323
-0.12863
-0.16215
-0.19890
-0.23138
-0.24543
-0.21547
-0.11906
0.03736
0.21952
0.39591
0.54805
0.64088
0.61213
0.42752
0.14158
-0.13138
-0.31653
-0.42652
-0.50614
-0.55969
-0.55099
-0.45358
-0.27898
-0.06705
0.13222
0.27467
0.33968
