-0.07536
-0.07618
-0.08028
-0.08028
-0.08028
-0.08028
-0.08028
-0.08028
-0.08028
-0.07782
-0.06881
-0.06471
-0.06471
-0.06471
-0.06389
-0.05898
-0.05488
-0.05488
-0.05652
-0.06144
-0.06635
-0.07127
-0.07536
-0.07618
-0.07864
-0.07536
-0.07372
-0.06963
-0.06881
-0.06471
-0.06471
-0.06471
-0.06635
-0.07209
-0.08028
-0.07864
-0.07290
-0.06144
-0.04505
-0.02539
-0.00655
0.00983
0.02867
0.04260
0.04997
0.04997
0.04915
0.04423
0.04014
0.03850
0.03031
0.01065
-0.01065
-0.03359
-0.04751
-0.05488
-0.05734
-0.06635
-0.07127
-0.07618
-0.08110
-0.08519
-0.08601
-0.09011
-0.08847
-0.08355
-0.08028
-0.07864
-0.07536
-0.07618
-0.08028
-0.08028
-0.08028
-0.08028
-0.08028
-0.08028
-0.08028
-0.08028
-0.08028
-0.08028
-0.08028
-0.08028
-0.07864
-0.07372
-0.06963
-0.06881
-0.06062
-0.03850
-0.00655
0.03440
0.08110
0.13352
0.20397
0.30063
0.41695
0.50214
0.48985
0.37272
0.16875
-0.04669
-0.24165
-0.40548
-0.51607
-0.58570
-0.62829
-0.63403
-0.59553
-0.51934
-0.41695
-0.30964
-0.21544
-0.15072
-0.10813
-0.07700
-0.06307
-0.05406
-0.04915
-0.04423
-0.03932
-0.03359
-0.03031
-0.02867
-0.02539
-0.02539
-0.02539
-0.02539
-0.02539
-0.02539
-0.02376
-0.01884
-0.01393
-0.00983
-0.00983
-0.00901
-0.00491
-0.00491
-0.00573
-0.00983
-0.00901
-0.00491
-0.00491
-0.00491
-0.00573
-0.00983
-0.00983
-0.00983
-0.00983
-0.00983
-0.00983
-0.00983
-0.00983
-0.00901
-0.00410
0.00082
0.00491
0.00410
0.00000
0.00082
0.00491
0.00491
0.00491
0.00491
0.00491
0.00491
0.00410
0.00000
-0.00082
-0.00491
-0.00491
-0.00491
-0.00491
-0.00491
-0.00491
-0.00491
-0.00491
-0.00491
-0.00410
0.00000
0.00000
0.00000
0.00000
-0.00082
-0.00491
-0.00410
0.00000
0.00082
0.00491
0.00491
0.00491
0.00491
0.00491
0.00410
0.00000
0.00082
0.00573
0.00983
0.01065
0.01474
0.01474
0.01474
0.01474
0.01474
0.01474
0.01474
0.01556
0.01966
0.02048
0.02539
0.02539
0.02457
0.02048
0.02539
0.02539
0.02539
0.02457
0.01966
0.01966
0.02048
0.02539
0.02539
0.02539
0.02457
0.01884
0.01474
0.01474
0.01556
0.01966
0.01966
0.01884
0.01474
0.01393
0.00819
-0.00082
-0.00491
-0.00491
-0.00573
-0.01065
-0.01556
-0.02130
-0.03113
-0.03604
-0.04014
-0.04096
-0.04587
-0.05079
-0.05570
-0.05980
-0.05980
-0.05898
-0.05488
-0.05488
-0.05488
-0.05488
-0.05488
-0.05488
-0.05406
-0.04997
-0.04915
-0.04505
-0.04505
-0.04505
-0.04505
-0.04505
-0.04423
-0.04014
-0.03932
-0.03522
-0.03522
-0.03522
-0.03522
-0.03522
-0.03440
-0.03031
-0.03031
-0.02949
-0.02539
-0.02457
-0.01966
-0.01474
-0.01474
-0.01556
-0.02130
-0.03031
-0.03522
-0.03522
-0.03522
-0.03522
-0.03522
-0.03522
-0.03440
-0.03031
-0.03031
-0.03031
-0.03031
-0.03031
-0.02949
-0.02457
-0.01966
-0.02048
-0.02539
-0.02539
-0.02539
-0.02457
-0.01966
-0.01966
-0.01474
-0.01474
-0.01393
-0.00328
0.01229
0.02703
0.04260
0.06226
0.07618
0.08519
0.08437
0.07864
0.06963
0.07045
0.07454
0.06881
0.05734
0.03277
0.01229
-0.00737
-0.02703
-0.04178
-0.05570
-0.06062
-0.06553
-0.07127
-0.08028
-0.08028
-0.08519
-0.08519
-0.08519
-0.09093
-0.09420
-0.09011
-0.09011
-0.08929
-0.08519
-0.08437
-0.08028
-0.08028
-0.08519
-0.09011
-0.09011
-0.08929
-0.08519
-0.08519
-0.09093
-0.09584
-0.09994
-0.10076
-0.10485
-0.09912
-0.09338
-0.07700
-0.05243
-0.02621
0.00901
0.05161
0.11304
0.19168
0.30554
0.39729
0.40548
0.30636
0.11878
-0.09011
-0.28261
-0.44808
-0.57259
-0.64549
-0.69710
-0.71348
-0.69382
-0.63075
-0.53327
-0.42105
-0.32848
-0.26049
-0.21708
-0.18841
-0.16957
-0.16465
-0.15974
-0.15482
-0.14991
-0.14991
-0.14991
-0.15072
-0.15482
-0.15564
-0.15974
-0.15974
-0.16055
-0.16547
-0.17038
-0.17038
-0.17038
-0.17038
-0.17038
-0.16957
-0.16465
-0.15974
-0.15482
-0.14991
-0.14991
-0.14499
-0.14499
-0.14499
-0.14499
-0.14499
-0.14417
-0.13926
-0.13434
-0.12943
-0.12533
-0.12451
-0.11878
-0.10895
-0.09994
-0.09420
-0.08929
-0.08519
-0.08437
-0.07946
-0.07454
-0.06881
-0.05980
-0.05488
-0.04997
-0.04423
-0.04014
-0.03932
-0.03440
-0.02949
-0.02457
-0.01966
-0.01966
-0.01474
-0.01474
-0.00983
-0.00983
-0.00491
0.00000
0.00573
0.01065
0.01474
0.01474
0.01474
0.01556
0.02048
0.02539
0.03522
0.03522
0.03522
0.03522
0.04014
0.03932
0.03522
0.03522
0.03522
0.03522
0.04014
0.04014
0.03932
0.03440
0.02949
0.02539
0.02457
0.01966
0.01474
0.01474
0.01474
0.01474
0.01474
0.01474
0.01474
0.01474
0.01474
0.01474
0.01474
0.01474
0.01474
0.01556
0.01966
0.01966
0.01966
0.02048
0.02539
0.02539
0.02457
0.01966
0.01966
0.01966
0.01966
0.01966
0.01966
0.01474
0.01474
0.00983
0.00000
-0.00491
-0.01065
-0.02048
-0.03031
-0.04014
-0.04997
-0.05570
-0.07045
-0.08028
-0.08519
-0.09502
-0.10076
-0.11059
-0.11550
-0.12533
-0.12533
-0.12533
-0.12533
-0.12533
-0.12533
-0.12533
-0.12533
-0.12533
-0.12533
-0.12533
-0.12533
-0.12533
-0.12533
-0.12533
-0.12451
-0.11960
-0.11468
-0.10977
-0.10485
-0.09994
-0.09502
-0.09011
-0.08519
-0.07946
-0.07454
-0.06963
-0.05980
-0.05488
-0.04997
-0.04014
-0.03522
-0.03031
-0.03031
-0.02949
-0.02539
-0.02539
-0.02539
-0.02539
-0.02539
-0.02539
-0.03031
-0.03031
-0.03031
-0.03031
-0.03031
-0.03522
-0.04014
-0.04505
-0.04505
-0.04505
-0.04997
-0.04997
-0.04997
-0.04997
-0.04997
-0.04014
-0.02949
-0.00983
0.00000
0.01556
0.04014
0.05488
0.06553
0.07536
0.08028
0.08519
0.08519
0.08519
0.08437
0.06963
0.05488
0.04014
0.02457
0.01474
0.00000
-0.00491
-0.01474
-0.01966
-0.01966
-0.02539
-0.02539
-0.02539
-0.02539
-0.02539
-0.02539
-0.02539
-0.02539
-0.03031
-0.03031
-0.03031
-0.03031
-0.03031
-0.03031
-0.03031
-0.03031
-0.03522
-0.03522
-0.03031
-0.03522
-0.03522
-0.04014
-0.04014
-0.04014
-0.04014
-0.04014
-0.03522
-0.03031
-0.00491
0.03031
0.06963
0.11960
0.18021
0.24984
0.35961
0.45955
0.48985
0.42023
0.25066
0.04096
-0.16383
-0.33422
-0.45955
-0.53982
-0.58979
-0.60945
-0.58488
-0.52590
-0.43088
-0.32111
-0.22117
-0.14089
-0.09011
-0.05570
-0.03522
-0.02539
-0.00983
-0.00491
0.00000
0.00491
0.00983
0.01474
0.01474
0.01474
0.01966
0.01966
0.01966
0.01966
0.01966
0.01474
0.01474
0.01474
0.01966
0.01966
0.01966
0.01966
0.01966
0.01966
0.02457
0.02539
0.02539
0.02539
0.02048
0.01966
0.01474
0.01474
0.01474
0.01474
0.01474
0.01474
0.01474
0.01966
0.02457
0.02539
0.02949
0.03031
0.03522
0.04014
0.04014
0.03522
0.03522
0.04014
0.04014
0.04014
0.04014
0.04014
0.04014
0.04505
0.04505
0.04997
0.04997
0.04997
0.05488
0.05488
0.05980
0.05980
0.05980
0.05980
0.05980
0.06471
0.06471
0.06471
0.06471
0.06471
0.06471
0.06471
0.06471
0.06471
0.06471
0.06471
0.06471
0.06471
0.06471
0.06471
0.06471
0.06471
0.06471
0.06471
0.06471
0.06471
0.06471
0.06963
0.06963
0.06553
0.06471
0.06963
0.06963
0.06963
0.06963
0.06963
0.06963
0.06963
0.06963
0.07454
0.07536
0.07536
0.07946
0.08028
0.07536
0.07536
0.07536
0.07946
0.08028
0.08437
0.08519
0.08519
0.08519
0.08519
0.08519
0.08028
0.08028
0.07536
0.07536
0.07045
0.06553
0.06062
0.05570
0.04997
0.04505
0.04014
0.04014
0.03522
0.03031
0.02539
0.02048
0.01966
0.01556
0.01474
0.01474
0.01474
0.01474
0.01474
0.01966
0.01966
0.02457
0.02949
0.03031
0.03932
0.04014
0.04014
0.04505
0.04505
0.04505
0.04505
0.04505
0.04505
0.04997
0.05898
0.06471
0.06062
0.05980
0.05980
0.05980
0.06471
0.06471
0.06471
0.06963
0.07454
0.07536
0.07536
0.07536
0.07536
0.07536
0.07536
0.07946
0.08437
0.08028
0.08028
0.07536
0.07045
0.06553
0.06062
0.05079
0.04997
0.04997
0.04997
0.04997
0.04096
0.04014
0.03113
0.03031
0.02539
0.02949
0.03440
0.04423
0.05898
0.06881
0.08355
0.09830
0.10485
0.10076
0.09584
0.09011
0.08519
0.08519
0.08519
0.06717
0.04669
0.02212
0.00164
-0.01393
-0.02867
-0.03440
-0.04423
-0.05406
-0.05980
-0.06471
-0.06471
-0.06963
-0.06963
-0.06963
-0.07454
-0.07946
-0.08028
-0.08028
-0.08028
-0.08028
-0.07536
-0.07536
-0.07536
-0.07536
-0.07045
-0.07454
-0.07536
-0.07536
-0.07946
-0.08028
-0.08028
-0.08028
-0.08028
-0.08028
-0.08028
-0.07536
-0.06635
-0.05161
-0.02294
0.01147
0.05980
0.11386
0.19578
0.29817
0.38992
0.42186
0.35387
0.19824
0.00655
-0.18841
-0.36125
-0.49559
-0.58078
-0.63403
-0.66188
-0.64713
-0.59634
-0.51033
-0.40712
-0.31128
-0.23346
-0.18103
-0.14827
-0.12697
-0.11141
-0.10158
-0.09584
-0.09093
-0.08519
-0.08028
-0.08028
-0.07536
-0.07536
-0.07045
-0.06963
-0.07454
-0.07045
-0.06553
-0.06471
-0.06471
-0.06471
-0.06062
-0.05570
-0.05488
-0.05488
-0.05079
-0.04587
-0.04505
-0.04096
-0.03604
-0.03522
-0.03522
-0.03522
-0.03031
-0.03031
-0.03031
-0.02539
-0.02048
-0.01966
-0.01556
-0.01474
-0.01474
-0.01474
-0.01474
-0.01474
-0.01065
-0.00573
-0.00491
-0.00491
-0.00491
-0.00082
0.00000
0.00410
0.00901
0.01393
0.01474
0.01474
0.01474
0.01966
0.01966
0.02457
0.02949
0.03440
0.03522
0.03932
0.04014
0.04014
0.04014
0.04014
0.04014
0.04423
0.04505
0.04505
0.04505
0.04505
0.04505
0.04505
0.04915
0.04997
0.04997
0.04997
0.04997
0.04997
0.05406
0.05488
0.05488
0.05488
0.05488
0.05488
0.05488
0.05488
0.05488
0.05898
0.05980
0.05980
0.06389
0.06471
0.06471
0.06963
0.06963
0.07454
0.07536
0.07045
0.06963
0.06963
0.06963
0.06963
0.06963
0.07454
0.07536
0.07536
0.07536
0.07536
0.07536
0.07045
0.06963
0.06963
0.06963
0.06963
0.06963
0.06963
0.06553
0.06471
0.06062
0.05161
0.04178
0.04014
0.03604
0.03113
0.03031
0.02621
0.01638
0.01474
0.01065
0.00573
0.00082
-0.00410
-0.00491
-0.00491
-0.00491
-0.00491
-0.00491
-0.00491
-0.00491
-0.00491
-0.00491
-0.00491
-0.00491
-0.00491
-0.00491
-0.00491
-0.00491
-0.00491
-0.00491
-0.00491
-0.00491
-0.00491
-0.00491
-0.00491
-0.00491
-0.00491
-0.00491
-0.00491
-0.00491
-0.00491
-0.00491
-0.00491
-0.00491
-0.00491
-0.00901
-0.00983
-0.01393
-0.01474
-0.01474
-0.01065
-0.00983
-0.01393
-0.01474
-0.01884
-0.01966
-0.01966
-0.01966
-0.01966
-0.02376
-0.02539
-0.02130
-0.01229
0.00246
0.01311
0.02703
0.04178
0.06144
0.06881
0.07372
0.07536
0.07536
0.07536
0.07864
0.08028
0.06799
0.05325
0.03359
0.01802
0.00328
-0.00819
-0.02212
-0.02867
-0.03031
-0.03440
-0.03932
-0.04014
-0.04014
-0.04423
-0.04505
-0.04505
-0.04505
-0.04505
-0.04505
-0.04505
-0.04505
-0.04505
-0.04505
-0.04505
-0.04505
-0.04505
-0.04096
-0.04014
-0.04014
-0.03604
-0.03522
-0.03932
-0.04014
-0.04014
-0.04014
-0.03604
-0.03113
-0.03031
-0.01802
0.00082
0.03277
0.06717
0.11468
0.17612
0.25721
0.36534
0.46446
0.49641
0.42514
0.27524
0.08683
-0.10813
-0.27933
-0.41285
-0.50296
-0.55948
-0.58979
-0.57587
-0.51525
-0.42596
-0.33094
-0.23592
-0.16465
-0.11141
-0.07700
-0.05406
-0.03850
-0.03113
-0.02621
-0.02130
-0.01638
-0.01474
-0.01474
-0.01147
-0.00573
-0.00491
-0.00491
-0.00491
-0.00491
-0.00491
-0.00491
-0.00491
-0.00491
-0.00082
0.00000
0.00410
0.00901
0.00983
0.00983
0.00983
0.01393
0.01474
0.01474
0.01474
0.01474
0.01474
0.01474
0.01474
0.01474
0.01147
0.01393
0.01474
0.01147
0.00983
0.01393
0.01474
0.01474
0.01474
0.01474
0.01474
0.01474
0.01474
0.01474
0.01474
0.01474
0.01474
0.01474
0.01474
0.01474
0.01474
0.01474
0.01474
0.01474
0.01474
0.01474
0.01884
0.01966
0.01966
0.02376
0.02867
0.03031
0.03359
0.03522
0.03850
0.04014
0.04014
0.04014
0.04014
0.04014
0.04014
0.04014
0.04342
0.04505
0.04505
0.04505
0.04833
0.04997
0.04587
0.04505
0.04505
0.04505
0.04833
0.04997
0.05406
0.05488
0.05161
0.04997
0.05406
0.05488
0.05161
0.04997
0.04997
0.04997
0.04997
0.04997
0.04997
0.05406
0.05488
0.05161
0.04997
0.04669
0.04505
0.04833
0.04997
0.04997
0.04997
0.04997
0.04997
0.04669
0.04505
0.04096
0.04014
0.03604
0.03113
0.02621
0.02130
0.01638
0.01147
0.00655
0.00164
-0.00328
-0.00491
-0.00901
-0.01393
-0.01884
-0.02376
-0.02867
-0.03031
-0.03031
-0.03031
-0.03359
-0.03522
-0.03522
-0.03113
-0.03031
-0.03031
-0.03031
-0.03031
-0.02621
-0.02539
-0.02539
-0.02130
-0.01966
-0.01638
-0.01474
-0.01474
-0.01474
-0.01147
-0.00983
-0.00983
-0.00983
-0.00655
-0.00491
-0.00491
-0.00164
0.00000
0.00000
0.00328
0.00491
0.00819
0.00983
0.00983
0.00983
0.00655
0.00491
0.00491
0.00491
0.00491
0.00491
0.00164
0.00000
-0.00328
-0.00164
0.00328
0.01229
0.02539
0.03686
0.05079
0.06553
0.07700
0.07618
0.07127
0.06963
0.06635
0.06471
0.06471
0.06144
0.04587
0.02212
0.00082
-0.01229
-0.02539
-0.03686
-0.04669
-0.05325
-0.05488
-0.05488
-0.05816
-0.05652
-0.05488
-0.05488
-0.05161
-0.04669
-0.04505
-0.04178
-0.04014
-0.04014
-0.03686
-0.03522
-0.03113
-0.03031
-0.03031
-0.03031
-0.03031
-0.03031
-0.03031
-0.03031
-0.03031
-0.03031
-0.03031
-0.03031
-0.02621
-0.02539
-0.02130
-0.01311
-0.00328
0.02048
0.05406
0.08192
0.11714
0.16383
0.23100
0.32357
0.39565
0.39811
0.31128
0.15564
-0.02294
-0.19250
-0.33012
-0.42760
-0.49231
-0.53409
-0.54474
-0.51443
-0.44890
-0.36043
-0.26541
-0.18431
-0.12943
-0.09093
-0.06963
-0.05488
-0.04342
-0.03359
-0.03031
-0.02703
-0.02130
-0.01638
-0.00819
-0.00491
-0.00491
-0.00491
-0.00491
-0.00164
0.00000
0.00000
0.00328
0.00491
0.00819
0.01311
0.01474
0.01474
0.01802
0.01966
0.01638
0.01474
0.01474
0.01474
0.01474
0.01474
0.01147
0.00983
0.00655
0.00491
0.00491
0.00491
0.00491
0.00491
0.00491
0.00491
0.00491
0.00164
0.00000
-0.00328
-0.00491
-0.00164
0.00000
0.00000
-0.00328
-0.00491
-0.00819
-0.00655
-0.00491
-0.00491
-0.00819
-0.01311
-0.01474
-0.01802
-0.02294
-0.02539
-0.02539
-0.02212
-0.01966
-0.01966
-0.01966
-0.01966
-0.01966
-0.01966
-0.01638
-0.01147
-0.00983
-0.00655
-0.00491
-0.00491
-0.00491
-0.00491
-0.00491
-0.00491
-0.00164
0.00328
0.00491
0.00491
0.00164
0.00000
0.00328
0.00819
0.00655
0.00491
0.00164
0.00000
0.00000
0.00000
0.00000
-0.00328
-0.00491
-0.00491
-0.00491
-0.00491
-0.00491
-0.00819
-0.01311
-0.01474
-0.01802
-0.01966
-0.01966
-0.02294
-0.02539
-0.02785
-0.03277
-0.03522
-0.03850
-0.04014
-0.04014
-0.04342
-0.04833
-0.05325
-0.05488
-0.05816
-0.06307
-0.06799
-0.07618
-0.08028
-0.08273
-0.09093
-0.09830
-0.09994
-0.10321
-0.10485
-0.10813
-0.11304
-0.11468
-0.11468
-0.11796
-0.11960
-0.11960
-0.11714
-0.11468
-0.11222
-0.10977
-0.10649
-0.10485
-0.10485
-0.10813
-0.10731
-0.10485
-0.10158
-0.10321
-0.10485
-0.10813
-0.11304
-0.11796
-0.11960
-0.11960
-0.12287
-0.12533
-0.12779
-0.13025
-0.13025
-0.13025
-0.13270
-0.13516
-0.13516
-0.13516
-0.13516
-0.13188
-0.12697
-0.12533
-0.12533
-0.12205
-0.11714
-0.11222
-0.10977
-0.10731
-0.10158
-0.09666
-0.08929
-0.07864
-0.06307
-0.04587
-0.02785
-0.01065
0.00082
0.00491
0.00491
0.00819
0.00983
0.00983
0.00983
0.00410
-0.01229
-0.02867
-0.04669
-0.06062
-0.07372
-0.08601
-0.09584
-0.09994
-0.10321
-0.10485
-0.10813
-0.10977
-0.10977
-0.10731
-0.10485
-0.10239
-0.09994
-0.09994
-0.10321
-0.10239
-0.09994
-0.09994
-0.09994
-0.09994
-0.09994
-0.09666
-0.09830
-0.09994
-0.09994
-0.09666
-0.09502
-0.09502
-0.09502
-0.09502
-0.09175
-0.08683
-0.08192
-0.07454
-0.06144
-0.03768
-0.00491
0.03359
0.07618
0.13025
0.21298
0.32766
0.42924
0.46528
0.40712
0.25721
0.06717
-0.11960
-0.28507
-0.41122
-0.49805
-0.55621
-0.58078
-0.56767
-0.51443
-0.43006
-0.32930
-0.23346
-0.16301
-0.11714
-0.08601
-0.06389
-0.04669
-0.03686
-0.03195
-0.03031
-0.03031
-0.03031
-0.02703
-0.02539
-0.02212
-0.01720
-0.01474
-0.01474
-0.01474
-0.01474
-0.01474
-0.01229
-0.00737
-0.00491
-0.00246
0.00246
0.00819
0.00983
0.00983
0.00983
0.00983
0.00983
0.00737
0.00491
0.00491
0.00491
0.00491
0.00246
0.00246
0.00491
0.00819
0.00737
0.00491
0.00491
0.00491
0.00491
0.00491
0.00819
0.00983
0.00983
0.01311
0.01474
0.01474
0.01802
0.01966
0.02294
0.02539
0.02539
0.02785
0.03277
0.03768
0.04014
0.04014
0.04014
0.04014
0.04014
0.04014
0.04014
0.04014
0.04260
0.04505
0.04505
0.04751
0.04997
0.04997
0.04997
0.04997
0.04997
0.04997
0.04751
0.04505
0.04505
0.04751
0.04997
0.04997
0.04997
0.04997
0.04997
0.04997
0.04751
0.04505
0.04505
0.04260
0.04014
0.04014
0.04014
0.04014
0.04014
0.04014
0.04014
0.04260
0.04505
0.04260
0.04014
0.04014
0.04014
0.04014
0.04014
0.04014
0.04014
0.04260
0.04505
0.04505
0.04505
0.04505
0.04505
0.04505
0.04505
0.04505
0.04260
0.04014
0.04014
0.04014
0.04014
0.03440
0.02703
0.02539
0.02212
0.01720
0.01474
0.01229
0.00491
-0.00246
-0.00491
-0.00737
-0.01229
-0.01720
-0.02539
-0.03031
-0.03031
-0.03031
-0.03031
-0.03031
-0.03031
-0.03031
-0.03031
-0.03031
-0.03031
-0.03031
-0.03031
-0.03031
-0.03031
-0.03031
-0.03031
-0.03031
-0.02703
-0.02539
-0.02539
-0.02539
-0.02539
-0.02539
-0.02539
-0.02539
-0.02539
-0.02539
-0.02539
-0.02539
-0.02539
-0.02539
-0.02539
-0.02539
-0.02539
-0.02539
-0.02539
-0.02212
-0.01720
-0.00983
0.00246
0.01474
0.03031
0.04997
0.06717
0.08028
0.08519
0.08519
0.08519
0.08519
0.09011
0.09502
0.09011
0.07536
0.05488
0.03768
0.02212
0.00983
0.00000
-0.00983
-0.01966
-0.02539
-0.02785
-0.03031
-0.03031
-0.03031
-0.03031
-0.03277
-0.03522
-0.03522
-0.03768
-0.04260
-0.04505
-0.04751
-0.05243
-0.05488
-0.05488
-0.05488
-0.05488
-0.05488
-0.05488
-0.05488
-0.05488
-0.05488
-0.05488
-0.05488
-0.05488
-0.05488
-0.05488
-0.05243
-0.04505
-0.03277
-0.01311
0.01474
0.04669
0.08683
0.13926
0.21134
0.30800
0.40139
0.43989
0.38664
0.24575
0.06635
-0.10895
-0.26213
-0.38091
-0.46118
-0.51443
-0.53982
-0.52590
-0.47183
-0.38992
-0.29244
-0.19987
-0.12615
-0.07618
-0.04587
-0.03031
-0.02048
-0.01229
-0.00737
-0.00491
-0.00491
-0.00491
-0.00491
-0.00491
-0.00491
-0.00491
-0.00491
-0.00491
-0.00491
-0.00491
-0.00491
-0.00491
-0.00491
-0.00491
-0.00246
0.00000
0.00246
0.00737
0.00983
0.01229
0.01474
0.01474
0.01474
0.01474
0.01474
0.01474
0.01474
0.01474
0.01474
0.01474
0.01474
0.01720
0.01966
0.02212
0.02539
0.02539
0.02539
0.02703
0.03031
0.03031
0.03195
0.03522
0.03522
0.03522
0.03522
0.03522
0.03686
0.04014
0.04260
0.04505
0.04751
0.05243
0.05488
0.05488
0.05488
0.05734
0.05980
0.05980
0.05980
0.05980
0.05980
0.05980
0.05980
0.05980
0.05980
0.05980
0.05816
0.05488
0.05488
0.05488
0.05488
0.05488
0.05488
0.05488
0.05488
0.05243
0.04997
0.04997
0.04997
0.04997
0.04997
0.05243
0.05488
0.05488
0.05488
0.05734
0.05980
0.05980
0.05980
0.06226
0.06471
0.06471
0.06717
0.06963
0.07209
0.07536
0.07290
0.06963
0.06799
0.06717
0.06963
0.06963
0.06963
0.06799
0.06471
0.06471
0.06471
0.06471
0.06471
0.06471
0.06471
0.06307
0.05816
0.05079
0.04260
0.03604
0.02539
0.01802
0.01065
0.00328
-0.00246
-0.00491
-0.00737
-0.01229
-0.01720
-0.02212
-0.02703
-0.03031
-0.03031
-0.03031
-0.03031
-0.03031
-0.03031
-0.03031
-0.03031
-0.03031
-0.03031
-0.03031
-0.02785
-0.02294
-0.01802
-0.01474
-0.01474
-0.01311
-0.00983
-0.00983
-0.00983
-0.00983
-0.00983
-0.00819
-0.00491
-0.00491
-0.00491
-0.00328
0.00000
0.00000
0.00000
0.00000
0.00000
0.00164
0.00491
0.00491
0.00491
0.00491
0.00328
-0.00164
-0.00491
-0.00491
-0.00737
-0.00983
-0.01229
-0.01720
-0.01966
-0.01802
-0.01065
-0.00082
0.00901
0.02130
0.03604
0.05325
0.06717
0.07209
0.07290
0.06963
0.06799
0.06471
0.06471
0.06307
0.05243
0.03440
0.01884
0.00410
-0.01065
-0.02621
-0.03932
-0.04915
-0.05488
-0.05488
-0.05734
-0.05980
-0.05980
-0.06226
-0.06717
-0.07209
-0.07700
-0.08028
-0.07782
-0.07290
-0.06799
-0.06471
-0.06307
-0.05980
-0.05816
-0.05325
-0.04833
-0.04342
-0.03768
-0.03522
-0.03522
-0.03522
-0.03522
-0.03522
-0.03522
-0.03277
-0.03031
-0.03031
-0.02457
-0.00737
0.01802
0.04915
0.07618
0.11059
0.16137
0.23919
0.32520
0.38091
0.36125
0.25476
0.08110
-0.10977
-0.28343
-0.41777
-0.50460
-0.56358
-0.59880
-0.59553
-0.55948
-0.48985
-0.39238
-0.29653
-0.21380
-0.15482
-0.12042
-0.09912
-0.08601
-0.07782
-0.07290
-0.06799
-0.06471
-0.06471
-0.06471
-0.06471
-0.06717
-0.06799
-0.06471
-0.06307
-0.05980
-0.05816
-0.05488
-0.05488
-0.05488
-0.05325
-0.04833
-0.04342
-0.03850
-0.03359
-0.03031
-0.03031
-0.03031
-0.03031
-0.03031
-0.03031
-0.03031
-0.02785
-0.02294
-0.01966
-0.01802
-0.01474
-0.01638
-0.01966
-0.01966
-0.01966
-0.01966
-0.01802
-0.01474
-0.01474
-0.01884
-0.02703
-0.02785
-0.02294
-0.01802
-0.01311
-0.00983
-0.00983
-0.00983
-0.00983
-0.00983
-0.00983
-0.00983
-0.00983
-0.00983
-0.00983
-0.00983
-0.00983
-0.00983
-0.00983
-0.00983
-0.00983
-0.00983
-0.00983
-0.00983
-0.01147
-0.01311
-0.00983
-0.01147
-0.01474
-0.01474
-0.01638
-0.01966
-0.01802
-0.01474
-0.01474
-0.01474
-0.01311
-0.00819
-0.00491
-0.00655
-0.00983
-0.00983
-0.00819
-0.00491
-0.00655
-0.00819
-0.00491
-0.00655
-0.01147
-0.01474
-0.01147
-0.00491
-0.00491
-0.00491
-0.00491
-0.00491
-0.00328
0.00000
0.00000
-0.00164
-0.00328
0.00000
0.00000
0.00000
0.00000
0.00164
0.00491
0.00491
0.00491
0.00491
0.00491
0.00328
-0.00164
-0.00491
-0.00655
-0.01147
-0.01638
-0.02130
-0.02621
-0.03195
-0.03850
-0.04833
-0.05488
-0.05652
-0.06144
-0.06799
-0.07536
-0.07700
-0.08028
-0.08028
-0.08028
-0.08028
-0.08028
-0.08028
-0.07864
-0.07536
-0.07536
-0.07536
-0.07536
-0.07536
-0.07536
-0.07536
-0.07536
-0.07372
-0.06963
-0.06963
-0.06881
-0.06471
-0.06471
-0.06471
-0.06471
-0.06635
-0.06963
-0.06963
-0.06963
-0.06963
-0.06881
-0.06471
-0.06635
-0.07127
-0.07618
-0.08028
-0.07864
-0.07536
-0.07536
-0.07536
-0.07536
-0.07536
-0.07618
-0.08028
-0.08028
-0.08028
-0.08028
-0.08028
-0.08028
-0.07700
-0.06553
-0.05161
-0.04014
-0.02376
-0.00410
0.01311
0.01966
0.02130
0.02539
0.02539
0.02539
0.02376
0.01884
0.00901
-0.01065
-0.02949
-0.04423
-0.05816
-0.06799
-0.07618
-0.08273
-0.09011
-0.09011
-0.09175
-0.09502
-0.09502
-0.09338
-0.09011
-0.09011
-0.09011
-0.08847
-0.08519
-0.08519
-0.08355
-0.08028
-0.08028
-0.08028
-0.08028
-0.08028
-0.08028
-0.08028
-0.08028
-0.07864
-0.07372
-0.06881
-0.06471
-0.06471
-0.06471
-0.06471
-0.06389
-0.05898
-0.05325
-0.04423
-0.02294
0.00573
0.04751
0.09502
0.15400
0.23018
0.32684
0.43088
0.48330
0.44726
0.30636
0.10731
-0.09830
-0.27933
-0.41122
-0.49805
-0.55457
-0.57996
-0.56931
-0.51934
-0.43825
-0.33831
-0.24247
-0.16547
-0.11550
-0.08355
-0.06226
-0.05079
-0.03850
-0.03359
-0.02867
-0.02376
-0.01966
-0.01966
-0.01884
-0.01474
-0.01474
-0.01393
-0.00983
-0.00901
-0.00491
-0.00491
-0.00410
0.00000
0.00164
0.00655
0.00983
0.00983
0.00983
0.00983
0.00983
0.00983
0.00983
0.00983
0.01147
0.01474
0.01474
0.01474
0.01474
0.01474
0.01474
0.01638
0.01966
0.01966
0.01966
0.01966
0.02130
0.02539
0.02621
0.03031
0.03031
0.03031
0.03031
0.03113
0.03604
0.04014
0.03850
0.03604
0.04014
0.04014
0.04014
0.04014
0.04014
0.04014
0.04014
0.04014
0.04014
0.04014
0.04014
0.04014
0.04014
0.04096
0.04505
0.04505
0.04505
0.04342
0.04014
0.04096
0.04505
0.04587
0.04997
0.04997
0.05079
0.05488
0.05652
0.05898
0.05488
0.05488
0.05488
0.05488
0.05488
0.05652
0.05980
0.05980
0.05980
0.05898
0.05488
0.05488
0.05488
0.05488
0.05652
0.05980
0.06144
0.06471
0.06471
0.06471
0.06471
0.06471
0.06471
0.06471
0.06471
0.06635
0.06963
0.06963
0.06881
0.06471
0.06471
0.06471
0.06389
0.05980
0.05980
0.05898
0.05406
0.04915
0.04423
0.04014
0.03850
0.03359
0.02785
0.01884
0.01474
0.01393
0.00901
0.00410
-0.00082
-0.00491
-0.00491
-0.00573
-0.00983
-0.01147
-0.01474
-0.01474
-0.01393
-0.00901
-0.00491
-0.00491
-0.00491
-0.00491
-0.00410
0.00000
0.00000
0.00000
0.00082
0.00491
0.00491
0.00491
0.00491
0.00573
0.00983
0.00983
0.00983
0.00983
0.00983
0.00983
0.00983
0.00901
0.00491
0.00491
0.00491
0.00491
0.00410
0.00000
-0.00082
-0.00491
-0.00491
-0.00491
-0.00491
-0.00491
-0.00491
-0.00491
-0.00491
-0.00491
-0.00328
0.00737
0.01802
0.03277
0.04915
0.06799
0.08110
0.08519
0.08519
0.08437
0.08110
0.08519
0.08437
0.07782
0.06717
0.04997
0.02539
0.00246
-0.01393
-0.03277
-0.04751
-0.06226
-0.07209
-0.08028
-0.08028
-0.08028
-0.08110
-0.08519
-0.08519
-0.08519
-0.08601
-0.09011
-0.09011
-0.09011
-0.09011
-0.09011
-0.09011
-0.08929
-0.08437
-0.08028
-0.08028
-0.08028
-0.07946
-0.07536
-0.07536
-0.07536
-0.07618
-0.08028
-0.08028
-0.08028
-0.08028
-0.08028
-0.07864
-0.06717
-0.05079
-0.02457
0.00573
0.04260
0.09175
0.16137
0.25803
0.35469
0.39401
0.34486
0.22199
0.05325
-0.12943
-0.29326
-0.42105
-0.51033
-0.56604
-0.59471
-0.58651
-0.53245
-0.45381
-0.35879
-0.26623
-0.19168
-0.14335
-0.10649
-0.08765
-0.07372
-0.06307
-0.05406
-0.04997
-0.04915
-0.04423
-0.03932
-0.03522
-0.03522
-0.03522
-0.03440
-0.03031
-0.03031
-0.03031
-0.03031
-0.03031
-0.03031
-0.03031
-0.03031
-0.03031
-0.03031
-0.03031
-0.03031
-0.03031
-0.03031
-0.03031
-0.03031
-0.03031
-0.03031
-0.03031
-0.03031
-0.03031
-0.03031
-0.03031
-0.03031
-0.02949
-0.02539
-0.02539
-0.02539
-0.02539
-0.02539
-0.02539
-0.02539
-0.02457
-0.01966
-0.01966
-0.01966
-0.01474
-0.01474
-0.01556
-0.01966
-0.01966
-0.01474
-0.01474
-0.01474
-0.01474
-0.01474
-0.01474
-0.01474
-0.01393
-0.00983
-0.00983
-0.00901
-0.00491
-0.00491
-0.00491
-0.00491
-0.00491
-0.00491
-0.00491
-0.00410
0.00000
0.00000
0.00082
0.00491
0.00573
0.00983
0.01065
0.01474
0.01474
0.01474
0.01474
0.01474
0.01474
0.01474
0.01474
0.01474
0.01474
0.01474
0.01474
0.01474
0.01474
0.01474
0.01556
0.01966
0.01966
0.01966
0.02048
0.02539
0.02539
0.03031
0.03031
0.03031
0.03031
0.03031
0.03031
0.02949
0.02539
0.02539
0.02539
0.02539
0.02457
0.01966
0.01474
0.01474
0.01474
0.00901
0.00410
-0.00082
-0.00573
-0.01065
-0.01638
-0.02539
-0.03031
-0.03522
-0.04096
-0.04587
-0.05488
-0.05570
-0.06062
-0.06635
-0.07536
-0.08110
-0.09093
-0.10076
-0.10649
-0.11550
-0.12042
-0.12533
-0.13025
-0.13516
-0.14008
-0.14089
-0.14499
-0.14581
-0.14991
-0.14991
-0.14991
-0.14991
-0.14991
-0.14991
-0.14991
-0.14909
-0.14417
-0.13926
-0.13516
-0.13434
-0.12943
-0.12451
-0.11878
-0.10977
-0.10485
-0.09994
-0.09912
-0.09420
-0.09011
-0.09011
-0.08929
-0.08519
-0.08519
-0.08519
-0.08437
-0.08028
-0.08028
-0.07946
-0.07372
-0.06389
-0.04833
-0.03359
-0.01884
-0.00328
0.01638
0.03031
0.03522
0.03522
0.03522
0.04014
0.04014
0.04423
0.03932
0.02867
0.01393
0.00410
-0.00655
-0.02048
-0.03031
-0.03522
-0.04014
-0.04014
-0.04505
-0.04423
-0.04014
-0.04014
-0.04014
-0.04014
-0.03932
-0.03522
-0.03440
-0.03031
-0.03031
-0.03031
-0.03031
-0.03031
-0.02949
-0.02539
-0.02457
-0.01966
-0.01966
-0.01474
-0.01474
-0.00983
-0.00983
-0.00983
-0.00983
-0.01065
-0.01474
-0.00983
-0.00983
-0.00328
0.01720
0.04260
0.07782
0.11304
0.15400
0.21052
0.28752
0.38500
0.45381
0.43169
0.31292
0.13680
-0.05161
-0.21462
-0.34650
-0.43415
-0.49231
-0.52426
-0.51689
-0.46938
-0.38828
-0.28343
-0.18922
-0.10649
-0.05243
-0.01884
0.00082
0.01556
0.03031
0.04014
0.04014
0.04014
0.04505
0.04997
0.04997
0.05488
0.05488
0.05488
0.05570
0.06062
0.06471
0.06471
0.06471
0.06471
0.06471
0.06471
0.06471
0.06471
0.06471
0.06553
0.06963
0.07045
0.07536
0.07536
0.08028
0.08028
0.08028
0.08519
0.08519
0.08519
0.08519
0.08519
0.08519
0.08519
0.09011
0.09011
0.09011
0.09011
0.09011
0.09011
0.09502
0.09502
0.09502
0.09502
0.09011
0.09011
0.09502
0.09502
0.09502
0.09502
0.09994
0.09994
0.09994
0.09994
0.10485
0.10977
0.10977
0.10485
0.09994
0.09994
0.09994
0.09502
0.09994
0.09994
0.09994
0.09994
0.09994
0.10485
0.10485
0.10977
0.10977
0.11468
0.11468
0.11550
0.11960
0.12042
0.12451
0.11960
0.11468
0.11468
0.11468
0.11468
0.10977
0.10977
0.10485
0.10485
0.10977
0.10977
0.10485
0.09994
0.09502
0.09502
0.09502
0.09502
0.09502
0.09502
0.09011
0.09011
0.09011
0.09011
0.09502
0.09011
0.09011
0.08519
0.08519
0.08519
0.09011
0.09011
0.08519
0.08519
0.08028
0.07946
0.06471
0.06471
0.05488
0.04997
0.04014
0.04014
0.03522
0.03031
0.02457
0.01474
0.01474
0.00491
0.00000
0.00000
-0.00491
-0.00491
-0.00491
-0.00491
-0.00983
-0.00983
-0.00983
-0.00983
-0.00983
-0.00983
-0.00491
-0.00491
-0.00491
-0.00983
-0.00983
-0.00983
-0.01474
-0.01474
-0.00983
-0.00983
-0.00491
-0.00983
-0.01474
-0.01966
-0.01966
-0.02539
-0.03031
-0.03031
-0.03522
-0.03522
-0.03031
-0.03031
-0.03031
-0.03522
-0.03522
-0.03522
-0.03031
-0.03522
-0.04014
-0.04014
-0.03522
-0.02539
-0.00983
0.00000
0.01474
0.03522
0.04505
0.04997
0.04997
0.04505
0.04014
0.04014
0.04014
0.02539
0.00491
-0.01474
-0.03440
-0.04997
-0.06471
-0.07454
-0.08519
-0.09502
-0.09994
-0.09994
-0.10485
-0.10977
-0.11468
-0.11960
-0.11468
-0.10977
-0.10977
-0.11468
-0.11960
-0.11468
-0.11468
-0.11468
-0.11468
-0.11468
-0.11468
-0.11960
-0.11960
-0.11960
-0.11960
-0.12451
-0.12533
-0.12533
-0.12533
-0.12042
-0.11960
-0.11960
-0.11550
-0.10977
-0.10485
-0.09502
-0.06553
-0.03113
0.01393
0.06389
0.12779
0.20807
0.32193
0.41695
0.43907
0.34814
0.17530
-0.03359
-0.23346
-0.39975
-0.50706
-0.57750
-0.61846
-0.63484
-0.61109
-0.54720
-0.45299
-0.33913
-0.24329
-0.17284
-0.13106
-0.10076
-0.08519
-0.07536
-0.07045
-0.06553
-0.05980
-0.05488
-0.05488
-0.05488
-0.05488
-0.05488
-0.04997
-0.04997
-0.04505
-0.04014
-0.04014
-0.04014
-0.04014
-0.04014
-0.03522
-0.03522
-0.03522
-0.03031
-0.03031
-0.03031
-0.03031
-0.03031
-0.03031
-0.03031
-0.03031
-0.03031
-0.03031
-0.03031
-0.02539
-0.02539
-0.02949
-0.03031
-0.03031
-0.03031
-0.03031
-0.02539
-0.01556
-0.01065
-0.00983
-0.00983
-0.01474
-0.01065
-0.00983
-0.00491
-0.00491
-0.00491
-0.00491
-0.00491
-0.00491
0.00000
0.00000
0.00491
0.00491
0.00491
0.00491
0.00983
0.00983
0.00983
0.00983
0.01474
0.01474
0.01474
0.01474
0.01474
0.01474
0.01474
0.01474
0.01474
0.01065
0.01474
0.01474
0.01966
0.01966
0.01966
0.01966
0.01966
0.01966
0.01556
0.01474
0.01474
0.01474
0.01474
0.01474
0.01474
0.01474
0.01474
0.01474
0.01474
0.01474
0.01474
0.01474
0.01966
0.01966
0.01966
0.02457
0.02539
0.02539
0.02539
0.02949
0.03031
0.03031
0.02539
0.02539
0.02539
0.02539
0.02539
0.02539
0.02539
0.02048
0.01966
0.01556
0.01474
0.01474
0.00573
0.00082
-0.00491
-0.00983
-0.01474
-0.02376
-0.02949
-0.03932
-0.04423
-0.04997
-0.05488
-0.05488
-0.05980
-0.05980
-0.06471
-0.06963
-0.06963
-0.06963
-0.06553
-0.06471
-0.06963
-0.06963
-0.06963
-0.06963
-0.06963
-0.06963
-0.06963
-0.06963
-0.06963
-0.06963
-0.06963
-0.06553
-0.06471
-0.06471
-0.06062
-0.05980
-0.05570
-0.05488
-0.05488
-0.05488
-0.05488
-0.05488
-0.05488
-0.05488
-0.05488
-0.05980
-0.06471
-0.06471
-0.06471
-0.06471
-0.06062
-0.05570
-0.04587
-0.03195
-0.01638
0.00328
0.02294
0.03850
0.04014
0.04014
0.04014
0.04014
0.04014
0.04014
0.03522
0.01720
0.00164
-0.01802
-0.02867
-0.04342
-0.05406
-0.06389
-0.07372
-0.07946
-0.07536
-0.07536
-0.07946
-0.08028
-0.08028
-0.08028
-0.08028
-0.08028
-0.08028
-0.08028
-0.08028
-0.08028
-0.08437
-0.08519
-0.08519
-0.08519
-0.08028
-0.08028
-0.08028
-0.08028
-0.08028
-0.08028
-0.08028
-0.08028
-0.08028
-0.08028
-0.08028
-0.08028
-0.08028
-0.07536
-0.06226
-0.03850
-0.00410
0.03522
0.08765
0.15646
0.24820
0.36452
0.45873
0.48740
0.41122
0.24738
0.03359
-0.17366
-0.34814
-0.47429
-0.55948
-0.60454
-0.61846
-0.60290
-0.54392
-0.45299
-0.34486
-0.24738
-0.17448
-0.12205
-0.08929
-0.06799
-0.05652
-0.04669
-0.03604
-0.03522
-0.03031
-0.03031
-0.02539
-0.02048
-0.01556
-0.01474
-0.01065
-0.00573
-0.00491
-0.00491
-0.00491
-0.00491
-0.00491
-0.00082
0.00000
-0.00410
-0.00491
-0.00082
0.00000
0.00000
-0.00410
-0.00491
-0.00491
-0.00491
-0.00491
-0.00491
-0.00491
-0.00491
-0.00491
-0.00491
-0.00491
-0.00491
-0.00491
-0.00491
-0.00491
-0.00491
-0.00491
-0.00491
-0.00082
0.00000
0.00000
0.00410
0.00491
0.00901
0.01393
0.01474
0.01474
0.01884
0.02457
0.02539
0.02539
0.02949
0.03031
0.03850
0.04014
0.04014
0.04423
0.04505
0.04915
0.04997
0.05406
0.05488
0.05488
0.05488
0.05488
0.05488
0.05079
0.04997
0.04997
0.04997
0.04997
0.05406
0.05488
0.05079
0.04997
0.04997
0.05406
0.05488
0.05488
0.05488
0.05488
0.05488
0.05488
0.05079
0.04997
0.04997
0.04997
0.05406
0.05488
0.05488
0.05488
0.05488
0.05488
0.05488
0.05488
0.05488
0.05488
0.05488
0.05488
0.05488
0.05488
0.05488
0.05488
0.05488
0.05488
0.05079
0.04997
0.04997
0.04997
0.04587
0.04096
0.04014
0.03604
0.03522
0.02703
0.02130
0.01556
0.01474
0.01065
0.00573
0.00082
-0.00410
-0.00491
-0.00901
-0.01393
-0.02294
-0.02867
-0.03031
-0.03031
-0.03031
-0.03440
-0.03522
-0.03522
-0.03113
-0.03031
-0.03031
-0.03031
-0.03031
-0.03031
-0.03031
-0.03031
-0.02621
-0.02539
-0.02539
-0.02539
-0.02539
-0.02130
-0.02376
-0.02539
-0.02130
-0.01966
-0.01966
-0.01638
-0.01474
-0.01474
-0.01474
-0.01474
-0.01474
-0.01474
-0.01474
-0.01065
-0.00983
-0.00573
0.00655
0.01802
0.03195
0.04669
0.06553
0.08192
0.09256
0.09502
0.09502
0.09502
0.09502
0.09502
0.09093
0.08192
0.06389
0.04423
0.02457
0.00819
-0.00328
-0.01720
-0.02785
-0.03031
-0.03031
-0.03359
-0.03522
-0.03932
-0.03604
-0.03522
-0.03113
-0.03031
-0.03031
-0.03031
-0.03031
-0.03031
-0.03031
-0.03031
-0.02621
-0.02539
-0.02539
-0.02539
-0.02539
-0.02867
-0.03031
-0.03359
-0.03522
-0.03850
-0.04014
-0.04423
-0.04915
-0.04587
-0.04505
-0.04096
-0.03195
-0.01065
0.02212
0.05734
0.10403
0.16137
0.23674
0.34404
0.43989
0.46364
0.40712
0.26295
0.06717
-0.13434
-0.31128
-0.44644
-0.53655
-0.60126
-0.63075
-0.61191
-0.55129
-0.46610
-0.36452
-0.26295
-0.18595
-0.13188
-0.09338
-0.06963
-0.05734
-0.04751
-0.03768
-0.03113
-0.03031
-0.03031
-0.03031
-0.03031
-0.03031
-0.02621
-0.02539
-0.02539
-0.02539
-0.02130
-0.01638
-0.01474
-0.01147
-0.00983
-0.00983
-0.00983
-0.00983
-0.00983
-0.00983
-0.00983
-0.00983
-0.00983
-0.00983
-0.00983
-0.00983
-0.00983
-0.00983
-0.00983
-0.00983
-0.00655
-0.00491
-0.00491
-0.00491
-0.00491
-0.00491
-0.00491
-0.00491
-0.00491
-0.00491
-0.00491
-0.00491
-0.00491
-0.00491
-0.00491
-0.00491
-0.00491
-0.00491
-0.00491
-0.00491
-0.00164
0.00000
0.00410
0.00901
0.00983
0.00983
0.00983
0.00983
0.00983
0.01393
0.01474
0.01474
0.01474
0.01474
0.01474
0.01474
0.01474
0.01474
0.01474
0.01474
0.01147
0.00655
0.00491
0.00491
0.00901
0.00983
0.00983
0.00983
0.00983
0.00983
0.00983
0.00983
0.00983
0.00983
0.01393
0.01474
0.01474
0.01474
0.01474
0.01474
0.01474
0.01147
0.01393
0.01474
0.01474
0.01474
0.01474
0.01884
0.02376
0.02539
0.02130
0.01966
0.01966
0.01966
0.01638
0.01147
0.00655
0.00164
-0.00328
-0.00491
-0.00819
-0.00983
-0.01393
-0.02212
-0.02867
-0.03359
-0.03850
-0.04014
-0.04014
-0.04342
-0.05243
-0.06553
-0.07372
-0.07864
-0.08355
-0.08519
-0.08847
-0.09338
-0.09830
-0.10321
-0.10895
-0.10977
-0.10649
-0.10895
-0.10977
-0.11386
-0.11468
-0.11468
-0.11468
-0.11878
-0.11960
-0.11632
-0.11468
-0.11468
-0.11878
-0.11960
-0.12369
-0.12533
-0.12533
-0.12123
-0.11960
-0.11632
-0.11468
-0.11878
-0.12369
-0.12533
-0.12533
-0.12533
-0.12533
-0.12533
-0.12861
-0.13025
-0.13025
-0.13352
-0.13516
-0.13844
-0.14008
-0.14008
-0.13680
-0.13188
-0.12615
-0.11468
-0.09994
-0.08437
-0.06635
-0.05325
-0.04669
-0.04505
-0.04833
-0.04997
-0.04669
-0.04505
-0.04833
-0.06062
-0.07864
-0.09912
-0.11550
-0.12697
-0.14008
-0.15154
-0.15810
-0.16383
-0.16465
-0.16465
-0.16137
-0.15974
-0.15646
-0.15482
-0.15810
-0.15974
-0.15974
-0.15646
-0.15482
-0.15482
-0.15482
-0.15482
-0.15154
-0.14991
-0.14663
-0.14499
-0.14499
-0.14827
-0.14663
-0.14499
-0.14499
-0.14171
-0.13680
-0.13188
-0.13025
-0.13025
-0.13025
-0.12697
-0.11468
-0.09011
-0.05652
-0.01802
0.03195
0.09748
0.18759
0.30063
0.40712
0.46036
0.41613
0.27278
0.06717
-0.14581
-0.32848
-0.46856
-0.56358
-0.62338
-0.65041
-0.64140
-0.59143
-0.50624
-0.40139
-0.29817
-0.21871
-0.16137
-0.12205
-0.09666
-0.08028
-0.06471
-0.05652
-0.05488
-0.05488
-0.05161
-0.04669
-0.04178
-0.03686
-0.03522
-0.03195
-0.03031
-0.03031
-0.03031
-0.03031
-0.03031
-0.03031
-0.03031
-0.03031
-0.02703
-0.02212
-0.01966
-0.01638
-0.01474
-0.01474
-0.01147
-0.00983
-0.00983
-0.00983
-0.00983
-0.00983
-0.00983
-0.00655
-0.00491
0.00164
0.00819
0.01311
0.01474
0.01474
0.01802
0.01966
0.02294
0.02785
0.03359
0.03522
0.03850
0.04014
0.04342
0.04505
0.04505
0.04833
0.04997
0.05325
0.05488
0.05161
0.05325
0.05488
0.05488
0.05488
0.05488
0.05488
0.05488
0.05488
0.05161
0.04997
0.04997
0.04997
0.04997
0.04997
0.04997
0.04669
0.04505
0.04505
0.04505
0.04505
0.04505
0.04505
0.04833
0.04997
0.04997
0.04997
0.04997
0.04997
0.05325
0.05816
0.05980
0.05980
0.05980
0.05980
0.05980
0.06307
0.06471
0.06471
0.06471
0.06471
0.06471
0.06471
0.06471
0.06471
0.06471
0.06799
0.06963
0.06963
0.06963
0.06717
0.06471
0.06471
0.06226
0.05980
0.05652
0.05488
0.05488
0.05488
0.05161
0.04669
0.04178
0.04014
0.03686
0.03195
0.02703
0.01884
0.01474
0.01229
0.00655
0.00164
-0.00328
-0.00491
-0.01147
-0.02130
-0.02785
-0.03031
-0.03031
-0.03031
-0.03277
-0.03522
-0.03522
-0.03195
-0.03031
-0.03031
-0.03031
-0.03031
-0.03031
-0.03031
-0.03031
-0.03031
-0.03031
-0.03031
-0.03031
-0.03031
-0.03031
-0.03031
-0.03031
-0.03031
-0.03031
-0.02703
-0.02785
-0.03031
-0.03031
-0.03031
-0.03031
-0.03031
-0.03031
-0.03031
-0.03031
-0.03031
-0.03031
-0.03031
-0.03031
-0.03031
-0.03031
-0.03031
-0.03031
-0.03031
-0.02376
-0.01393
-0.00410
0.00901
0.02130
0.03686
0.05652
0.06471
0.06471
0.06226
0.05980
0.05980
0.05980
0.05734
0.04587
0.02785
0.01147
-0.00410
-0.01884
-0.03359
-0.04915
-0.05816
-0.06307
-0.06799
-0.07290
-0.07536
-0.07782
-0.08028
-0.08028
-0.08028
-0.08028
-0.08028
-0.08028
-0.08028
-0.08028
-0.08028
-0.07700
-0.07536
-0.07209
-0.06963
-0.06963
-0.06717
-0.06471
-0.06471
-0.06471
-0.06226
-0.05734
-0.05488
-0.05488
-0.05488
-0.05488
-0.05488
-0.05488
-0.04915
-0.03359
-0.00246
0.03522
0.07536
0.12943
0.20069
0.30063
0.41531
0.49641
0.48904
0.37353
0.18021
-0.03440
-0.22691
-0.38173
-0.49067
-0.56686
-0.60945
-0.61437
-0.57587
-0.49887
-0.40057
-0.29326
-0.20233
-0.13926
-0.09502
-0.06881
-0.05161
-0.03932
-0.03195
-0.03031
-0.02703
-0.02212
-0.01966
-0.01720
-0.01474
-0.01229
-0.00983
-0.00983
-0.00983
-0.00983
-0.00983
-0.00983
-0.00983
-0.00737
-0.00491
-0.00491
-0.00491
-0.00246
0.00000
0.00246
0.00491
0.00737
0.00737
0.00491
0.00246
0.00000
0.00000
0.00000
0.00246
0.00491
0.00737
0.00983
0.00983
0.00983
0.01311
0.01474
0.01474
0.01474
0.01474
0.01474
0.01474
0.01474
0.01474
0.01474
0.01474
0.01474
0.01802
0.01966
0.02294
0.02539
0.02539
0.02539
0.02539
0.02539
0.02539
0.02539
0.02212
0.02294
0.02539
0.02785
0.03031
0.03031
0.03277
0.03522
0.03768
0.04014
0.04014
0.04014
0.03768
0.03768
0.04014
0.03768
0.03522
0.03522
0.03522
0.03768
0.04014
0.04014
0.04014
0.04014
0.04014
0.04014
0.04014
0.04014
0.04014
0.04014
0.04014
0.04014
0.04014
0.04260
0.04505
0.04505
0.04751
0.04997
0.05243
0.05488
0.05243
0.04997
0.04997
0.04997
0.04997
0.04997
0.04997
0.04997
0.04997
0.04997
0.04751
0.04260
0.04014
0.04014
0.03768
0.03277
0.03031
0.02703
0.02212
0.01720
0.01474
0.00983
0.00246
-0.00246
-0.00491
-0.00983
-0.01720
-0.02294
-0.02785
-0.03031
-0.03277
-0.03522
-0.03522
-0.03768
-0.04014
-0.04014
-0.04014
-0.04014
-0.04014
-0.03768
-0.03522
-0.03522
-0.03522
-0.03522
-0.03522
-0.03522
-0.03277
-0.03031
-0.03031
-0.03031
-0.03031
-0.03031
-0.03031
-0.03031
-0.03031
-0.03031
-0.03031
-0.03031
-0.03031
-0.03031
-0.03031
-0.03031
-0.03031
-0.03031
-0.03031
-0.03031
-0.03031
-0.03031
-0.03031
-0.03031
-0.03031
-0.03031
-0.03031
-0.03031
-0.03277
-0.03522
-0.03277
-0.02539
-0.01229
0.00246
0.01966
0.04014
0.05734
0.06471
0.06471
0.06471
0.06471
0.06471
0.06471
0.06471
0.05488
0.03768
0.02048
0.00246
-0.01229
-0.02457
-0.03522
-0.04505
-0.05243
-0.05734
-0.06226
-0.06717
-0.06963
-0.06963
-0.06963
-0.06963
-0.07209
-0.07290
-0.06963
-0.06963
-0.06799
-0.06471
-0.06226
-0.05734
-0.05488
-0.05488
-0.05488
-0.05488
-0.05488
-0.05488
-0.05488
-0.05243
-0.04997
-0.04997
-0.04751
-0.04505
-0.04260
-0.04014
-0.04014
-0.03522
-0.02048
0.00410
0.03850
0.07864
0.12615
0.19496
0.28670
0.38173
0.44398
0.42760
0.31292
0.12943
-0.07290
-0.25885
-0.40794
-0.51197
-0.57832
-0.61682
-0.61846
-0.57750
-0.50132
-0.39893
-0.29162
-0.20069
-0.13680
-0.09584
-0.06881
-0.05243
-0.04505
-0.03522
-0.03031
-0.02785
-0.02539
-0.02048
-0.01311
-0.00737
-0.00491
-0.00246
0.00246
0.00737
0.00983
0.00983
0.01229
0.01474
0.01474
0.01474
0.01474
0.01474
0.01474
0.01474
0.01474
0.01474
0.01474
0.01474
0.01474
0.01311
0.00983
0.00983
0.00983
0.00983
0.00737
0.00491
0.00246
0.00000
0.00000
0.00000
0.00000
0.00000
0.00000
0.00000
-0.00246
-0.00246
0.00000
0.00000
0.00000
0.00246
0.00491
0.00491
0.00491
0.00491
0.00491
0.00491
0.00491
0.00246
0.00246
0.00491
0.00491
0.00491
0.00491
0.00491
0.00246
0.00000
0.00000
-0.00246
-0.00491
-0.00737
-0.00983
-0.01229
-0.01474
-0.01474
-0.01720
-0.02212
-0.02539
-0.02539
-0.02703
-0.03031
-0.03031
-0.03031
-0.03031
-0.03031
-0.02785
-0.02294
-0.01966
-0.01802
-0.01474
-0.01474
-0.01311
-0.00819
-0.00082
0.00737
0.01229
0.01720
0.01966
0.02212
0.02539
0.02703
0.03031
0.03031
0.03031
0.03031
0.02785
0.02539
0.02539
0.02294
0.01966
0.01966
0.01802
0.01474
0.01474
0.01311
0.00983
0.00819
0.00328
-0.00246
-0.00491
-0.00491
-0.00737
-0.01393
-0.02376
-0.03031
-0.03195
-0.03686
-0.04178
-0.04915
-0.05898
-0.07127
-0.08028
-0.08192
-0.08683
-0.09175
-0.09502
-0.09502
-0.09666
-0.09994
-0.09994
-0.09994
-0.09994
-0.09994
-0.09994
-0.09994
-0.09994
-0.09994
-0.10239
-0.10731
-0.11222
-0.11468
-0.11468
-0.11714
-0.12205
-0.12533
-0.12533
-0.12533
-0.12533
-0.12533
-0.12533
-0.12533
-0.12697
-0.13188
-0.13516
-0.13516
-0.13516
-0.13516
-0.13680
-0.14008
-0.14008
-0.14008
-0.14008
-0.14008
-0.14008
-0.14171
-0.14499
-0.14335
-0.13598
-0.12779
-0.11714
-0.09912
-0.08028
-0.05734
-0.04096
-0.03277
-0.03031
-0.02785
-0.02539
-0.02294
-0.01966
-0.02376
-0.03604
-0.05243
-0.07045
-0.08601
-0.09912
-0.10895
-0.11878
-0.12533
-0.12533
-0.12533
-0.12533
-0.12533
-0.12533
-0.12287
-0.11796
-0.11304
-0.10813
-0.10485
-0.10321
-0.09994
-0.09584
-0.08847
-0.08273
-0.08028
-0.08028
-0.07782
-0.07536
-0.07536
-0.07536
-0.07290
-0.06963
-0.06799
-0.06471
-0.06307
-0.05816
-0.05488
-0.05325
-0.04833
-0.03932
-0.02294
0.00082
0.03686
0.08192
0.13188
0.19905
0.28998
0.40548
0.51279
0.55457
0.49968
0.34568
0.13844
-0.06389
-0.24165
-0.38009
-0.47511
-0.53409
-0.56030
-0.54720
-0.49805
-0.41367
-0.31210
-0.21462
-0.13844
-0.08929
-0.06471
-0.04997
-0.03604
-0.03031
-0.02785
-0.02539
-0.02539
-0.02539
-0.02539
-0.02539
-0.02294
-0.01802
-0.01311
-0.00819
-0.00491
-0.00491
-0.00491
-0.00491
-0.00491
-0.00328
0.00000
0.00000
-0.00164
-0.00491
-0.00491
-0.00491
-0.00491
-0.00491
-0.00328
0.00000
0.00000
0.00000
0.00000
0.00000
0.00000
-0.00164
-0.00491
-0.00491
-0.00491
-0.00328
0.00164
0.00655
0.00983
0.00983
0.01147
0.01474
0.01638
0.01966
0.01966
0.02130
0.02539
0.02539
0.02703
0.03195
0.03522
0.03686
0.04014
0.04014
0.04014
0.04014
0.04178
0.04669
0.05161
0.05488
0.05652
0.06144
0.06471
0.06307
0.05980
0.05980
0.06144
0.06471
0.06471
0.06635
0.06963
0.06963
0.06963
0.06963
0.06963
0.06963
0.06963
0.06963
0.06963
0.06963
0.06963
0.07127
0.07536
0.07700
0.08192
0.08519
0.08683
0.09011
0.09175
0.09666
0.10158
0.10649
0.10977
0.11141
0.11468
0.11632
0.12123
0.12533
0.12533
0.12369
0.11878
0.11304
0.10977
0.10977
0.10813
0.10321
0.09666
0.08847
0.08355
0.07864
0.07372
0.06881
0.06226
0.05161
0.04342
0.03686
0.02539
0.01311
0.00573
-0.00819
-0.01802
-0.02621
-0.03277
-0.04342
-0.04997
-0.05161
-0.05488
-0.05488
-0.05652
-0.05980
-0.05980
-0.05980
-0.05816
-0.05488
-0.05325
-0.04833
-0.04342
-0.03850
-0.03359
-0.03031
-0.02867
-0.02376
-0.01884
-0.01311
-0.00819
-0.00491
-0.00328
0.00164
0.00491
0.00655
0.00983
0.01147
0.01474
0.01474
0.01474
0.01474
0.01474
0.01474
0.01474
0.01474
0.01474
0.01474
0.01474
0.01474
0.01393
0.00983
0.00819
0.00328
0.00000
0.00000
0.00000
-0.00164
-0.00491
-0.00491
-0.00491
-0.00655
-0.01147
-0.01474
-0.01474
-0.01229
-0.00328
0.00410
0.01966
0.03440
0.05079
0.06635
0.07127
0.07536
0.07372
0.06881
0.06389
0.05898
0.05243
0.04096
0.02621
0.00983
-0.00901
-0.02457
-0.03932
-0.05161
-0.05816
-0.06635
-0.07127
-0.07536
-0.07536
-0.07536
-0.07536
-0.07536
-0.07536
-0.07536
-0.07536
-0.07536
-0.07372
-0.06963
-0.06963
-0.06963
-0.06963
-0.06963
-0.06963
-0.06963
-0.06881
-0.06471
-0.06471
-0.06471
-0.06471
-0.06471
-0.06471
-0.06471
-0.06471
-0.06389
-0.05898
-0.05488
-0.04997
-0.02867
-0.00246
0.03195
0.07782
0.13352
0.20970
0.30882
0.40466
0.43579
0.37190
0.21544
0.02539
-0.16055
-0.32766
-0.45955
-0.54638
-0.60372
-0.62747
-0.60699
-0.54556
-0.44808
-0.34323
-0.24247
-0.16137
-0.11141
-0.07864
-0.05734
-0.04587
-0.03359
-0.03031
-0.02867
-0.02539
-0.02539
-0.02539
-0.02539
-0.02539
-0.02376
-0.01966
-0.01966
-0.01884
-0.01474
-0.01393
-0.00901
-0.00491
-0.00491
-0.00491
-0.00491
-0.00491
-0.00410
0.00000
0.00000
0.00000
0.00000
0.00000
-0.00082
-0.00410
-0.00082
-0.00491
-0.00410
0.00000
0.00000
0.00082
0.00491
0.00491
0.00410
0.00000
0.00000
0.00000
-0.00082
-0.00491
-0.00491
-0.00491
-0.00491
-0.00491
-0.00491
-0.00491
-0.00491
-0.00491
-0.00491
-0.00491
-0.00655
-0.00901
-0.00491
-0.00655
-0.00983
-0.00983
-0.00983
-0.00983
-0.00983
-0.00983
-0.00983
-0.00983
-0.00983
-0.00983
-0.01147
-0.01474
-0.01393
-0.00983
-0.00901
-0.00491
-0.00410
0.00000
0.00000
0.00000
0.00000
0.00082
0.00573
0.01147
0.01474
0.01638
0.01966
0.01966
0.01966
0.02130
0.02376
0.01966
0.01966
0.01884
0.01393
0.00983
0.00901
0.00491
0.00491
0.00491
0.00491
0.00491
0.00573
0.01147
0.01474
0.01474
0.01474
0.01474
0.01474
0.01393
0.00983
0.00983
0.00983
0.00983
0.00983
0.01065
0.01474
0.01393
0.00983
0.00819
-0.00082
-0.00573
-0.01229
-0.02212
-0.03031
-0.03113
-0.03604
-0.04178
-0.05079
-0.05570
-0.06062
-0.06635
-0.07127
-0.07618
-0.08110
-0.08601
-0.09011
-0.09011
-0.09093
-0.09420
-0.09011
-0.09011
-0.09011
-0.09011
-0.09011
-0.09011
-0.09093
-0.09584
-0.09994
-0.09994
-0.09994
-0.09994
-0.10076
-0.10403
-0.09994
-0.09994
-0.09994
-0.09994
-0.10076
-0.10567
-0.10977
-0.11059
-0.11468
-0.11468
-0.11386
-0.10895
-0.10403
-0.09994
-0.09994
-0.10076
-0.10485
-0.10485
-0.10485
-0.10485
-0.10567
-0.11059
-0.11386
-0.10977
-0.10977
-0.10977
-0.11059
-0.11550
-0.12123
-0.12533
-0.12533
-0.12615
-0.13025
-0.13025
-0.13025
-0.13025
-0.13025
-0.12943
-0.12205
-0.10813
-0.09748
-0.08273
-0.06717
-0.05161
-0.03440
-0.03031
-0.03031
-0.03031
-0.02949
-0.02376
-0.02048
-0.02703
-0.03850
-0.05816
-0.07700
-0.08765
-0.10239
-0.11632
-0.12533
-0.12533
-0.12533
-0.12615
-0.13025
-0.13106
-0.13516
-0.13516
-0.13434
-0.12943
-0.12533
-0.12533
-0.12533
-0.12533
-0.12451
-0.11960
-0.11960
-0.11878
-0.11468
-0.11386
-0.10977
-0.10977
-0.10895
-0.10485
-0.10485
-0.10485
-0.10567
-0.10977
-0.10895
-0.10403
-0.09994
-0.09830
-0.08847
-0.07536
-0.04260
0.00082
0.04260
0.09666
0.17530
0.28015
0.40384
0.47921
0.45709
0.32848
0.12205
-0.09093
-0.28834
-0.43661
-0.54064
-0.60617
-0.63976
-0.63566
-0.59798
-0.51525
-0.41203
-0.29571
-0.20561
-0.14499
-0.11059
-0.08273
-0.06799
-0.05325
-0.04423
-0.03932
-0.03440
-0.03031
-0.02949
-0.02539
-0.02539
-0.02457
-0.01966
-0.01966
-0.01966
-0.01966
-0.01966
-0.01474
-0.01474
-0.01474
-0.01474
-0.01474
-0.01393
-0.00901
-0.00491
-0.00491
-0.00491
-0.00491
-0.00491
-0.00491
-0.00491
-0.00491
-0.00491
-0.00491
-0.00491
-0.00573
-0.00983
-0.00983
-0.01065
-0.01474
-0.00983
-0.00983
-0.00901
-0.00491
-0.00410
0.00082
0.00491
0.00573
0.00983
0.01065
0.01474
0.01474
0.01474
0.01556
0.02048
0.02539
0.02539
0.02539
0.03031
0.03031
0.03031
0.03031
0.03031
0.03522
0.04014
0.04014
0.04014
0.04096
0.04505
0.04587
0.04997
0.04997
0.04997
0.04997
0.04997
0.05079
0.05488
0.05488
0.05488
0.05570
0.05980
0.05980
0.05980
0.05980
0.05980
0.05980
0.05980
0.05980
0.05980
0.05980
0.05980
0.05980
0.05980
0.05980
0.05980
0.05980
0.05980
0.05980
0.05980
0.05980
0.05980
0.05980
0.06062
0.06471
0.06471
0.06471
0.06471
0.06553
0.06963
0.06963
0.06963
0.06471
0.06471
0.06471
0.06471
0.06471
0.06471
0.06471
0.06471
0.06471
0.05980
0.05406
0.04423
0.03932
0.03440
0.02457
0.01966
0.01474
0.01474
0.00983
0.00410
-0.00491
-0.00573
-0.01065
-0.01474
-0.01556
-0.01966
-0.01966
-0.01966
-0.02048
-0.02539
-0.02457
-0.01966
-0.01966
-0.01474
-0.01474
-0.01474
-0.01474
-0.01474
-0.01474
-0.00983
-0.00983
-0.00491
-0.00491
-0.00491
-0.00491
-0.00491
-0.00491
-0.00491
-0.00491
-0.00491
-0.00491
-0.00491
-0.00491
-0.00491
-0.00491
-0.00491
-0.00491
-0.00573
-0.01065
-0.01474
-0.01556
-0.01966
-0.02048
-0.02539
-0.02457
-0.01966
-0.01393
-0.00410
0.00573
0.02130
0.04096
0.05652
0.07536
0.08519
0.09011
0.08929
0.08519
0.08519
0.08929
0.08437
0.07864
0.05898
0.03850
0.01884
0.00410
-0.01147
-0.03031
-0.03604
-0.04505
-0.04997
-0.05488
-0.05570
-0.05980
-0.06062
-0.06471
-0.06471
-0.06471
-0.05980
-0.05980
-0.05488
-0.05488
-0.05488
-0.05488
-0.05488
-0.05488
-0.05488
-0.05488
-0.05488
-0.05488
-0.05488
-0.05488
-0.04997
-0.04997
-0.04997
-0.04997
-0.04997
-0.04997
-0.04505
-0.03932
-0.03440
-0.01802
0.01720
0.05243
0.10321
0.15892
0.24083
0.34568
0.45299
0.50870
0.47839
0.34486
0.13926
-0.07454
-0.26213
-0.40958
-0.50788
-0.57177
-0.60945
-0.59798
-0.54638
-0.46528
-0.35961
-0.25066
-0.16219
-0.10321
-0.06881
-0.04423
-0.02949
-0.01966
-0.01474
-0.01474
-0.01474
-0.01474
-0.01474
-0.00983
-0.00491
-0.00491
-0.00491
-0.00491
-0.00491
-0.00491
0.00000
0.00491
0.00491
0.00491
0.00983
0.01474
0.01474
0.01474
0.01474
0.01474
0.01474
0.01474
0.01474
0.01474
0.01556
0.01966
0.01966
0.01966
0.01966
0.01966
0.01966
0.01966
0.01966
0.01966
0.02048
0.02539
0.02539
0.03031
0.03031
0.03522
0.03522
0.03522
0.04014
0.04014
0.04014
0.04014
0.04014
0.04014
0.04014
0.04014
0.04505
0.04505
0.04997
0.04997
0.04997
0.04505
0.04505
0.04505
0.04505
0.04505
0.04505
0.04505
0.04505
0.04505
0.04505
0.04505
0.04505
0.04505
0.04505
0.04505
0.04505
0.04014
0.04014
0.04014
0.04014
0.04014
0.04014
0.04014
0.03522
0.03031
0.03031
0.03031
0.03031
0.03031
0.02539
0.02457
0.01966
0.01966
0.01966
0.02539
0.02539
0.03031
0.03522
0.03522
0.04014
0.04014
0.04014
0.04505
0.04997
0.05488
0.05980
0.06471
0.06963
0.07536
0.07536
0.08028
0.08028
0.08028
0.08028
0.08028
0.08028
0.07536
0.06471
0.05980
0.04997
0.04505
0.04014
0.03031
0.02539
0.01966
0.01474
0.00491
-0.00491
-0.01966
-0.03031
-0.04014
-0.04997
-0.05488
-0.06963
-0.08028
-0.08519
-0.09502
-0.09994
-0.10485
-0.10977
-0.11960
-0.12533
-0.13516
-0.14008
-0.14991
-0.14991
-0.15974
-0.15974
-0.15974
-0.16465
-0.16957
-0.17038
-0.17530
-0.17038
-0.17038
-0.16547
-0.15974
-0.15974
-0.15482
-0.14991
-0.14499
-0.14008
-0.13025
-0.12533
-0.12533
-0.12042
-0.11960
-0.11550
-0.10485
-0.10485
-0.09994
-0.09994
-0.09502
-0.09502
-0.09502
-0.09011
-0.09011
-0.09011
-0.09011
-0.09011
-0.09502
-0.09011
-0.09011
-0.08028
-0.06553
-0.05570
-0.03522
-0.02048
-0.00082
0.01474
0.01474
0.01474
0.00983
0.00983
0.01474
0.00983
0.00491
-0.00983
-0.02949
-0.04915
-0.06471
-0.07946
-0.09420
-0.09994
-0.10977
-0.11960
-0.12451
-0.12943
-0.13516
-0.14008
-0.14008
-0.14008
-0.14008
-0.14499
-0.14991
-0.14991
-0.15482
-0.15974
-0.16465
-0.16957
-0.17038
-0.17448
-0.17939
-0.18021
-0.18513
-0.19004
-0.19496
-0.19496
-0.19496
-0.19496
-0.19496
-0.19987
-0.19987
-0.19987
-0.19987
-0.19496
-0.17120
-0.14171
-0.10239
-0.05734
0.00655
0.08601
0.18431
0.27032
0.28916
0.20970
0.04915
-0.15400
-0.34896
-0.51115
-0.62338
-0.69137
-0.73724
-0.75444
-0.73151
-0.66843
-0.57095
-0.46118
-0.36125
-0.28425
-0.22854
-0.19660
-0.17120
-0.15564
-0.14991
-0.13598
-0.12533
-0.12533
-0.12042
-0.11550
-0.11059
-0.10567
-0.10485
-0.09994
-0.09994
-0.09502
-0.09502
-0.09011
-0.08519
-0.08519
-0.08519
-0.08519
-0.08519
-0.08519
-0.08519
-0.08519
-0.08519
-0.08519
-0.08519
-0.08519
-0.08929
-0.09011
-0.09011
-0.09011
-0.08519
-0.08519
-0.08028
-0.08028
-0.08028
-0.07536
-0.07536
-0.07045
-0.06553
-0.06062
-0.05570
-0.05488
-0.05488
-0.05079
-0.04997
-0.04505
-0.04014
-0.03522
-0.03031
-0.03031
-0.03031
-0.02539
-0.02539
-0.02539
-0.02048
-0.01966
-0.01966
-0.01966
-0.01556
-0.01474
-0.01065
-0.00573
-0.00491
-0.00491
-0.00491
-0.00082
0.00000
0.00491
0.00491
0.00491
0.00983
0.00983
0.00983
0.01474
0.01474
0.01474
0.01474
0.01474
0.01474
0.01474
0.01474
0.01474
0.01474
0.01474
0.01966
0.01966
0.01966
0.02457
0.02539
0.02539
0.02539
0.02539
0.02949
0.03031
0.03031
0.03031
0.03031
0.02539
0.02539
0.02949
0.03031
0.03031
0.03031
0.03440
0.03932
0.04014
0.04014
0.04014
0.04423
0.04505
0.04505
0.04014
0.04014
0.04014
0.03522
0.03522
0.03031
0.02539
0.02048
0.01556
0.01474
0.01474
0.01065
0.00573
0.00082
-0.00410
-0.00491
-0.00491
-0.00491
-0.00983
-0.00983
-0.00983
-0.00983
-0.00983
-0.00983
-0.00983
-0.00983
-0.00983
-0.00983
-0.00983
-0.00573
-0.00491
-0.00491
-0.00491
-0.00491
-0.00082
0.00000
0.00000
0.00000
0.00000
0.00000
0.00000
0.00000
0.00000
0.00000
0.00000
0.00000
0.00000
0.00000
0.00410
0.00491
0.00082
0.00000
0.00000
0.00000
0.00000
0.00000
0.00000
-0.00410
-0.00491
-0.00491
-0.00491
-0.00491
-0.00491
-0.00082
0.00901
0.02294
0.03768
0.05734
0.07290
0.08765
0.09830
0.10403
0.10076
0.09584
0.09502
0.09502
0.09502
0.08601
0.06799
0.04751
0.03195
0.01720
0.00246
-0.00901
-0.01884
-0.02457
-0.02949
-0.03031
-0.03440
-0.03522
-0.03522
-0.03522
-0.03522
-0.03522
-0.03522
-0.03522
-0.03522
-0.03113
-0.03031
-0.03031
-0.02539
-0.02539
-0.02539
-0.02048
-0.01966
-0.01966
-0.01966
-0.01966
-0.01966
-0.01966
-0.01966
-0.01966
-0.01556
-0.01474
-0.01065
-0.00573
0.00328
0.02621
0.05980
0.09420
0.13844
0.19578
0.28097
0.37927
0.44972
0.42596
0.30227
0.11141
-0.08437
-0.25394
-0.39401
-0.49477
-0.56030
-0.59553
-0.59143
-0.53982
-0.45054
-0.33831
-0.23592
-0.14909
-0.09338
-0.05980
-0.03440
-0.02130
-0.01147
-0.00573
-0.00491
-0.00082
0.00410
0.00491
0.00491
0.00901
0.01393
0.01474
0.01884
0.01966
0.02376
0.02539
0.02949
0.03440
0.03522
0.03113
0.03031
0.03031
0.03031
0.03031
0.03031
0.03031
0.03440
0.03522
0.03522
0.03932
0.04014
0.04014
0.04014
0.04014
0.04014
0.04014
0.04014
0.04014
0.04014
0.04014
0.04014
0.04014
0.04014
0.04014
0.04014
0.04014
0.04014
0.04014
0.04014
0.04423
0.04915
0.05406
0.05898
0.06389
0.06881
0.07372
0.07946
0.08437
0.08519
0.08519
0.08929
0.09420
0.09502
0.09502
0.09912
0.09994
0.10403
0.10485
0.10485
0.10485
0.10485
0.10485
0.10895
0.10977
0.10977
0.10567
0.10485
0.10076
0.09994
0.09584
0.09093
0.09011
0.08601
0.08519
0.08110
0.07618
0.07127
0.06963
0.06635
0.06471
0.06471
0.06471
0.06062
0.05570
0.05488
0.05488
0.05488
0.05488
0.05488
0.05079
0.04178
0.04014
0.04423
0.04096
0.04014
0.04014
0.04014
0.04014
0.04014
0.04014
0.04014
0.04014
0.04014
0.03604
0.03522
0.03522
0.03113
0.02621
0.02539
0.01720
0.01474
0.01474
0.01474
0.01474
0.01147
0.00983
0.00573
0.00082
-0.00410
-0.01311
-0.01474
-0.01884
-0.01966
-0.01966
-0.01966
-0.01966
-0.01966
-0.01966
-0.01966
-0.01966
-0.02376
-0.02867
-0.03031
-0.03031
-0.03031
-0.03359
-0.03522
-0.03522
-0.03850
-0.04423
-0.04505
-0.04915
-0.04997
-0.04997
-0.05406
-0.05488
-0.05488
-0.05488
-0.05488
-0.05898
-0.06389
-0.06471
-0.06471
-0.06471
-0.06471
-0.06471
-0.06471
-0.06881
-0.06963
-0.06963
-0.06226
-0.05243
-0.03850
-0.02703
-0.01311
0.00164
0.01638
0.03113
0.03850
0.03604
0.03522
0.03522
0.03522
0.03522
0.02703
0.00983
-0.01393
-0.03113
-0.04669
-0.05734
-0.07127
-0.08273
-0.09256
-0.09912
-0.09994
-0.09994
-0.09994
-0.09994
-0.10403
-0.10895
-0.10977
-0.11386
-0.11141
-0.10649
-0.10485
-0.10158
-0.09994
-0.09994
-0.09994
-0.09994
-0.09994
-0.09994
-0.09994
-0.09994
-0.09994
-0.09994
-0.10403
-0.10485
-0.10485
-0.10485
-0.10158
-0.09994
-0.09256
-0.08273
-0.06144
-0.02539
0.01474
0.06226
0.11960
0.20233
0.30309
0.40057
0.43989
0.37435
0.21216
0.00491
-0.19496
-0.36370
-0.49395
-0.58078
-0.64058
-0.66597
-0.65123
-0.59307
-0.50460
-0.39893
-0.29244
-0.21298
-0.16219
-0.12451
-0.09994
-0.08765
-0.08110
-0.08028
-0.07618
-0.06799
-0.06144
-0.05652
-0.05488
-0.05488
-0.05488
-0.05488
-0.05488
-0.05488
-0.05488
-0.05488
-0.05488
-0.05488
-0.05161
-0.04997
-0.04669
-0.04096
-0.03604
-0.03113
-0.03031
-0.03031
-0.02621
-0.02539
-0.02130
-0.01966
-0.01966
-0.01638
-0.01474
-0.01147
-0.00983
-0.00655
-0.00491
-0.00164
0.00328
0.00491
0.00491
0.00491
0.00491
0.00819
0.00983
0.00983
0.00983
0.01393
0.01474
0.01474
0.01474
0.01474
0.01474
0.01474
0.01474
0.01474
0.01474
0.01474
0.01474
0.01474
0.01474
0.01474
0.01884
0.01966
0.01966
0.01966
0.01966
0.02376
0.02867
0.03031
0.03031
0.03031
0.03359
0.03850
0.03686
0.03850
0.04014
0.04014
0.04342
0.04178
0.04014
0.04014
0.04342
0.04833
0.04997
0.04997
0.04997
0.05325
0.05816
0.06389
0.06471
0.06144
0.05980
0.05980
0.06389
0.06471
0.06471
0.06471
0.06471
0.06471
0.06471
0.06471
0.06471
0.06471
0.06471
0.06471
0.06471
0.06471
0.06471
0.06471
0.06471
0.06471
0.06144
0.05652
0.05161
0.04669
0.04178
0.04014
0.04014
0.03686
0.02785
0.01802
0.01474
0.01147
0.00655
-0.00164
-0.00491
-0.00819
-0.01720
-0.02703
-0.03031
-0.03031
-0.03359
-0.03850
-0.04342
-0.04833
-0.04997
-0.04669
-0.04505
-0.04505
-0.04505
-0.04833
-0.05325
-0.05488
-0.05488
-0.05488
-0.05488
-0.05488
-0.05488
-0.05488
-0.05488
-0.05488
-0.05816
-0.05980
-0.05980
-0.05652
-0.05488
-0.05488
-0.05816
-0.05980
-0.05980
-0.05652
-0.05488
-0.05816
-0.05980
-0.05980
-0.05980
-0.06307
-0.06471
-0.06799
-0.06635
-0.06144
-0.05652
-0.05161
-0.04342
-0.03359
-0.01638
0.00000
0.01802
0.03522
0.04342
0.04178
0.04014
0.04014
0.04014
0.04014
0.03686
0.02212
0.00491
-0.01311
-0.03031
-0.04505
-0.05325
-0.06471
-0.07290
-0.07864
-0.08028
-0.08028
-0.08355
-0.08847
-0.09011
-0.09338
-0.09502
-0.09502
-0.09175
-0.09011
-0.08683
-0.08519
-0.08192
-0.08028
-0.08355
-0.08519
-0.08519
-0.08519
-0.08519
-0.08519
-0.08519
-0.08519
-0.08192
-0.08028
-0.08028
-0.08028
-0.08028
-0.07700
-0.07209
-0.06717
-0.05570
-0.03031
0.00246
0.04751
0.10403
0.17694
0.27278
0.38418
0.46692
0.47101
0.37353
0.20315
-0.00655
-0.21626
-0.39238
-0.51689
-0.59634
-0.64549
-0.65696
-0.62338
-0.55047
-0.45299
-0.34814
-0.25230
-0.17530
-0.12123
-0.08929
-0.06717
-0.05652
-0.04833
-0.04178
-0.03686
-0.03195
-0.03031
-0.03031
-0.03031
-0.02703
-0.02539
-0.02212
-0.02294
-0.02539
-0.02212
-0.01966
-0.01720
-0.01474
-0.01474
-0.01474
-0.01474
-0.01147
-0.00655
-0.00491
-0.00491
-0.00819
-0.00983
-0.00983
-0.00983
-0.01311
-0.01229
-0.00983
-0.00983
-0.00983
-0.00983
-0.00983
-0.00983
-0.00983
-0.00983
-0.00983
-0.00655
-0.00491
-0.00164
0.00000
0.00328
0.00491
0.00491
0.00491
0.00819
0.01311
0.01474
0.01474
0.01474
0.01474
0.01474
0.01474
0.01474
0.01474
0.01474
0.01474
0.01474
0.01474
0.01474
0.01474
0.01474
0.01474
0.01474
0.01474
0.01802
0.01966
0.01966
0.01966
0.02294
0.02212
0.01966
0.01966
0.01966
0.01966
0.01966
0.01966
0.01966
0.01966
0.01966
0.01966
0.02294
0.02785
0.03031
0.03277
0.03522
0.03522
0.03522
0.03522
0.03522
0.03522
0.03522
0.03768
0.04014
0.04014
0.04260
0.04505
0.04505
0.04505
0.04505
0.04505
0.04833
0.04997
0.04997
0.04997
0.04997
0.04997
0.04669
0.04505
0.04178
0.04014
0.03686
0.03195
0.02703
0.02212
0.01720
0.01229
0.00410
-0.00328
-0.00819
-0.01311
-0.01802
-0.02294
-0.02785
-0.03031
-0.03604
-0.04260
-0.04751
-0.05325
-0.05488
-0.05816
-0.06307
-0.06471
-0.06226
-0.05980
-0.05734
-0.05488
-0.05488
-0.05243
-0.04997
-0.04751
-0.04505
-0.04505
-0.04505
-0.04505
-0.04178
-0.03686
-0.03522
-0.03195
-0.03031
-0.03031
-0.03031
-0.03031
-0.03031
-0.03031
-0.03031
-0.03031
-0.03031
-0.03031
-0.03031
-0.03031
-0.03277
-0.03522
-0.03522
-0.03522
-0.03522
-0.03768
-0.04014
-0.03686
-0.03522
-0.03522
-0.03195
-0.03031
-0.03031
-0.03031
-0.02457
-0.01147
0.00082
0.01065
0.02621
0.04342
0.05816
0.06471
0.06471
0.06471
0.06471
0.06471
0.06471
0.05980
0.04342
0.02376
0.00410
-0.01311
-0.02539
-0.03850
-0.05079
-0.06062
-0.06799
-0.07290
-0.07782
-0.08028
-0.08028
-0.08028
-0.08028
-0.08028
-0.08028
-0.08028
-0.08028
-0.08028
-0.08028
-0.08028
-0.08028
-0.07700
-0.07536
-0.07536
-0.07536
-0.07536
-0.07536
-0.07536
-0.07536
-0.07209
-0.06963
-0.06963
-0.06717
-0.06471
-0.06226
-0.05734
-0.05243
-0.03932
-0.01393
0.01884
0.05652
0.10239
0.16547
0.25148
0.35142
0.43006
0.43088
0.32357
0.13680
-0.07290
-0.26704
-0.42268
-0.53573
-0.61191
-0.65614
-0.66433
-0.62747
-0.54883
-0.44316
-0.33094
-0.23428
-0.16547
-0.11878
-0.08929
-0.07209
-0.05980
-0.05243
-0.04997
-0.04997
-0.04751
-0.04505
-0.04260
-0.03768
-0.03522
-0.03522
-0.03522
-0.03277
-0.03031
-0.03031
-0.03031
-0.02703
-0.02539
-0.02212
-0.01720
-0.01474
-0.01229
-0.00983
-0.00737
-0.00491
-0.00491
-0.00491
-0.00491
-0.00491
-0.00491
-0.00491
-0.00491
-0.00491
-0.00491
-0.00491
-0.00491
-0.00491
-0.00246
0.00000
0.00000
0.00246
0.00491
0.00491
0.00491
0.00491
0.00491
0.00491
0.00491
0.00491
0.00491
0.00737
0.00983
0.00983
0.00983
0.00983
0.01229
0.01474
0.01474
0.01720
0.01966
0.02294
0.02539
0.02539
0.02539
0.02539
0.02539
0.02539
0.02539
0.02539
0.02539
0.02539
0.02539
0.02539
0.02539
0.02539
0.02539
0.02539
0.02785
0.03031
0.03031
0.03031
0.02785
0.02539
0.02212
0.01966
0.01966
0.01720
0.01474
0.01474
0.01474
0.01474
0.01474
0.01474
0.01474
0.01720
0.01966
0.01966
0.01966
0.01966
0.02212
0.02539
0.02785
0.03031
0.03031
0.03031
0.03277
0.03522
0.03522
0.03522
0.03522
0.03522
0.03768
0.03768
0.03277
0.02785
0.02294
0.01720
0.01474
0.01229
0.00491
-0.00246
-0.00491
-0.00737
-0.01229
-0.01720
-0.02212
-0.02703
-0.03031
-0.03031
-0.03277
-0.03522
-0.03522
-0.03522
-0.03522
-0.03768
-0.04014
-0.04014
-0.04014
-0.04014
-0.04014
-0.03768
-0.03522
-0.03522
-0.03522
-0.03522
-0.03522
-0.03522
-0.03522
-0.03522
-0.03522
-0.03522
-0.03522
-0.03522
-0.03522
-0.03522
-0.03522
-0.03522
-0.03522
-0.03522
-0.03277
-0.03031
-0.03031
-0.03031
-0.03031
-0.03031
-0.03031
-0.03031
-0.03031
-0.03031
-0.03031
-0.03031
-0.03031
-0.03031
-0.03031
-0.03195
-0.03522
-0.03768
-0.04014
-0.04014
-0.04014
-0.04260
-0.04505
-0.04260
-0.04014
-0.04014
-0.04014
-0.03768
-0.03277
-0.03031
-0.03031
-0.02539
-0.01311
0.00410
0.02212
0.03686
0.05161
0.06226
0.06717
0.06799
0.06471
0.06717
0.07209
0.07290
0.06799
0.05570
0.03850
0.02294
0.00819
-0.00410
-0.01638
-0.02703
-0.03031
-0.03031
-0.03031
-0.03031
-0.03195
-0.03522
-0.03686
-0.04260
-0.04751
-0.04997
-0.04997
-0.04997
-0.05243
-0.05488
-0.05488
-0.05734
-0.06226
-0.06471
-0.06717
-0.07209
-0.07536
-0.07536
-0.07536
-0.07700
-0.08028
-0.08437
-0.09256
-0.09748
-0.09994
-0.09994
-0.09994
-0.09584
-0.08110
-0.05734
-0.02457
0.01638
0.07290
0.14253
0.22609
0.31210
0.35060
0.29326
0.14335
-0.05325
-0.25148
-0.42678
-0.55784
-0.64467
-0.70447
-0.72987
-0.71103
-0.65041
-0.56030
-0.45054
-0.34241
-0.25721
-0.19905
-0.16137
-0.13926
-0.12042
-0.11304
-0.10977
-0.10977
-0.10813
-0.10321
-0.09584
-0.08765
-0.08683
-0.09011
-0.08765
-0.08519
-0.08273
-0.08028
-0.08028
-0.08028
-0.08028
-0.08028
-0.08028
-0.08028
-0.07782
-0.07290
-0.06963
-0.06963
-0.07209
-0.07536
-0.07290
-0.06963
-0.07209
-0.07536
-0.07700
-0.08028
-0.08028
-0.08028
-0.08192
-0.08519
-0.08519
-0.08273
-0.08028
-0.08028
-0.07618
-0.06799
-0.06307
-0.05816
-0.05488
-0.05488
-0.05488
-0.05488
-0.05488
-0.05488
-0.05488
-0.05488
-0.05488
-0.05488
-0.05488
-0.05488
-0.05488
-0.05488
-0.05325
-0.05161
-0.05488
-0.05488
-0.05488
-0.05488
-0.05488
-0.05325
-0.04833
-0.04505
-0.04505
-0.04669
-0.04833
-0.04505
-0.04342
-0.04014
-0.03768
-0.03277
-0.03031
-0.03031
-0.03031
-0.03031
-0.03031
-0.02785
-0.02294
-0.01966
-0.01802
-0.01474
-0.01311
-0.00983
-0.00983
-0.00983
-0.00983
-0.00819
-0.00491
-0.00491
-0.00328
0.00164
0.00491
0.00491
0.00491
0.00655
0.00983
0.00983
0.00983
0.01229
0.01474
0.01474
0.01474
0.01474
0.01720
0.01966
0.01966
0.02212
0.02539
0.02294
0.01802
0.01474
0.01311
0.00819
0.00491
0.00491
0.00328
-0.00164
-0.00491
-0.00491
-0.00655
-0.01147
-0.01720
-0.02212
-0.02539
-0.02703
-0.03031
-0.03195
-0.03522
-0.03522
-0.03522
-0.03522
-0.03522
-0.03686
-0.04178
-0.04505
-0.04505
-0.04505
-0.04505
-0.04505
-0.04342
-0.04014
-0.04014
-0.04014
-0.03850
-0.03522
-0.03522
-0.03522
-0.03522
-0.03522
-0.03359
-0.03195
-0.03359
-0.03031
-0.03195
-0.03522
-0.03522
-0.03522
-0.03522
-0.03522
-0.03522
-0.03522
-0.03686
-0.04014
-0.03850
-0.03522
-0.03522
-0.03359
-0.03031
-0.03031
-0.03195
-0.03522
-0.03359
-0.03031
-0.03031
-0.03031
-0.03031
-0.03031
-0.03195
-0.03522
-0.03522
-0.03522
-0.03522
-0.03522
-0.03359
-0.03031
-0.02457
-0.00983
0.00491
0.02212
0.04178
0.05816
0.06635
0.06799
0.06471
0.06471
0.06471
0.06307
0.05652
0.04505
0.02785
0.01147
0.00164
-0.00983
-0.02376
-0.03359
-0.04178
-0.04669
-0.04997
-0.04997
-0.04833
-0.04505
-0.04505
-0.04505
-0.04505
-0.04505
-0.04505
-0.04342
-0.03850
-0.03522
-0.03359
-0.03031
-0.03031
-0.03031
-0.03031
-0.03031
-0.03031
-0.03031
-0.03031
-0.03031
-0.03031
-0.03031
-0.03031
-0.03031
-0.03031
-0.03031
-0.03031
-0.02867
-0.02212
-0.00819
0.01638
0.05325
0.09666
0.15318
0.22936
0.32602
0.43251
0.51115
0.51197
0.41040
0.22035
-0.00410
-0.20970
-0.37681
-0.49067
-0.56112
-0.60126
-0.60863
-0.57587
-0.50460
-0.40466
-0.29653
-0.20151
-0.13270
-0.08192
-0.04833
-0.03195
-0.02212
-0.01311
-0.00819
-0.00491
-0.00491
-0.00328
0.00000
0.00000
0.00164
0.00491
0.00491
0.00491
0.00655
0.00983
0.00983
0.00983
0.00983
0.01147
0.01474
0.01474
0.01474
0.01474
0.01474
0.01474
0.01474
0.01474
0.01474
0.01474
0.01474
0.01474
0.01474
0.01474
0.01474
0.01638
0.01966
0.01966
0.01966
0.01966
0.02130
0.02785
0.03522
0.03686
0.03850
0.03522
0.03686
0.04014
0.04014
0.04178
0.04342
0.04014
0.04014
0.04178
0.04505
0.04505
0.04669
0.04997
0.04997
0.04997
0.05161
0.05488
0.05652
0.05980
0.06144
0.06471
0.06635
0.06963
0.06963
0.06963
0.06963
0.06963
0.06963
0.07127
0.07536
0.07536
0.07536
0.07536
0.07536
0.07536
0.07536
0.07618
0.08028
0.08028
0.08028
0.08028
0.08028
0.08028
0.08028
0.08028
0.08028
0.08028
0.08028
0.08028
0.08028
0.08028
0.08028
0.08028
0.08028
0.08028
0.08028
0.08028
0.08028
0.08028
0.07864
0.07536
0.07536
0.07618
0.08028
0.08028
0.08028
0.07864
0.07536
0.07372
0.06963
0.06963
0.06881
0.06471
0.06389
0.05898
0.05243
0.04342
0.03850
0.03359
0.02867
0.02376
0.01884
0.01474
0.01393
0.00901
0.00328
-0.00164
-0.00491
-0.00655
-0.00983
-0.01147
-0.01474
-0.01474
-0.01474
-0.01393
-0.00983
-0.00983
-0.00983
-0.00983
-0.00983
-0.00901
-0.00491
-0.00491
-0.00491
-0.00491
-0.00491
-0.00491
-0.00491
-0.00491
-0.00491
-0.00491
-0.00491
-0.00491
-0.00491
-0.00491
-0.00491
-0.00491
-0.00491
-0.00491
-0.00491
-0.00491
-0.00491
-0.00491
-0.00491
-0.00491
-0.00491
-0.00655
-0.01147
-0.01474
-0.01638
-0.01966
-0.01966
-0.01966
-0.01966
-0.01966
-0.01966
-0.01966
-0.01966
-0.01966
-0.01966
-0.01966
-0.01966
-0.01966
-0.01720
-0.00737
0.00328
0.01966
0.03850
0.05325
0.06881
0.08110
0.08519
0.08355
0.08028
0.08028
0.08028
0.07782
0.06799
0.05488
0.03522
0.01638
0.00246
-0.00819
-0.02212
-0.03113
-0.03604
-0.04014
-0.04096
-0.04505
-0.04505
-0.04505
-0.04505
-0.04505
-0.04423
-0.04014
-0.03850
-0.03522
-0.03522
-0.03359
-0.03031
-0.03031
-0.03031
-0.03031
-0.03031
-0.03031
-0.03031
-0.03031
-0.03031
-0.03031
-0.03031
-0.03031
-0.03113
-0.03522
-0.03522
-0.03522
-0.03359
-0.02785
-0.01474
0.01311
0.04915
0.09175
0.15072
0.22445
0.31865
0.42268
0.48412
0.45791
0.34241
0.15974
-0.04587
-0.23018
-0.38500
-0.48985
-0.55457
-0.59143
-0.58651
-0.53818
-0.45463
-0.35797
-0.25476
-0.16547
-0.10076
-0.05898
-0.03195
-0.01720
-0.00410
0.00000
0.00082
0.00491
0.00491
0.00491
0.00573
0.01065
0.01474
0.01474
0.01474
0.01474
0.01474
0.01474
0.01474
0.01474
0.01474
0.01638
0.01966
0.02130
0.02539
0.02539
0.02376
0.01966
0.01966
0.01966
0.01966
0.01966
0.01966
0.01966
0.01966
0.01884
0.01474
0.01638
0.01966
0.01966
0.01966
0.01966
0.01966
0.02130
0.02539
0.02539
0.02539
0.02539
0.02539
0.02376
0.01966
0.01966
0.01966
0.01966
0.01966
0.02130
0.02621
0.03031
0.03113
0.03522
0.03522
0.03522
0.03522
0.03522
0.03604
0.04014
0.03932
0.03522
0.03522
0.03440
0.03031
0.03113
0.03604
0.04014
0.04014
0.04014
0.04014
0.04014
0.04096
0.04423
0.04014
0.04014
0.04014
0.04014
0.04014
0.04014
0.04014
0.04096
0.04423
0.04014
0.04014
0.04014
0.04014
0.04014
0.04014
0.04014
0.04014
0.04014
0.04096
0.04505
0.04505
0.04423
0.04014
0.04014
0.04014
0.04014
0.04014
0.04096
0.04505
0.04423
0.04014
0.04014
0.04014
0.04014
0.04014
0.04014
0.03932
0.03440
0.03031
0.02949
0.02376
0.01474
0.01393
0.00901
0.00410
-0.00082
-0.00491
-0.00573
-0.01147
-0.02048
-0.02539
-0.03113
-0.03604
-0.04096
-0.04505
-0.04587
-0.04997
-0.04997
-0.04997
-0.04997
-0.04997
-0.04997
-0.04997
-0.04997
-0.04997
-0.04915
-0.04505
-0.04587
-0.04915
-0.04505
-0.04505
-0.04505
-0.04505
-0.04505
-0.04505
-0.04505
-0.04505
-0.04505
-0.04423
-0.04014
-0.04014
-0.04014
-0.03932
-0.03604
-0.04014
-0.04096
-0.04505
-0.04505
-0.04505
-0.04505
-0.04505
-0.04505
-0.04423
-0.04014
-0.04096
-0.04587
-0.04997
-0.04997
-0.05079
-0.05488
-0.05488
-0.05488
-0.05488
-0.05488
-0.05488
-0.05488
-0.05488
-0.05488
-0.05406
-0.04915
-0.04505
-0.04423
-0.04014
-0.03932
-0.03522
-0.03440
-0.03031
-0.03031
-0.03522
-0.03522
-0.03604
-0.04014
-0.04014
-0.04014
-0.03850
-0.02867
-0.01802
-0.00328
0.01147
0.02294
0.04096
0.04997
0.04915
0.04423
0.04014
0.04014
0.04014
0.03850
0.02785
0.00655
-0.01720
-0.03768
-0.05652
-0.07209
-0.08683
-0.10076
-0.10567
-0.11059
-0.11468
-0.11550
-0.11960
-0.11960
-0.12042
-0.12533
-0.12533
-0.13025
-0.12943
-0.12533
-0.12533
-0.12533
-0.12533
-0.12533
-0.12533
-0.12533
-0.12533
-0.12533
-0.12451
-0.11960
-0.11960
-0.11468
-0.11468
-0.11468
-0.11468
-0.11468
-0.10977
-0.10977
-0.10403
-0.09256
-0.06717
-0.03604
0.00573
0.05734
0.12943
0.22199
0.32766
0.38828
0.35551
0.21380
0.00901
-0.19332
-0.37026
-0.51115
-0.61682
-0.67826
-0.71021
-0.70529
-0.65123
-0.55948
-0.45381
-0.34568
-0.25967
-0.20643
-0.16793
-0.14827
-0.12943
-0.12451
-0.11960
-0.11468
-0.10977
-0.10485
-0.09994
-0.09912
-0.09420
-0.08929
-0.08437
-0.08028
-0.08028
-0.08028
-0.08028
-0.08028
-0.08028
-0.08028
-0.07946
-0.07454
-0.06963
-0.06963
-0.07045
-0.07536
-0.07536
-0.08028
-0.07946
-0.07536
-0.07454
-0.06963
-0.06963
-0.06963
-0.06963
-0.06471
-0.05980
-0.05488
-0.05488
-0.05488
-0.05488
-0.05488
-0.05488
-0.04997
-0.04997
-0.04505
-0.04423
-0.03932
-0.03440
-0.03031
-0.03031
-0.03031
-0.03031
-0.02949
-0.02539
-0.02457
-0.01966
-0.01474
-0.01474
-0.01474
-0.01474
-0.01474
-0.00983
-0.00983
-0.00983
-0.00491
-0.00491
-0.00491
-0.00491
-0.00491
0.00000
0.00000
0.00491
0.00573
0.00983
0.00983
0.00983
0.00983
0.01065
0.01556
0.02048
0.02539
0.02539
0.03031
0.03522
0.03522
0.03522
0.04014
0.04014
0.04014
0.04014
0.04014
0.04014
0.04505
0.04997
0.04997
0.05570
0.05980
0.05980
0.06062
0.06471
0.06471
0.06471
0.06553
0.06963
0.06963
0.06963
0.06963
0.06963
0.06963
0.07045
0.07536
0.07454
0.06963
0.06963
0.06963
0.06963
0.06963
0.06471
0.06471
0.05980
0.05488
0.04997
0.04505
0.04014
0.03932
0.02949
0.02457
0.01966
0.01966
0.01474
0.01474
0.00983
0.00491
0.00000
-0.00491
0.00000
0.00000
0.00000
0.00000
0.00000
0.00000
-0.00491
-0.00491
-0.00491
-0.00491
-0.00491
-0.00491
0.00000
0.00000
0.00000
0.00000
-0.00491
-0.00491
-0.00491
-0.00491
-0.00983
-0.01474
-0.01556
-0.01966
-0.01966
-0.01966
-0.02048
-0.02539
-0.03031
-0.03031
-0.03031
-0.03031
-0.03031
-0.03031
-0.03031
-0.03031
-0.03031
-0.03031
-0.03031
-0.03031
-0.03031
-0.03031
-0.03522
-0.03031
-0.03031
-0.03031
-0.03031
-0.03522
-0.03522
-0.03522
-0.03522
-0.03522
-0.03522
-0.03031
-0.03522
-0.03522
-0.04014
-0.04014
-0.03522
-0.03522
-0.02949
-0.01474
0.00000
0.01556
0.03031
0.04997
0.06471
0.06471
0.06471
0.06471
0.06471
0.06963
0.06963
0.06471
0.04505
0.02457
0.00983
-0.00491
-0.02048
-0.03031
-0.04014
-0.04505
-0.04997
-0.05488
-0.05488
-0.05488
-0.05488
-0.05488
-0.05488
-0.05488
-0.05488
-0.05488
-0.05488
-0.05488
-0.05488
-0.05488
-0.05488
-0.05488
-0.04997
-0.04997
-0.05488
-0.05488
-0.05488
-0.05488
-0.05488
-0.05488
-0.05488
-0.05488
-0.05488
-0.04997
-0.04997
-0.04505
-0.04014
-0.01966
0.01474
0.05980
0.10977
0.17939
0.26459
0.37435
0.47429
0.50460
0.41531
0.24083
0.03604
-0.16875
-0.35387
-0.48412
-0.56931
-0.62420
-0.64467
-0.62010
-0.54556
-0.45054
-0.33585
-0.24083
-0.16055
-0.11059
-0.07536
-0.05488
-0.03522
-0.03031
-0.02048
-0.01474
-0.01474
-0.01474
-0.00983
-0.00983
-0.00983
-0.00983
-0.00983
-0.00983
-0.00983
-0.00983
-0.00491
-0.00491
-0.00491
-0.00491
0.00000
0.00000
0.00000
0.00491
0.00491
0.00983
0.00983
0.00983
0.00983
0.00983
0.00983
0.00983
0.00491
0.00491
0.00491
0.00491
0.00491
0.00491
0.00491
0.00983
0.00983
0.00983
0.00983
0.01474
0.01474
0.01474
0.01474
0.01474
0.01474
0.01474
0.01474
0.01474
0.01966
0.02457
0.02539
0.02949
0.03031
0.02539
0.02539
0.02539
0.02949
0.03031
0.03031
0.03031
0.03031
0.03031
0.03440
0.04014
0.04014
0.04014
0.04014
0.04014
0.04014
0.04014
0.04014
0.04014
0.04014
0.04014
0.04014
0.04014
0.04014
0.04505
0.04505
0.04505
0.04505
0.04014
0.04014
0.04014
0.04014
0.04014
0.04014
0.04014
0.04014
0.04014
0.04014
0.04014
0.04014
0.04014
0.04014
0.04014
0.04014
0.04014
0.04505
0.04505
0.04505
0.04997
0.04997
0.04997
0.04997
0.04505
0.04505
0.04505
0.04505
0.04505
0.04505
0.04014
0.04014
0.04014
0.04014
0.03522
0.03031
0.02048
0.01556
0.00573
-0.00410
-0.00491
-0.00983
-0.01474
-0.01966
-0.02457
-0.02949
-0.03031
-0.03440
-0.03932
-0.04505
-0.04505
-0.04997
-0.05488
-0.05488
-0.05488
-0.05488
-0.05488
-0.05488
-0.04997
-0.04997
-0.04997
-0.04505
-0.04505
-0.04014
-0.04014
-0.04423
-0.04505
-0.04014
-0.04014
-0.03522
-0.03522
-0.03522
-0.03522
-0.03932
-0.04014
-0.04014
-0.04014
-0.04423
-0.04505
-0.04997
-0.04997
-0.04997
-0.04997
-0.04997
-0.04997
-0.04997
-0.05488
-0.05488
-0.05488
-0.05488
-0.05488
-0.05488
-0.05488
-0.05488
-0.05488
-0.05488
-0.05488
-0.05488
-0.05488
-0.05980
-0.05980
-0.05570
-0.05488
-0.05488
-0.05488
-0.05488
-0.05488
-0.05488
-0.05488
-0.05079
-0.04505
-0.03113
-0.01638
-0.00573
0.01311
0.03277
0.04423
0.04505
0.04505
0.04014
0.04014
0.04014
0.04014
0.04014
0.02212
0.00655
-0.00819
-0.02376
-0.03850
-0.05325
-0.05980
-0.06881
-0.07454
-0.07946
-0.07536
-0.07536
-0.07536
-0.07536
-0.07536
-0.07946
-0.08028
-0.07536
-0.07536
-0.07536
-0.07045
-0.06963
-0.06963
-0.06963
-0.06963
-0.06963
-0.06553
-0.06471
-0.06471
-0.06471
-0.06471
-0.06471
-0.06471
-0.06471
-0.06471
-0.06471
-0.06062
-0.05570
-0.05079
-0.03195
-0.00737
0.02621
0.06963
0.12861
0.20561
0.30800
0.40876
0.45545
0.42023
0.28670
0.08847
-0.12533
-0.30882
-0.45381
-0.55375
-0.61764
-0.65123
-0.63730
-0.57750
-0.48658
-0.38255
-0.27769
-0.19496
-0.13680
-0.10321
-0.07782
-0.06144
-0.05570
-0.05079
-0.04587
-0.04505
-0.04096
-0.03522
-0.03522
-0.03031
-0.03031
-0.03031
-0.03031
-0.03031
-0.03031
-0.03031
-0.02539
-0.02539
-0.02539
-0.02949
-0.03031
-0.03031
-0.03031
-0.03031
-0.03031
-0.02539
-0.02539
-0.02048
-0.01556
-0.01065
-0.00573
-0.00491
-0.00491
-0.00491
-0.00491
-0.00082
0.00000
0.00410
0.00491
0.00491
0.00901
0.00983
0.01393
0.01474
0.01474
0.01474
0.01474
0.01474
0.01474
0.01474
0.01474
0.01065
0.00983
0.00983
0.00983
0.00983
0.00983
0.01393
0.01474
0.01474
0.01474
0.01474
0.01474
0.01474
0.01474
0.01966
0.01966
0.02457
0.02539
0.02539
0.02539
0.02539
0.02539
0.02539
0.02539
0.02539
0.02048
0.01966
0.02457
0.02048
0.01966
0.01966
0.01966
0.01966
0.01966
0.02457
0.02539
0.02539
0.02048
0.01966
0.02457
0.02539
0.02949
0.03031
0.03440
0.03522
0.03932
0.04014
0.04014
0.04014
0.04014
0.04014
0.04014
0.04014
0.04014
0.04014
0.04014
0.04014
0.04014
0.04014
0.03604
0.03522
0.03113
0.02621
0.02539
0.02048
0.01556
0.00655
0.00082
-0.00410
-0.00901
-0.01393
-0.01884
-0.02867
-0.03031
-0.03440
-0.03522
-0.03932
-0.04423
-0.04915
-0.05406
-0.05488
-0.05488
-0.05488
-0.05488
-0.05488
-0.05488
-0.05898
-0.05980
-0.05570
-0.05488
-0.05488
-0.05488
-0.05488
-0.05488
-0.05488
-0.05488
-0.05079
-0.04997
-0.04997
-0.04587
-0.04505
-0.04096
-0.04014
-0.04014
-0.04014
-0.04423
-0.04505
-0.04505
-0.04505
-0.04505
-0.04505
-0.04505
-0.04915
-0.04997
-0.04997
-0.04997
-0.04587
-0.04505
-0.04505
-0.04505
-0.04915
-0.05406
-0.05488
-0.05488
-0.05488
-0.05488
-0.05488
-0.05488
-0.05488
-0.05488
-0.05488
-0.05488
-0.05898
-0.05980
-0.05980
-0.06389
-0.06471
-0.06881
-0.06963
-0.06635
-0.06471
-0.06471
-0.06471
-0.06471
-0.06471
-0.06471
-0.06471
-0.06471
-0.06471
-0.06062
-0.05980
-0.06389
-0.06471
-0.06471
-0.06471
-0.06471
-0.05734
-0.03932
-0.02294
-0.00819
0.01065
0.02703
0.03768
0.04014
0.04014
0.04014
0.04014
0.04014
0.04014
0.02785
0.01311
-0.00573
-0.02212
-0.03686
-0.05161
-0.06717
-0.07782
-0.08355
-0.08929
-0.09420
-0.09502
-0.09502
-0.09502
-0.09502
-0.09502
-0.09912
-0.09994
-0.10813
-0.11386
-0.11468
-0.11878
-0.11632
-0.11141
-0.10977
-0.11386
-0.11878
-0.12369
-0.12861
-0.13025
-0.12615
-0.12533
-0.12861
-0.13025
-0.13025
-0.13025
-0.12615
-0.12533
-0.10977
-0.08601
-0.05652
-0.01474
0.02949
0.09011
0.17038
0.27114
0.36452
0.39238
0.32193
0.16137
-0.04997
-0.25394
-0.42678
-0.55703
-0.64304
-0.69464
-0.70857
-0.69055
-0.63157
-0.53818
-0.43088
-0.32848
-0.24738
-0.19578
-0.15810
-0.13434
-0.11878
-0.11141
-0.10649
-0.10158
-0.09994
-0.09584
-0.09502
-0.09502
-0.09502
-0.09502
-0.09093
-0.09420
-0.09502
-0.09093
-0.09011
-0.09011
-0.09011
-0.08601
-0.08110
-0.08028
-0.08028
-0.08028
-0.08028
-0.08028
-0.08028
-0.08028
-0.08028
-0.08028
-0.07618
-0.07536
-0.07127
-0.06963
-0.07372
-0.07127
-0.06635
-0.06471
-0.06144
-0.05980
-0.05652
-0.05488
-0.05488
-0.05161
-0.04587
-0.04096
-0.04014
-0.03604
-0.03522
-0.03522
-0.03522
-0.03850
-0.04014
-0.04014
-0.03604
-0.03522
-0.03522
-0.03522
-0.03850
-0.04014
-0.04014
-0.03604
-0.03522
-0.03113
-0.03031
-0.03031
-0.03031
-0.03031
-0.03031
-0.03031
-0.02621
-0.02539
-0.02539
-0.02539
-0.02130
-0.01966
-0.01638
-0.01474
-0.01474
-0.01147
-0.00983
-0.00655
-0.00491
-0.00491
-0.00164
0.00328
0.00901
0.01393
0.01474
0.01474
0.01474
0.01474
0.01474
0.01884
0.02376
0.02539
0.02130
0.01966
0.02376
0.02867
0.03031
0.03359
0.03522
0.03850
0.04014
0.04014
0.04342
0.04505
0.04505
0.04505
0.04178
0.04014
0.04014
0.04014
0.04014
0.04014
0.04014
0.03604
0.03113
0.02621
0.02130
0.01638
0.01147
0.00655
0.00164
-0.00328
-0.00491
-0.01229
-0.01884
-0.02376
-0.02867
-0.03359
-0.03522
-0.03850
-0.04014
-0.04014
-0.04014
-0.04014
-0.04014
-0.03604
-0.03522
-0.03850
-0.04014
-0.04014
-0.04014
-0.03686
-0.03522
-0.03522
-0.03522
-0.03522
-0.03522
-0.03522
-0.03522
-0.03522
-0.03522
-0.03522
-0.03522
-0.03522
-0.03522
-0.03850
-0.04014
-0.04342
-0.04833
-0.05325
-0.05488
-0.05488
-0.05488
-0.05488
-0.05488
-0.05488
-0.05488
-0.05488
-0.05816
-0.05980
-0.05980
-0.05980
-0.05980
-0.06307
-0.06471
-0.06471
-0.06471
-0.06471
-0.06471
-0.06471
-0.06471
-0.06471
-0.06471
-0.06471
-0.06471
-0.06471
-0.06471
-0.06471
-0.06471
-0.06471
-0.06471
-0.06144
-0.05652
-0.04833
-0.03440
-0.01638
0.00000
0.01556
0.03359
0.04997
0.05816
0.05980
0.05980
0.05980
0.05980
0.05980
0.05325
0.04342
0.02294
0.00491
-0.00655
-0.02376
-0.03686
-0.04669
-0.05325
-0.05816
-0.06307
-0.06799
-0.06963
-0.06963
-0.06963
-0.06963
-0.06963
-0.07372
-0.07536
-0.07536
-0.07536
-0.07536
-0.07536
-0.07536
-0.07536
-0.07536
-0.07536
-0.07536
-0.07127
-0.07372
-0.07536
-0.07536
-0.07127
-0.06963
-0.06963
-0.06963
-0.06963
-0.06635
-0.05816
-0.04833
-0.02539
0.00819
0.04997
0.10485
0.17120
0.24820
0.35142
0.44972
0.48330
0.40876
0.23428
0.01966
-0.19414
-0.37108
-0.49723
-0.58078
-0.63157
-0.65123
-0.62829
-0.56604
-0.47101
-0.35633
-0.25230
-0.17366
-0.12042
-0.08847
-0.06717
-0.05652
-0.05161
-0.04669
-0.04505
-0.04178
-0.04014
-0.04014
-0.04014
-0.04014
-0.04014
-0.04014
-0.04014
-0.04014
-0.04014
-0.04014
-0.03686
-0.03522
-0.03195
-0.03031
-0.03031
-0.03031
-0.03031
-0.02703
-0.02539
-0.02212
-0.01966
-0.01966
-0.01966
-0.01966
-0.01966
-0.01638
-0.01474
-0.01474
-0.01474
-0.01474
-0.01474
-0.01147
-0.00983
-0.00655
-0.00491
-0.00491
-0.00164
0.00000
0.00328
0.00491
0.00819
0.00983
0.00983
0.00983
0.01311
0.01474
0.01474
0.01474
0.01474
0.01474
0.01474
0.01474
0.01474
0.01147
0.00655
0.00491
0.00819
0.00983
0.00983
0.00983
0.00983
0.01311
0.01474
0.01474
0.01474
0.01802
0.01966
0.02294
0.02539
0.02539
0.02539
0.02785
0.03031
0.03031
0.03031
0.03031
0.03031
0.03277
0.03522
0.03522
0.03522
0.03522
0.03522
0.03522
0.03850
0.04014
0.04014
0.04014
0.04014
0.04014
0.04014
0.04014
0.04014
0.04014
0.04014
0.04014
0.04342
0.04505
0.04505
0.04505
0.04505
0.04178
0.04014
0.04014
0.04014
0.04014
0.04014
0.03686
0.03522
0.03195
0.03031
0.02703
0.02212
0.01720
0.01474
0.00901
-0.00082
-0.00819
-0.01311
-0.02130
-0.02785
-0.03031
-0.03277
-0.03768
-0.04342
-0.04833
-0.05325
-0.05488
-0.05488
-0.05488
-0.05488
-0.05488
-0.05488
-0.05161
-0.04997
-0.04669
-0.04505
-0.04505
-0.04178
-0.04014
-0.03686
-0.03522
-0.03522
-0.03522
-0.03522
-0.03768
-0.04014
-0.04014
-0.04014
-0.04014
-0.04014
-0.03686
-0.03522
-0.03522
-0.03522
-0.03522
-0.03522
-0.03522
-0.03522
-0.03768
-0.04014
-0.03686
-0.03522
-0.03522
-0.03768
-0.04014
-0.04260
-0.04505
-0.04505
-0.04505
-0.04505
-0.04833
-0.04997
-0.04997
-0.04669
-0.04505
-0.04178
-0.04014
-0.04014
-0.04014
-0.04014
-0.04014
-0.04014
-0.04014
-0.04014
-0.04014
-0.04014
-0.04014
-0.03686
-0.03195
-0.02457
-0.01147
0.00328
0.01884
0.03686
0.05652
0.06471
0.06471
0.06471
0.06471
0.06471
0.06471
0.06471
0.05652
0.04178
0.02376
0.00328
-0.01065
-0.02376
-0.03604
-0.04587
-0.05325
-0.05488
-0.05816
-0.05980
-0.05734
-0.05488
-0.05816
-0.05980
-0.05980
-0.05734
-0.05488
-0.05488
-0.05488
-0.05488
-0.05488
-0.05488
-0.05816
-0.05980
-0.05980
-0.06307
-0.06471
-0.06471
-0.06471
-0.06471
-0.06471
-0.06471
-0.06471
-0.06226
-0.05734
-0.05243
-0.03850
-0.01638
0.01147
0.04751
0.09011
0.14335
0.21462
0.30800
0.39647
0.42186
0.34896
0.18759
-0.01065
-0.20233
-0.36452
-0.48248
-0.56112
-0.60945
-0.62256
-0.59225
-0.52344
-0.42760
-0.31701
-0.21871
-0.14745
-0.09830
-0.06881
-0.05161
-0.03686
-0.03031
-0.02703
-0.02212
-0.01966
-0.01720
-0.01229
-0.00983
-0.00737
-0.00491
-0.00491
-0.00491
-0.00491
-0.00246
0.00000
0.00000
0.00000
0.00246
0.00491
0.00737
0.00983
0.00737
0.00491
0.00491
0.00737
0.00983
0.00983
0.00983
0.00983
0.00983
0.00983
0.01229
0.01474
0.01474
0.01474
0.01474
0.01474
0.01474
0.01474
0.01474
0.01474
0.01474
0.01474
0.01474
0.01474
0.01802
0.01966
0.02294
0.02785
0.03031
0.02703
0.02539
0.02785
0.03277
0.03522
0.03768
0.04014
0.04260
0.04751
0.04997
0.05243
0.05488
0.05488
0.05488
0.05488
0.05488
0.05488
0.05734
0.05980
0.05980
0.06226
0.06471
0.06471
0.06471
0.06471
0.06471
0.06471
0.06471
0.06471
0.06471
0.06471
0.06471
0.06471
0.06226
0.05980
0.05980
0.05734
0.05488
0.05488
0.05488
0.05488
0.05488
0.05243
0.04997
0.04751
0.04505
0.04505
0.04505
0.04505
0.04260
0.04014
0.04014
0.04260
0.04505
0.04751
0.04997
0.04751
0.04505
0.04751
0.04997
0.04997
0.04997
0.04997
0.04997
0.04751
0.04505
0.04260
0.03768
0.03277
0.02785
0.02212
0.01720
0.01474
0.01474
0.01229
0.00983
0.00737
0.00246
-0.00246
-0.00491
-0.00491
-0.00737
-0.00983
-0.01229
-0.01474
-0.01474
-0.01474
-0.01474
-0.01720
-0.01966
-0.01966
-0.01966
-0.01966
-0.01966
-0.01966
-0.01966
-0.01966
-0.01966
-0.01966
-0.01966
-0.01966
-0.01966
-0.01966
-0.01966
-0.01966
-0.01966
-0.01966
-0.01966
-0.01720
-0.01474
-0.01720
-0.01966
-0.01966
-0.01966
-0.01720
-0.01474
-0.01720
-0.01966
-0.01966
-0.01966
-0.01966
-0.01966
-0.02212
-0.02539
-0.02539
-0.02703
-0.03031
-0.03031
-0.03031
-0.03031
-0.03031
-0.03031
-0.03031
-0.03031
-0.03031
-0.03031
-0.03031
-0.03031
-0.03031
-0.03031
-0.03031
-0.03031
-0.03031
-0.03031
-0.03031
-0.03031
-0.03031
-0.02785
-0.02048
-0.00819
0.00737
0.02212
0.03932
0.05734
0.06963
0.07536
0.07536
0.07536
0.07536
0.07536
0.07536
0.07045
0.05325
0.03113
0.01556
0.00328
-0.00983
-0.02212
-0.03440
-0.04260
-0.04751
-0.04997
-0.04997
-0.04997
-0.04997
-0.05243
-0.05488
-0.05488
-0.05488
-0.05488
-0.05488
-0.05488
-0.05734
-0.05980
-0.05980
-0.05980
-0.05980
-0.05980
-0.05980
-0.05980
-0.05980
-0.05980
-0.05980
-0.05980
-0.05980
-0.05816
-0.05488
-0.05243
-0.04751
-0.03850
-0.01638
0.01802
0.05816
0.10403
0.16383
0.23755
0.32520
0.39238
0.39319
0.30063
0.13352
-0.06062
-0.24247
-0.38992
-0.49723
-0.56931
-0.60863
-0.60863
-0.56849
-0.49559
-0.39647
-0.29162
-0.19987
-0.13352
-0.09175
-0.06635
-0.04833
-0.03604
-0.03031
-0.02785
-0.02294
-0.01802
-0.01474
-0.01311
-0.00983
-0.00819
-0.00491
-0.00246
0.00000
0.00246
0.00491
0.00491
0.00737
0.00983
0.01229
0.01474
0.01474
0.01474
0.01474
0.01474
0.01474
0.01474
0.01311
0.01229
0.01474
0.01474
0.01474
0.01474
0.01474
0.01474
0.01474
0.01474
0.01474
0.01474
0.01474
0.01474
0.01474
0.01474
0.01474
0.01474
0.01474
0.01474
0.01474
0.01474
0.01474
0.01474
0.01474
0.01474
0.01474
0.01474
0.01474
0.01474
0.01474
0.01720
0.01966
0.01966
0.01966
0.01966
0.02212
0.02703
0.03195
0.03686
0.04014
0.04014
0.04014
0.04014
0.04014
0.04014
0.04014
0.04178
0.04505
0.04505
0.04669
0.04997
0.04997
0.04997
0.05161
0.05488
0.05488
0.05488
0.05488
0.05325
0.04997
0.04997
0.04997
0.04997
0.04997
0.04997
0.04997
0.04997
0.05161
0.05488
0.05325
0.04997
0.04997
0.04997
0.04997
0.04997
0.04997
0.05161
0.05488
0.05325
0.04833
0.04505
0.04342
0.04014
0.04014
0.04014
0.04014
0.03768
0.03113
0.02294
0.01966
0.01802
0.01311
0.00819
0.00328
-0.00164
-0.00655
-0.01393
-0.02212
-0.02703
-0.03031
-0.03195
-0.03686
-0.04014
-0.04014
-0.04014
-0.04014
-0.04178
-0.04505
-0.04669
-0.04997
-0.04997
-0.04997
-0.04833
-0.04342
-0.04014
-0.04014
-0.04178
-0.04505
-0.04505
-0.04669
-0.05161
-0.05488
-0.05488
-0.05488
-0.05488
-0.05488
-0.05488
-0.05488
-0.05488
-0.05488
-0.05488
-0.05488
-0.05488
-0.05488
-0.05488
-0.05488
-0.05488
-0.05652
-0.05980
-0.06144
-0.06471
-0.06471
-0.06471
-0.06717
-0.07209
-0.07700
-0.08028
-0.08028
-0.08028
-0.08028
-0.07782
-0.07536
-0.07700
-0.08028
-0.07782
-0.07536
-0.07536
-0.07536
-0.07700
-0.08028
-0.08028
-0.08028
-0.07782
-0.07290
-0.06471
-0.04997
-0.03440
-0.01802
0.00246
0.01638
0.01966
0.01966
0.01802
0.01638
0.02212
0.02703
0.02621
0.01311
-0.00737
-0.02703
-0.04505
-0.06226
-0.07700
-0.08355
-0.09338
-0.10158
-0.10649
-0.10977
-0.10977
-0.10977
-0.10977
-0.10813
-0.10485
-0.10321
-0.09994
-0.09994
-0.09994
-0.09994
-0.09994
-0.09830
-0.09502
-0.09502
-0.09502
-0.09338
-0.09011
-0.09011
-0.09011
-0.09175
-0.09502
-0.09338
-0.09011
-0.09011
-0.08847
-0.08355
-0.07454
-0.05816
-0.03277
0.00328
0.04669
0.10158
0.17202
0.25885
0.34978
0.39811
0.35797
0.22281
0.03359
-0.15974
-0.33176
-0.47183
-0.56849
-0.63157
-0.66843
-0.66352
-0.61682
-0.53491
-0.42678
-0.31701
-0.22691
-0.16383
-0.12042
-0.09338
-0.07700
-0.06635
-0.05816
-0.05488
-0.05488
-0.05488
-0.05325
-0.04997
-0.04833
-0.04505
-0.04505
-0.04342
-0.04014
-0.03850
-0.03522
-0.03522
-0.03522
-0.03522
-0.03359
-0.03031
-0.03031
-0.03195
-0.03522
-0.03359
-0.03031
-0.03031
-0.03031
-0.03031
-0.03031
-0.03031
-0.03031
-0.03031
-0.03031
-0.02867
-0.02539
-0.02376
-0.01966
-0.01884
-0.01311
-0.00983
-0.00819
-0.00491
-0.00328
0.00000
0.00164
0.00655
0.00983
0.01147
0.01474
0.01474
0.01474
0.01474
0.01474
0.01638
0.01966
0.01966
0.02130
0.02539
0.02539
0.02539
0.02539
0.02539
0.02539
0.02539
0.02539
0.02539
0.02621
0.03031
0.03031
0.02867
0.02539
0.02621
0.03031
0.03113
0.03522
0.03686
0.04014
0.04014
0.04014
0.04014
0.04014
0.04014
0.04014
0.04014
0.04014
0.04014
0.04014
0.04014
0.04014
0.04014
0.04178
0.04505
0.04505
0.04342
0.04178
0.04342
0.04014
0.04014
0.04014
0.04014
0.04014
0.04014
0.04014
0.04014
0.04014
0.04014
0.04014
0.04014
0.04014
0.04014
0.03850
0.03522
0.03522
0.03359
0.03031
0.02867
0.02376
0.01884
0.01474
0.01229
0.00328
-0.00164
-0.00655
-0.01147
-0.01638
-0.02294
-0.03031
-0.03113
-0.03604
-0.04178
-0.04669
-0.04997
-0.05161
-0.05488
-0.05488
-0.05488
-0.05652
-0.05980
-0.05898
-0.05488
-0.05488
-0.05488
-0.05325
-0.04997
-0.04833
-0.04342
-0.03850
-0.03359
-0.03031
-0.03031
-0.03031
-0.03031
-0.03031
-0.03031
-0.03031
-0.03031
-0.03031
-0.03031
-0.03031
-0.02867
-0.02539
-0.02539
-0.02539
-0.02539
-0.02376
-0.01966
-0.01966
-0.02130
-0.02539
-0.02539
-0.02539
-0.02539
-0.02621
-0.03031
-0.03031
-0.03113
-0.03604
-0.04014
-0.04096
-0.04587
-0.04997
-0.04997
-0.04997
-0.04587
-0.03359
-0.02621
-0.01229
-0.00082
0.01393
0.02785
0.03522
0.03604
0.03850
0.03604
0.04014
0.04014
0.03604
0.02130
0.00655
-0.00983
-0.02785
-0.03850
-0.05161
-0.05734
-0.06635
-0.06963
-0.06963
-0.06963
-0.06881
-0.06471
-0.06389
-0.05980
-0.05980
-0.05980
-0.06144
-0.06471
-0.06389
-0.05980
-0.06144
-0.06471
-0.06471
-0.06471
-0.06471
-0.06635
-0.07127
-0.07536
-0.07536
-0.07536
-0.07618
-0.08028
-0.08028
-0.08028
-0.08028
-0.08028
-0.07782
-0.06553
-0.04260
-0.01147
0.02457
0.06799
0.12615
0.20233
0.29653
0.37435
0.37190
0.27442
0.11222
-0.07209
-0.25148
-0.40220
-0.51197
-0.58160
-0.62420
-0.63321
-0.59307
-0.51279
-0.41122
-0.30882
-0.22035
-0.15974
-0.11796
-0.09093
-0.07127
-0.05898
-0.05406
-0.04915
-0.04505
-0.04423
-0.04014
-0.03850
-0.03522
-0.03522
-0.03522
-0.03359
-0.03031
-0.03031
-0.02867
-0.02539
-0.02376
-0.01884
-0.01474
-0.01393
-0.00983
-0.00901
-0.00491
-0.00491
-0.00491
-0.00491
-0.00491
-0.00491
-0.00491
-0.00491
-0.00491
-0.00491
-0.00491
-0.00491
-0.00491
-0.00491
-0.00491
-0.00491
-0.00491
-0.00491
-0.00491
-0.00410
0.00000
0.00000
0.00000
0.00000
0.00082
0.00491
0.00573
0.00983
0.00983
0.01065
0.01474
0.01474
0.01474
0.01474
0.01474
0.01638
0.01966
0.01966
0.02130
0.02539
0.02539
0.02539
0.02621
0.03031
0.03113
0.03522
0.03522
0.03522
0.03522
0.03522
0.03522
0.03522
0.03522
0.03522
0.03522
0.03522
0.03522
0.03522
0.03522
0.03522
0.03522
0.03522
0.03522
0.03604
0.04014
0.03932
0.03522
0.03522
0.03522
0.03522
0.03522
0.03522
0.03522
0.03440
0.03113
0.03522
0.03604
0.04014
0.04014
0.04014
0.03932
0.03522
0.03522
0.03522
0.03522
0.03522
0.03604
0.04014
0.03932
0.03522
0.03440
0.03031
0.03031
0.02949
0.02539
0.02376
0.01884
0.01311
0.00410
-0.00082
-0.00491
-0.00573
-0.01147
-0.02048
-0.02621
-0.03031
-0.03031
-0.03113
-0.03604
-0.04014
-0.04096
-0.04505
-0.04505
-0.04505
-0.04505
-0.04505
-0.04505
-0.04505
-0.04505
-0.04505
-0.04505
-0.04505
-0.04505
-0.04587
-0.04997
-0.04997
-0.05079
-0.05488
-0.05488
-0.05488
-0.05488
-0.05488
-0.05488
-0.05488
-0.05488
-0.05406
-0.04997
-0.05079
-0.05488
-0.05488
-0.05488
-0.05488
-0.05488
-0.05488
-0.05488
-0.05488
-0.05488
-0.05488
-0.05488
-0.05488
-0.05488
-0.05488
-0.05488
-0.05488
-0.05488
-0.05488
-0.05488
-0.05488
-0.05325
-0.04260
-0.02703
-0.00737
0.00737
0.02294
0.04178
0.04997
0.04997
0.04915
0.04505
0.04587
0.04915
0.04342
0.03195
0.01229
-0.00737
-0.02212
-0.03686
-0.05161
-0.06144
-0.07127
-0.08028
-0.08110
-0.08519
-0.08601
-0.09011
-0.09011
-0.09011
-0.09011
-0.09011
-0.09011
-0.09093
-0.09502
-0.09502
-0.09502
-0.09502
-0.09584
-0.09994
-0.09994
-0.09994
-0.09994
-0.09994
-0.09994
-0.09994
-0.09994
-0.09994
-0.09994
-0.09912
-0.09420
-0.08847
-0.07946
-0.07209
-0.05079
-0.02130
0.00983
0.04587
0.09256
0.15482
0.23674
0.32684
0.37026
0.31865
0.18103
-0.00819
-0.18841
-0.33585
-0.46036
-0.54146
-0.59307
-0.61273
-0.58815
-0.52917
-0.43579
-0.32193
-0.22035
-0.14417
-0.09666
-0.06799
-0.04833
-0.03440
-0.03031
-0.02949
-0.02539
-0.02457
-0.01966
-0.01966
-0.01966
-0.01966
-0.01474
-0.01474
-0.01474
-0.01474
-0.01474
-0.01474
-0.01393
-0.00491
-0.00491
-0.00491
-0.00410
0.00082
0.00573
0.01065
0.01474
0.01556
0.02048
0.02539
0.02539
0.03113
0.04014
0.04014
0.04587
0.05079
0.05570
0.06062
0.06553
0.07045
0.07536
0.08028
0.08519
0.08519
0.09011
0.09011
0.09502
0.09584
0.09994
0.09994
0.10076
0.10485
0.10485
0.09912
0.09420
0.08929
0.08519
0.08437
0.07946
0.07454
0.06963
0.06471
0.05980
0.05488
0.05570
0.05980
0.05980
0.05980
0.05980
0.05488
0.04997
0.05079
0.05488
0.05488
0.05079
0.05488
0.05488
0.05488
0.04915
0.04505
0.04505
0.04997
0.05079
0.05488
0.04997
0.04505
0.04505
0.04505
0.04423
0.04014
0.04014
0.04014
0.04014
0.04014
0.04014
0.03932
0.03522
0.03522
0.03522
0.04014
0.03932
0.03522
0.03522
0.04014
0.04014
0.04014
0.04014
0.04014
0.04014
0.04505
0.04423
0.03932
0.03440
0.03031
0.02949
0.02457
0.01966
0.01474
0.01393
0.00410
-0.00573
-0.01147
-0.02539
-0.03031
-0.03522
-0.04096
-0.05079
-0.06062
-0.07045
-0.07536
-0.08028
-0.09093
-0.09994
-0.09994
-0.09994
-0.09994
-0.10567
-0.11059
-0.11468
-0.11468
-0.11468
-0.10977
-0.10977
-0.10977
-0.10485
-0.09994
-0.09994
-0.09502
-0.09502
-0.09502
-0.09502
-0.09011
-0.08519
-0.08437
-0.08028
-0.08028
-0.08519
-0.08519
-0.08519
-0.08519
-0.08519
-0.09011
-0.09011
-0.09502
-0.09502
-0.09011
-0.09011
-0.09011
-0.09011
-0.09011
-0.09502
-0.09011
-0.09502
-0.09994
-0.09994
-0.09994
-0.10485
-0.09994
-0.09994
-0.09912
-0.08929
-0.07864
-0.05898
-0.04423
-0.02867
-0.00983
-0.00491
-0.00491
-0.00491
-0.00491
0.00491
0.00983
-0.00082
-0.01556
-0.03604
-0.05570
-0.07045
-0.08028
-0.09584
-0.11059
-0.12042
-0.12533
-0.12533
-0.13025
-0.13025
-0.13516
-0.13516
-0.13516
-0.13516
-0.13516
-0.13025
-0.13025
-0.13025
-0.13025
-0.13025
-0.12943
-0.12533
-0.12533
-0.12451
-0.11960
-0.11960
-0.11960
-0.11468
-0.11468
-0.10977
-0.10977
-0.10485
-0.10485
-0.10485
-0.10485
-0.09994
-0.09994
-0.08929
-0.06881
-0.03359
0.00655
0.06144
0.12697
0.20725
0.30718
0.40630
0.44316
0.37599
0.21462
-0.00491
-0.21380
-0.39319
-0.52180
-0.60126
-0.66024
-0.68481
-0.66352
-0.60863
-0.52262
-0.40302
-0.29326
-0.20888
-0.14909
-0.10977
-0.08437
-0.06963
-0.05980
-0.05488
-0.04997
-0.04505
-0.04014
-0.04014
-0.03522
-0.03522
-0.03031
-0.03031
-0.03031
-0.02539
-0.02457
-0.01966
-0.01966
-0.01966
-0.01966
-0.01474
-0.00983
-0.00491
-0.00491
-0.00491
0.00000
0.00000
0.00000
0.00491
0.00491
0.00491
0.00491
0.00491
0.00983
0.00983
0.00983
0.00983
0.00983
0.00983
0.01474
0.01474
0.01474
0.01474
0.01474
0.01474
0.01474
0.01966
0.02539
0.02539
0.03031
0.03031
0.03522
0.04014
0.04014
0.03522
0.04014
0.04014
0.04014
0.04014
0.04014
0.04014
0.04014
0.04014
0.04505
0.04505
0.04505
0.04505
0.04505
0.04505
0.04505
0.04505
0.04997
0.04997
0.04997
0.04997
0.04997
0.04997
0.04997
0.04997
0.04505
0.04505
0.04997
0.04997
0.04997
0.04997
0.05488
0.05488
0.05980
0.05980
0.05488
0.05488
0.05488
0.05488
0.04997
0.04997
0.04505
0.04505
0.04014
0.04014
0.04014
0.04014
0.04014
0.04014
0.04014
0.04014
0.03522
0.03522
0.03522
0.03522
0.04014
0.04014
0.04014
0.04014
0.04505
0.04505
0.04505
0.04014
0.04014
0.03522
0.03031
0.02539
0.02048
0.01556
0.00491
0.00000
-0.00491
-0.01474
-0.02457
-0.02949
-0.03031
-0.03932
-0.04505
-0.04997
-0.04997
-0.05488
-0.05488
-0.05980
-0.05980
-0.06471
-0.06471
-0.06963
-0.06963
-0.06553
-0.05980
-0.05980
-0.05980
-0.05980
-0.05980
-0.05488
-0.05488
-0.05488
-0.05488
-0.04997
-0.04997
-0.04997
-0.04505
-0.04997
-0.04997
-0.04997
-0.04997
-0.05488
-0.05488
-0.05488
-0.05488
-0.05488
-0.05488
-0.05488
-0.05980
-0.05980
-0.05980
-0.05980
-0.05980
-0.05980
-0.05980
-0.05980
-0.05488
-0.05488
-0.04587
-0.03113
-0.01556
-0.00573
0.01393
0.03359
0.04423
0.04997
0.04997
0.05488
0.05488
0.05488
0.05488
0.04587
0.02621
0.00655
-0.00901
-0.02867
-0.03932
-0.05406
-0.06881
-0.07946
-0.08437
-0.09420
-0.09994
-0.09994
-0.10485
-0.10977
-0.10977
-0.10977
-0.11468
-0.11960
-0.12451
-0.12533
-0.12533
-0.12943
-0.13434
-0.13516
-0.13516
-0.13516
-0.13516
-0.13926
-0.14499
-0.14991
-0.14991
-0.14991
-0.15482
-0.16465
-0.16957
-0.17038
-0.17038
-0.17038
-0.17038
-0.15646
-0.13680
-0.10239
-0.06307
-0.00901
0.05980
0.15236
0.26623
0.33913
0.32193
0.19987
0.02457
-0.16055
-0.33176
-0.47347
-0.57668
-0.64467
-0.68236
-0.67580
-0.62911
-0.55129
-0.44890
-0.34814
-0.26213
-0.19987
-0.16793
-0.14253
-0.12615
-0.12042
-0.11550
-0.11468
-0.11468
-0.11468
-0.11468
-0.11468
-0.11960
-0.12451
-0.12533
-0.12042
-0.11960
-0.12451
-0.12533
-0.12533
-0.12533
-0.12533
-0.12533
-0.12042
-0.11059
-0.10567
-0.10076
-0.08683
-0.07618
-0.06635
-0.06062
-0.05980
-0.05570
-0.05980
-0.05980
-0.05980
-0.05570
-0.05488
-0.05488
-0.04587
-0.04014
-0.03522
-0.03031
-0.03031
-0.02539
-0.02539
-0.02048
-0.01966
-0.01556
-0.01065
-0.00573
-0.00491
-0.00082
0.00000
0.00000
0.00000
0.00410
0.00491
0.00983
0.00983
0.01474
0.01474
0.01474
0.01474
0.01474
0.01474
0.01966
0.01966
0.01556
0.01474
0.01474
0.01474
0.01474
0.01474
0.01474
0.01474
0.01966
0.01966
0.01966
0.02457
0.02539
0.02539
0.02539
0.02539
0.02048
0.01966
0.01966
0.01966
0.01966
0.01966
0.01966
0.01966
0.01966
0.01966
0.01966
0.01966
0.01966
0.01966
0.01966
0.01966
0.01556
0.01474
0.01474
0.01474
0.01474
0.01474
0.01474
0.01474
0.01474
0.01474
0.01966
0.01966
0.01966
0.01966
0.01556
0.01474
0.01474
0.01474
0.01474
0.01065
0.00573
0.00082
-0.00410
-0.00491
-0.00901
-0.01884
-0.01966
-0.02457
-0.02949
-0.03440
-0.03522
-0.03932
-0.04833
-0.05406
-0.05488
-0.05898
-0.05980
-0.05980
-0.05980
-0.05980
-0.05980
-0.05570
-0.05488
-0.05488
-0.05488
-0.05488
-0.05488
-0.05488
-0.05488
-0.05488
-0.05488
-0.05488
-0.05488
-0.05488
-0.05488
-0.05488
-0.05488
-0.05488
-0.05488
-0.05488
-0.05488
-0.05488
-0.05488
-0.05488
-0.05079
-0.04997
-0.05406
-0.05488
-0.05079
-0.04997
-0.04997
-0.05406
-0.05488
-0.05488
-0.05488
-0.05488
-0.05488
-0.05898
-0.06389
-0.06471
-0.06471
-0.06471
-0.06471
-0.06062
-0.05570
-0.04669
-0.03277
-0.02130
-0.00737
0.01147
0.02376
0.02949
0.03440
0.03522
0.03932
0.04014
0.04014
0.03604
0.01802
0.00246
-0.01229
-0.02785
-0.04260
-0.05325
-0.06307
-0.07372
-0.07946
-0.08028
-0.08028
-0.08028
-0.08028
-0.08028
-0.07618
-0.07536
-0.07536
-0.07045
-0.06963
-0.06963
-0.06553
-0.06471
-0.06471
-0.06471
-0.06471
-0.06471
-0.06471
-0.06062
-0.05570
-0.05488
-0.05488
-0.05488
-0.05488
-0.05488
-0.05488
-0.05079
-0.04587
-0.04096
-0.03604
-0.02294
0.00491
0.03440
0.07290
0.11304
0.16875
0.24575
0.34568
0.42596
0.41941
0.31701
0.14417
-0.04096
-0.21380
-0.36289
-0.47593
-0.54392
-0.58733
-0.59061
-0.54556
-0.46610
-0.36043
-0.25885
-0.17120
-0.11059
-0.07127
-0.04505
-0.03195
-0.01802
-0.01065
-0.00573
-0.00082
0.00410
0.00901
0.01393
0.01474
0.01474
0.01474
0.01474
0.01474
0.01884
0.01966
0.02376
0.02539
0.02539
0.02539
0.02539
0.02867
0.03031
0.03031
0.03031
0.03031
0.03031
0.03031
0.03031
0.03031
0.03031
0.03031
0.03359
0.03522
0.03932
0.04014
0.04014
0.04014
0.04423
0.04915
0.05406
0.05079
0.04997
0.04587
0.04505
0.04505
0.04505
0.04505
0.04505
0.04505
0.04915
0.04997
0.04997
0.04997
0.05406
0.05488
0.05488
0.05898
0.05980
0.06389
0.06471
0.06471
0.06471
0.06881
0.06963
0.07372
0.07536
0.07864
0.08028
0.08355
0.08519
0.08519
0.08519
0.08519
0.08519
0.08519
0.08519
0.08519
0.08519
0.08519
0.08519
0.08519
0.08519
0.08110
0.08028
0.08028
0.08028
0.08028
0.07618
0.07536
0.07127
0.06963
0.06963
0.06963
0.06963
0.06963
0.06963
0.06963
0.06963
0.06963
0.06963
0.07372
0.07536
0.07864
0.08028
0.08355
0.08519
0.08519
0.08519
0.08847
0.09011
0.09011
0.09011
0.09011
0.09011
0.09420
0.09502
0.09093
0.08601
0.08110
0.07618
0.07127
0.06635
0.06471
0.05734
0.04751
0.04096
0.03604
0.02703
0.02130
0.01638
0.01474
0.01474
0.01147
0.00983
0.00655
0.00491
0.00491
0.00491
0.00491
0.00491
0.00491
0.00491
0.00491
0.00901
0.00983
0.00983
0.00983
0.00983
0.00983
0.00983
0.00983
0.00655
0.00164
-0.00410
-0.00491
-0.00491
-0.00901
-0.00983
-0.00983
-0.00983
-0.00983
-0.00983
-0.00655
-0.00491
-0.00164
0.00737
0.01393
0.01474
0.01474
0.01884
0.02376
0.02867
0.03359
0.03850
0.04751
0.06471
0.08847
0.10649
0.12123
0.13598
0.15072
0.15482
0.15154
0.14253
0.13598
0.13516
0.13516
0.12042
0.09994
0.07700
0.05161
0.03359
0.01556
-0.00491
-0.02457
-0.03768
-0.04751
-0.05406
-0.05488
-0.06226
-0.06881
-0.07372
-0.07864
-0.08355
-0.08847
-0.09011
-0.09011
-0.09011
-0.09011
-0.09011
-0.09338
-0.09830
-0.09994
-0.09994
-0.09994
-0.09994
-0.09994
-0.09994
-0.09994
-0.09994
-0.09994
-0.09994
-0.09994
-0.09994
-0.09994
-0.09994
-0.09666
-0.08437
-0.06226
-0.03359
0.00410
0.05079
0.10813
0.18267
0.26950
0.34486
0.36534
0.29326
0.14008
-0.05325
-0.23837
-0.40384
-0.52508
-0.60126
-0.65205
-0.67580
-0.65860
-0.60044
-0.50542
-0.39319
-0.28916
-0.20643
-0.15318
-0.12205
-0.10076
-0.08437
-0.07618
-0.07127
-0.06635
-0.06471
-0.06471
-0.06471
-0.06471
-0.06471
-0.06144
-0.05980
-0.05652
-0.05488
-0.05488
-0.05488
-0.05488
-0.05816
-0.05980
-0.05980
-0.05652
-0.05488
-0.05161
-0.04669
-0.04505
-0.04505
-0.04505
-0.04833
-0.04669
-0.04833
-0.04997
-0.04997
-0.04997
-0.04997
-0.04669
-0.04505
-0.04178
-0.04014
-0.04014
-0.04014
-0.04014
-0.04014
-0.03686
-0.03522
-0.03195
-0.03031
-0.03031
-0.03031
-0.03031
-0.03031
-0.03031
-0.02621
-0.02539
-0.02539
-0.02867
-0.03031
-0.02621
-0.02130
-0.01966
-0.02376
-0.02130
-0.01966
-0.01966
-0.01638
-0.01474
-0.01474
-0.01147
-0.00983
-0.01311
-0.01802
-0.01966
-0.01966
-0.01638
-0.01474
-0.01474
-0.01474
-0.01474
-0.01474
-0.01147
-0.00983
-0.00655
-0.00491
-0.00491
-0.00491
-0.00164
0.00000
0.00000
-0.00328
-0.00164
0.00000
0.00328
0.00491
0.00491
0.00491
0.00491
0.00491
0.00491
0.00491
0.00491
0.00491
0.00491
0.00491
0.00491
0.00819
0.00983
0.00983
0.00983
0.00983
0.00983
0.01311
0.01474
0.01474
0.01474
0.01147
0.00983
0.00983
0.00983
0.00655
-0.00164
-0.00491
-0.00819
-0.01311
-0.02130
-0.03195
-0.03850
-0.04342
-0.04833
-0.05325
-0.05816
-0.06307
-0.06799
-0.07290
-0.07536
-0.07536
-0.07864
-0.08028
-0.08028
-0.08355
-0.08519
-0.08847
-0.09338
-0.09502
-0.09502
-0.09502
-0.09175
-0.09011
-0.08683
-0.08519
-0.08519
-0.08519
-0.08519
-0.08519
-0.08192
-0.08028
-0.07700
-0.07536
-0.07864
-0.08028
-0.08028
-0.08028
-0.08028
-0.08028
-0.08028
-0.08028
-0.08028
-0.08355
-0.08519
-0.08192
-0.08028
-0.08028
-0.07045
-0.05898
-0.04505
-0.03359
-0.01393
0.00491
0.01311
0.01802
0.01966
0.01966
0.01720
0.01474
0.01147
0.00082
-0.01474
-0.03277
-0.04915
-0.06471
-0.07946
-0.09093
-0.10158
-0.10813
-0.11304
-0.11796
-0.11960
-0.12287
-0.12533
-0.12205
-0.11960
-0.11960
-0.11960
-0.11714
-0.11468
-0.11468
-0.11468
-0.11222
-0.10977
-0.10649
-0.10158
-0.09994
-0.09994
-0.09994
-0.09994
-0.09994
-0.10321
-0.10485
-0.10485
-0.10485
-0.10158
-0.09994
-0.09994
-0.09994
-0.09420
-0.08355
-0.06144
-0.02539
0.02130
0.07127
0.13926
0.23182
0.33503
0.41777
0.43907
0.35797
0.18677
-0.02867
-0.23755
-0.41367
-0.54556
-0.63321
-0.68481
-0.70611
-0.68563
-0.62420
-0.52754
-0.41203
-0.30391
-0.22527
-0.17284
-0.13680
-0.11304
-0.09584
-0.08355
-0.08028
-0.07700
-0.07209
-0.06963
-0.06717
-0.06471
-0.06471
-0.06471
-0.06226
-0.05980
-0.05980
-0.05980
-0.05980
-0.05734
-0.05816
-0.05734
-0.05488
-0.05161
-0.04997
-0.04669
-0.04505
-0.04178
-0.04014
-0.03686
-0.03195
-0.03031
-0.03277
-0.03522
-0.03522
-0.03195
-0.03031
-0.03031
-0.02703
-0.02212
-0.01966
-0.01966
-0.01966
-0.01720
-0.01229
-0.00737
-0.00491
-0.00491
-0.00164
0.00000
0.00328
0.00491
0.00491
0.00491
0.00491
0.00491
0.00491
0.00491
0.00491
0.00819
0.01311
0.01474
0.01474
0.01474
0.01474
0.01474
0.01474
0.01474
0.01474
0.01474
0.01474
0.01474
0.01474
0.01474
0.01474
0.01802
0.01966
0.02294
0.02785
0.03031
0.03031
0.02703
0.02539
0.02539
0.02212
0.01966
0.01966
0.01966
0.01966
0.02294
0.02539
0.02539
0.02539
0.02539
0.02539
0.02539
0.02539
0.02539
0.02539
0.02212
0.01966
0.01966
0.01966
0.01966
0.01966
0.01966
0.01966
0.01966
0.01966
0.01966
0.01966
0.01720
0.01474
0.01474
0.01474
0.01229
0.00737
0.00246
-0.00246
-0.00491
-0.00491
-0.00819
-0.01311
-0.02048
-0.02785
-0.03277
-0.03768
-0.04260
-0.04751
-0.05243
-0.05488
-0.05816
-0.06307
-0.06471
-0.06799
-0.07290
-0.07536
-0.07536
-0.07536
-0.07536
-0.07536
-0.07536
-0.07209
-0.06717
-0.06471
-0.06226
-0.05980
-0.05980
-0.05980
-0.05734
-0.05488
-0.05488
-0.05488
-0.05488
-0.05488
-0.05243
-0.04997
-0.04997
-0.04751
-0.04505
-0.04505
-0.04505
-0.04505
-0.04505
-0.04751
-0.04997
-0.04997
-0.04997
-0.05243
-0.05488
-0.05488
-0.05488
-0.05488
-0.05488
-0.05488
-0.04997
-0.03686
-0.02457
-0.01229
0.00328
0.02048
0.03522
0.04505
0.05243
0.05243
0.04997
0.04997
0.04997
0.04751
0.03932
0.02457
0.00410
-0.01065
-0.02294
-0.03768
-0.04997
-0.06062
-0.07045
-0.07782
-0.08028
-0.08028
-0.08028
-0.08028
-0.08028
-0.08028
-0.08028
-0.08028
-0.08028
-0.08028
-0.08028
-0.08028
-0.08273
-0.08519
-0.08765
-0.09011
-0.09011
-0.09011
-0.08765
-0.08519
-0.08519
-0.08519
-0.08273
-0.08028
-0.08028
-0.08028
-0.08028
-0.08028
-0.07454
-0.06471
-0.04997
-0.02212
0.01311
0.05325
0.10321
0.16383
0.24657
0.34650
0.41859
0.40876
0.29490
0.10403
-0.10239
-0.28752
-0.43661
-0.54064
-0.60781
-0.64549
-0.64222
-0.59716
-0.51361
-0.40876
-0.30145
-0.21216
-0.14991
-0.10731
-0.07946
-0.06226
-0.04997
-0.04260
-0.03768
-0.03277
-0.03031
-0.03031
-0.02785
-0.02212
-0.01966
-0.01720
-0.01229
-0.00983
-0.00737
-0.00491
-0.00491
-0.00246
0.00246
0.00737
0.00983
0.01229
0.01474
0.01474
0.01474
0.01474
0.01474
0.01720
0.01966
0.01966
0.01966
0.02212
0.02539
0.02785
0.03031
0.03031
0.03031
0.03031
0.03031
0.03031
0.03031
0.03031
0.03031
0.03031
0.03031
0.03031
0.03031
0.03031
0.03031
0.03031
0.03031
0.03031
0.03031
0.03031
0.03031
0.03277
0.03522
0.03522
0.03768
0.04014
0.04014
0.04014
0.04014
0.04260
0.04505
0.04505
0.04505
0.04505
0.04505
0.04751
0.04997
0.05243
0.05488
0.05488
0.05488
0.05488
0.05488
0.05243
0.04997
0.04997
0.04997
0.05243
0.05488
0.05488
0.05488
0.05734
0.05980
0.05734
0.05488
0.05734
0.05980
0.05980
0.05980
0.05980
0.05980
0.05734
0.05488
0.05488
0.05243
0.04997
0.04997
0.04997
0.04997
0.04997
0.04997
0.04997
0.04997
0.04997
0.04997
0.04751
0.04505
0.04260
0.04014
0.04014
0.04014
0.03768
0.03277
0.02785
0.02539
0.02294
0.01802
0.01474
0.01311
0.00737
0.00246
-0.00246
-0.00737
-0.01229
-0.01720
-0.01966
-0.01966
-0.02212
-0.02539
-0.02539
-0.02539
-0.02294
-0.01966
-0.01966
-0.01966
-0.01802
-0.01474
-0.01311
-0.00983
-0.00983
-0.00983
-0.00983
-0.00983
-0.00737
-0.00491
-0.00491
-0.00491
-0.00491
-0.00491
-0.00491
-0.00491
-0.00491
-0.00491
-0.00491
-0.00491
-0.00491
-0.00491
-0.00491
-0.00491
-0.00491
-0.00491
-0.00491
-0.00491
-0.00491
-0.00491
-0.00491
-0.00737
-0.00983
-0.00983
-0.01229
-0.01474
-0.01474
-0.01474
-0.01474
-0.01720
-0.01966
-0.01802
-0.01065
0.00164
0.01638
0.03113
0.04669
0.06144
0.07618
0.08519
0.08519
0.08519
0.08519
0.08519
0.08519
0.07864
0.06389
0.04833
0.03359
0.02048
0.00655
-0.00737
-0.01638
-0.02703
-0.03031
-0.03195
-0.03522
-0.03686
-0.04014
-0.04014
-0.04178
-0.04505
-0.04505
-0.04751
-0.04751
-0.04505
-0.04505
-0.04505
-0.04505
-0.04505
-0.04505
-0.04505
-0.04669
-0.04751
-0.04505
-0.04505
-0.04505
-0.04505
-0.04669
-0.04997
-0.04997
-0.04997
-0.04751
-0.04260
-0.03768
-0.03113
-0.01474
0.01474
0.04915
0.09093
0.14499
0.21298
0.30309
0.39565
0.43006
0.36125
0.20315
0.00328
-0.18677
-0.34896
-0.47347
-0.55621
-0.60699
-0.62092
-0.58815
-0.51115
-0.41040
-0.30227
-0.20561
-0.13270
-0.08601
-0.05652
-0.03932
-0.02621
-0.01802
-0.01311
-0.00819
-0.00491
-0.00328
0.00000
0.00164
0.00491
0.00737
0.00983
0.00983
0.01229
0.01474
0.01474
0.01474
0.01474
0.01474
0.01474
0.01474
0.01474
0.01474
0.01474
0.01474
0.01474
0.01474
0.01474
0.01474
0.01720
0.01966
0.01966
0.01802
0.01474
0.01474
0.01474
0.01474
0.01720
0.01966
0.02212
0.02539
0.02703
0.03031
0.03031
0.03031
0.03031
0.03031
0.03031
0.02785
0.02539
0.02703
0.03031
0.03195
0.03522
0.03522
0.03522
0.03686
0.04014
0.04014
0.04014
0.04014
0.04178
0.04669
0.05161
0.05488
0.05325
0.04997
0.04997
0.05161
0.05488
0.05652
0.06226
0.06471
0.06471
0.06471
0.06471
0.06471
0.06471
0.06471
0.06717
0.06963
0.07209
0.07536
0.07290
0.06963
0.07209
0.07700
0.08028
0.08028
0.08028
0.08028
0.08028
0.08192
0.08519
0.08519
0.08519
0.08519
0.08519
0.08355
0.07782
0.07536
0.07290
0.06963
0.06963
0.06799
0.06471
0.06307
0.05816
0.05488
0.05325
0.04997
0.04833
0.04505
0.04342
0.04014
0.03850
0.03359
0.03031
0.02785
0.02294
0.01966
0.01966
0.01802
0.01474
0.01311
0.00819
0.00328
-0.00164
-0.00491
-0.00491
-0.00655
-0.00983
-0.00819
-0.00491
-0.00491
-0.00655
-0.01147
-0.01638
-0.01966
-0.01802
-0.01474
-0.01474
-0.01638
-0.02212
-0.02703
-0.03031
-0.03031
-0.03195
-0.03686
-0.04178
-0.04669
-0.05161
-0.05488
-0.05488
-0.05488
-0.05488
-0.05488
-0.05488
-0.05488
-0.05488
-0.05488
-0.05652
-0.05816
-0.05488
-0.05488
-0.05488
-0.05652
-0.05980
-0.05980
-0.05980
-0.05980
-0.05980
-0.06144
-0.06471
-0.06471
-0.06635
-0.06963
-0.06963
-0.06963
-0.06963
-0.07127
-0.07700
-0.08028
-0.08028
-0.08028
-0.08028
-0.08028
-0.07864
-0.07045
-0.05488
-0.04014
-0.02376
-0.00491
0.00819
0.01638
0.01802
0.01474
0.01474
0.01474
0.01474
0.01311
0.00491
-0.01311
-0.03522
-0.04997
-0.06471
-0.07782
-0.08847
-0.09666
-0.10321
-0.11141
-0.11632
-0.12123
-0.12533
-0.12697
-0.13025
-0.12861
-0.12533
-0.12533
-0.12533
-0.12697
-0.13025
-0.13025
-0.13025
-0.12861
-0.12533
-0.12533
-0.12533
-0.12533
-0.12369
-0.11960
-0.12123
-0.12533
-0.12533
-0.12533
-0.12369
-0.11960
-0.11878
-0.11468
-0.11468
-0.11386
-0.10731
-0.09093
-0.05734
-0.01638
0.03359
0.09912
0.18513
0.28670
0.37353
0.39401
0.33094
0.17939
-0.02539
-0.23264
-0.40876
-0.53900
-0.62338
-0.67253
-0.68809
-0.66679
-0.60126
-0.51525
-0.41203
-0.30636
-0.22199
-0.16793
-0.13434
-0.11386
-0.09666
-0.08683
-0.07864
-0.07209
-0.06471
-0.06471
-0.06389
-0.05816
-0.05488
-0.05325
-0.04997
-0.04833
-0.04669
-0.04833
-0.04505
-0.04342
-0.03850
-0.03522
-0.03359
-0.03031
-0.03031
-0.03031
-0.02867
-0.02376
-0.01966
-0.01884
-0.01474
-0.01638
-0.01966
-0.01966
-0.01884
-0.01393
-0.00983
-0.00819
-0.00491
-0.00491
-0.00491
-0.00246
0.00491
0.00491
0.00655
0.01147
0.01474
0.01474
0.01474
0.01474
0.01474
0.01474
0.01474
0.01474
0.01474
0.01474
0.01474
0.01474
0.01474
0.01474
0.01638
0.01966
0.01966
0.02130
0.02539
0.02539
0.02621
0.03031
0.03031
0.03113
0.03522
0.03522
0.03522
0.03604
0.04014
0.04014
0.04014
0.04014
0.04096
0.04669
0.04997
0.04997
0.04997
0.04997
0.04997
0.04997
0.04997
0.04997
0.05161
0.05488
0.05488
0.05488
0.05488
0.05488
0.05488
0.05488
0.05406
0.04997
0.04997
0.04997
0.05161
0.05488
0.05652
0.05980
0.05980
0.05898
0.05488
0.05488
0.05488
0.05488
0.05406
0.04997
0.05161
0.05488
0.05406
0.04997
0.04997
0.04915
0.04342
0.04014
0.04014
0.04014
0.03768
0.03031
0.02785
0.01884
0.01474
0.01229
0.00410
-0.00164
-0.00491
-0.00655
-0.00983
-0.01147
-0.01638
-0.01966
-0.01966
-0.01966
-0.02130
-0.02539
-0.02539
-0.02539
-0.02539
-0.02539
-0.02376
-0.01966
-0.02130
-0.02539
-0.02539
-0.02621
-0.02867
-0.02539
-0.02539
-0.02539
-0.02539
-0.02539
-0.02539
-0.02539
-0.02539
-0.02539
-0.02539
-0.02621
-0.03031
-0.03031
-0.03031
-0.03031
-0.03031
-0.03031
-0.03031
-0.03031
-0.03031
-0.03113
-0.03359
-0.03031
-0.03113
-0.03522
-0.03359
-0.03031
-0.03113
-0.03359
-0.03031
-0.03113
-0.03522
-0.03522
-0.03522
-0.03522
-0.03522
-0.03522
-0.03522
-0.03522
-0.03522
-0.03522
-0.03522
-0.03522
-0.03522
-0.03359
-0.02703
-0.01147
0.00328
0.01966
0.03850
0.05325
0.06635
0.06963
0.06963
0.06963
0.06963
0.06963
0.06881
0.06144
0.04669
0.03113
0.01147
-0.00246
-0.01311
-0.02703
-0.03686
-0.04587
-0.05079
-0.05488
-0.05488
-0.05488
-0.05488
-0.05488
-0.05406
-0.04997
-0.04997
-0.04915
-0.04505
-0.04505
-0.04505
-0.04505
-0.04505
-0.04587
-0.04997
-0.04997
-0.04915
-0.04505
-0.04505
-0.04423
-0.04014
-0.04014
-0.04014
-0.04014
-0.04014
-0.04014
-0.03932
-0.03522
-0.03440
-0.02703
-0.00901
0.02212
0.05816
0.10076
0.16055
0.24329
0.33995
0.43251
0.47839
0.42350
0.27524
0.06799
-0.14089
-0.31783
-0.45463
-0.54638
-0.60044
-0.62420
-0.61109
-0.55866
-0.46938
-0.35797
-0.24820
-0.16383
-0.10813
-0.07536
-0.05161
-0.03277
-0.02294
-0.01393
-0.00901
-0.00491
-0.00410
0.00000
0.00082
0.00491
0.00491
0.00573
0.00983
0.01065
0.01474
0.01474
0.01474
0.01474
0.01474
0.01474
0.01474
0.01474
0.01556
0.01966
0.01966
0.01966
0.01966
0.01966
0.01966
0.01966
0.02048
0.02539
0.02539
0.02539
0.02621
0.03031
0.03031
0.03113
0.03522
0.03522
0.03522
0.03522
0.03522
0.03522
0.03522
0.03522
0.03522
0.03522
0.03522
0.03522
0.03604
0.04014
0.04014
0.04014
0.04014
0.04014
0.04014
0.04014
0.04014
0.04014
0.04014
0.04014
0.04014
0.04014
0.04014
0.04014
0.04014
0.04014
0.04014
0.04014
0.04014
0.04096
0.04505
0.04587
0.04997
0.04997
0.04997
0.05079
0.05488
0.05406
0.04997
0.04997
0.04997
0.05079
0.05488
0.05488
0.05570
0.05980
0.05980
0.05980
0.05980
0.05898
0.05488
0.05488
0.05570
0.05980
0.05980
0.05980
0.05980
0.05980
0.05980
0.05980
0.06062
0.06471
0.06471
0.06471
0.06471
0.06471
0.06389
0.05980
0.05816
0.04915
0.04423
0.04014
0.04014
0.04014
0.03932
0.03440
0.02949
0.02457
0.01966
0.01966
0.01474
0.01393
0.00901
0.00410
-0.00082
-0.00491
-0.00573
-0.01065
-0.01556
-0.01966
-0.02048
-0.02539
-0.02539
-0.03031
-0.02949
-0.02539
-0.02457
-0.01966
-0.01966
-0.01474
-0.00983
-0.00983
-0.00983
-0.00983
-0.00983
-0.00901
-0.00491
-0.00491
-0.00573
-0.00983
-0.00983
-0.00983
-0.00983
-0.00983
-0.01065
-0.01474
-0.01474
-0.01556
-0.01966
-0.02048
-0.02539
-0.03031
-0.03031
-0.03031
-0.03031
-0.03031
-0.03522
-0.03522
-0.03522
-0.03522
-0.03522
-0.04014
-0.04096
-0.04587
-0.05079
-0.05488
-0.05488
-0.05488
-0.05406
-0.04997
-0.04997
-0.04915
-0.04505
-0.04505
-0.04505
-0.04505
-0.04505
-0.04505
-0.04505
-0.04505
-0.04587
-0.04997
-0.04997
-0.04997
-0.04997
-0.04997
-0.04997
-0.04997
-0.04997
-0.04915
-0.04423
-0.03359
-0.01802
-0.00328
0.01229
0.03195
0.04587
0.05079
0.05488
0.05488
0.04997
0.04997
0.04997
0.04915
0.03768
0.01884
0.00410
-0.00655
-0.02130
-0.03113
-0.04587
-0.05488
-0.05570
-0.06062
-0.06471
-0.06553
-0.06963
-0.06963
-0.06963
-0.06963
-0.06963
-0.06471
-0.06471
-0.06471
-0.06471
-0.05980
-0.05980
-0.06062
-0.06471
-0.06471
-0.06471
-0.06471
-0.06471
-0.05980
-0.06062
-0.06471
-0.06471
-0.05980
-0.05488
-0.05488
-0.05488
-0.04915
-0.03932
-0.02785
-0.00164
0.03359
0.07454
0.12533
0.18677
0.26786
0.36043
0.42432
0.41285
0.31537
0.13844
-0.06471
-0.24738
-0.39319
-0.49559
-0.56358
-0.60044
-0.60208
-0.55948
-0.48248
-0.38664
-0.28343
-0.19578
-0.13680
-0.09830
-0.07372
-0.05488
-0.05488
-0.04997
-0.04505
-0.04505
-0.04505
-0.04423
-0.04014
-0.04014
-0.04505
-0.04505
-0.04505
-0.04505
-0.03932
-0.03522
-0.03522
-0.03522
-0.03522
-0.03522
-0.03440
-0.03031
-0.03031
-0.03031
-0.03522
-0.03522
-0.03440
-0.03031
-0.03031
-0.03031
-0.02949
-0.02457
-0.01966
-0.01474
-0.00983
-0.00491
-0.00491
-0.00983
-0.01065
-0.01474
-0.00983
-0.00491
-0.00491
-0.00491
-0.00491
-0.00491
-0.00491
-0.00491
-0.00491
-0.00491
-0.00491
-0.00491
-0.00491
-0.00491
-0.00491
-0.00491
-0.01065
-0.01474
-0.01474
-0.01474
-0.00983
-0.00983
-0.00983
-0.01065
-0.01556
-0.01966
-0.01966
-0.01966
-0.01966
-0.01966
-0.01966
-0.01474
-0.01474
-0.00983
-0.01556
-0.01966
-0.01966
-0.01474
-0.01474
-0.00983
-0.00983
-0.00983
-0.00983
-0.00491
-0.00491
-0.00983
-0.01474
-0.01474
-0.01474
-0.00983
-0.00983
-0.00491
-0.00491
-0.00491
-0.00491
-0.00491
-0.00491
-0.00491
-0.00491
-0.00491
-0.00491
-0.00491
-0.00491
-0.00491
-0.00491
-0.00491
0.00000
0.00491
0.00491
0.00000
0.00000
0.00000
-0.00491
-0.00491
-0.00491
-0.00983
-0.01556
-0.02539
-0.03031
-0.03031
-0.03031
-0.03522
-0.04014
-0.04997
-0.05488
-0.05488
-0.05980
-0.06553
-0.07045
-0.08028
-0.08028
-0.08519
-0.09011
-0.09011
-0.09502
-0.09502
-0.09994
-0.09994
-0.09994
-0.09994
-0.09502
-0.09502
-0.09011
-0.09011
-0.09011
-0.09011
-0.08519
-0.08519
-0.08519
-0.08519
-0.08519
-0.08519
-0.08519
-0.08519
-0.08028
-0.08028
-0.08028
-0.08028
-0.08028
-0.08028
-0.08028
-0.08028
-0.08028
-0.08028
-0.08028
-0.07536
-0.07536
-0.08028
-0.08028
-0.08028
-0.08028
-0.08028
-0.08028
-0.08028
-0.08519
-0.08519
-0.08519
-0.08028
-0.08028
-0.08028
-0.08028
-0.07536
-0.06963
-0.06963
-0.06963
-0.06963
-0.06963
-0.06963
-0.06471
-0.06471
-0.06963
-0.06963
-0.06963
-0.07536
-0.06963
-0.06963
-0.06963
-0.06471
-0.05488
-0.04014
-0.02539
-0.00983
0.00491
0.02457
0.04014
0.04014
0.04014
0.04014
0.04014
0.04505
0.04997
0.04014
0.02539
0.00983
-0.00983
-0.02457
-0.03522
-0.04505
-0.04997
-0.05488
-0.05488
-0.05488
-0.05488
-0.05488
-0.05488
-0.05488
-0.05488
-0.05488
-0.05488
-0.05488
-0.05488
-0.05488
-0.05488
-0.05488
-0.05488
-0.05488
-0.05488
-0.04997
-0.04997
-0.04505
-0.04505
-0.04505
-0.04505
-0.04014
-0.04014
-0.04014
-0.04014
-0.04014
-0.04014
-0.03522
-0.03031
-0.01556
0.01393
0.05406
0.09912
0.15318
0.22281
0.31701
0.42678
0.49805
0.47101
0.33422
0.12123
-0.09338
-0.28916
-0.43579
-0.53245
-0.59307
-0.62911
-0.62502
-0.58160
-0.49805
-0.38828
-0.27360
-0.18267
-0.12205
-0.08110
-0.05570
-0.04505
-0.03031
-0.02539
-0.02048
-0.01556
-0.00983
-0.00983
-0.00491
-0.00491
0.00000
0.00000
0.00000
0.00000
0.00491
0.00491
0.00983
0.00983
0.01474
0.01474
0.01474
0.01966
0.01966
0.01966
0.01966
0.02457
0.02539
0.02539
0.02539
0.02539
0.02048
0.01966
0.01966
0.01966
0.01966
0.02457
0.02539
0.02539
0.02949
0.03031
0.03440
0.03522
0.03522
0.04014
0.04014
0.04014
0.04014
0.04014
0.04014
0.03522
0.03932
0.04014
0.04014
0.04014
0.04014
0.04014
0.04014
0.04014
0.04014
0.04014
0.04014
0.04014
0.04014
0.04014
0.04014
0.04014
0.04014
0.04014
0.04505
0.04997
0.04997
0.04505
0.04505
0.04505
0.04505
0.04014
0.04014
0.04014
0.04014
0.04505
0.04505
0.04997
0.05488
0.05488
0.04997
0.04997
0.04997
0.04997
0.04997
0.04997
0.04997
0.04997
0.05488
0.05980
0.05570
0.05488
0.05488
0.05488
0.05488
0.05488
0.05488
0.05488
0.05488
0.05488
0.05488
0.05488
0.05079
0.04997
0.04997
0.04997
0.04997
0.05488
0.05488
0.05079
0.04997
0.04997
0.04505
0.04014
0.04014
0.03522
0.03031
0.02539
0.02048
0.01556
0.01474
0.01065
0.00082
-0.00491
-0.00491
-0.00983
-0.01474
-0.01966
-0.02457
-0.02539
-0.02539
-0.02539
-0.02949
-0.03031
-0.03031
-0.03031
-0.03031
-0.03031
-0.03031
-0.03031
-0.03031
-0.03031
-0.03031
-0.03031
-0.03031
-0.03031
-0.03031
-0.02539
-0.02539
-0.02539
-0.02539
-0.02539
-0.02048
-0.02457
-0.02539
-0.02539
-0.02539
-0.02539
-0.02539
-0.02949
-0.03031
-0.03031
-0.03031
-0.03031
-0.03031
-0.03031
-0.03031
-0.03440
-0.03522
-0.03522
-0.03522
-0.03522
-0.03932
-0.04014
-0.04014
-0.03522
-0.03522
-0.03522
-0.03522
-0.03932
-0.04014
-0.04014
-0.03522
-0.03031
-0.02130
-0.00655
0.00819
0.02294
0.04260
0.05816
0.06471
0.06471
0.06062
0.06471
0.06471
0.06471
0.06062
0.04260
0.02212
0.00246
-0.01311
-0.02785
-0.03850
-0.05325
-0.05980
-0.06471
-0.06471
-0.06963
-0.07454
-0.07536
-0.07045
-0.06963
-0.06963
-0.06963
-0.06553
-0.06471
-0.06471
-0.06471
-0.06062
-0.05980
-0.05980
-0.05980
-0.05980
-0.05980
-0.05570
-0.05488
-0.05488
-0.05488
-0.05488
-0.05488
-0.05488
-0.05488
-0.05488
-0.05488
-0.05079
-0.04587
-0.03195
-0.00819
0.02539
0.06881
0.12287
0.19496
0.28261
0.37763
0.43743
0.41040
0.29244
0.11550
-0.08683
-0.27032
-0.42432
-0.53163
-0.60126
-0.63976
-0.64058
-0.58815
-0.50214
-0.39975
-0.30309
-0.20807
-0.14335
-0.10076
-0.07782
-0.05816
-0.05079
-0.04587
-0.04096
-0.03604
-0.03522
-0.03522
-0.03113
-0.03031
-0.03031
-0.03031
-0.02539
-0.02048
-0.01556
-0.01065
-0.00983
-0.00573
-0.00491
-0.00491
-0.00082
0.00000
0.00000
0.00000
0.00410
0.00491
0.00901
0.00983
0.01393
0.01474
0.01474
0.01474
0.01474
0.01474
0.01474
0.01474
0.01474
0.01474
0.01884
0.01966
0.01966
0.01966
0.01966
0.02457
0.02539
0.02539
0.02539
0.02539
0.02539
0.02539
0.02539
0.02949
0.03031
0.02621
0.02539
0.02539
0.02539
0.02539
0.02539
0.02949
0.03031
0.03031
0.03440
0.03932
0.04014
0.04014
0.04423
0.04505
0.04505
0.04096
0.04423
0.04505
0.04915
0.04997
0.05406
0.05488
0.05488
0.05079
0.05406
0.05898
0.05980
0.05980
0.06389
0.06471
0.06471
0.06471
0.06881
0.06963
0.06963
0.06963
0.07372
0.07946
0.08437
0.08929
0.09420
0.09502
0.09912
0.10403
0.10895
0.10977
0.10567
0.10485
0.10485
0.10076
0.09994
0.09584
0.09093
0.08601
0.08519
0.08519
0.08519
0.08110
0.07209
0.06553
0.05652
0.05079
0.04587
0.04096
0.03195
0.02212
0.01556
0.01065
-0.00246
-0.00901
-0.01802
-0.02785
-0.03031
-0.03440
-0.03932
-0.04833
-0.05406
-0.05898
-0.06389
-0.06471
-0.06881
-0.07372
-0.07864
-0.08028
-0.08028
-0.08028
-0.08028
-0.07618
-0.07127
-0.06963
-0.06963
-0.06963
-0.06635
-0.06881
-0.06963
-0.07372
-0.07864
-0.08028
-0.08028
-0.07618
-0.07536
-0.07536
-0.07536
-0.07864
-0.08028
-0.08028
-0.08028
-0.07618
-0.07864
-0.08028
-0.08028
-0.08028
-0.08028
-0.08028
-0.08028
-0.08028
-0.08028
-0.08028
-0.08355
-0.08929
-0.09420
-0.09502
-0.09912
-0.09994
-0.09994
-0.09994
-0.10403
-0.10485
-0.10485
-0.10485
-0.10895
-0.10977
-0.10977
-0.10977
-0.10239
-0.09584
-0.08355
-0.06799
-0.05734
-0.03522
-0.01474
-0.00573
-0.00491
-0.00491
-0.00491
-0.00491
-0.00082
-0.00410
-0.01311
-0.03031
-0.05079
-0.06635
-0.08192
-0.09666
-0.11141
-0.12287
-0.12533
-0.12861
-0.13352
-0.13516
-0.13106
-0.13025
-0.12615
-0.12533
-0.12533
-0.12533
-0.12861
-0.13025
-0.12615
-0.12533
-0.12533
-0.12533
-0.12533
-0.12533
-0.12533
-0.12533
-0.12533
-0.12533
-0.12533
-0.12533
-0.12533
-0.12533
-0.12533
-0.12123
-0.11632
-0.11141
-0.10239
-0.09256
-0.07127
-0.03850
0.00410
0.05325
0.11796
0.20315
0.31210
0.41203
0.45054
0.38336
0.21626
0.00000
-0.21380
-0.38992
-0.51689
-0.60208
-0.65369
-0.67253
-0.64877
-0.58324
-0.48985
-0.37845
-0.26704
-0.18759
-0.13598
-0.09830
-0.07536
-0.05898
-0.04751
-0.04096
-0.03604
-0.03522
-0.03113
-0.03031
-0.03031
-0.02621
-0.02539
-0.02130
-0.01966
-0.01966
-0.01638
-0.01474
-0.01474
-0.01147
-0.00983
-0.00983
-0.00655
-0.00491
-0.00491
-0.00164
0.00410
0.00901
0.01393
0.01474
0.01474
0.01474
0.01147
0.01393
0.01474
0.01474
0.01474
0.01474
0.01474
0.01474
0.01474
0.01474
0.01884
0.01966
0.02376
0.02539
0.02867
0.03031
0.03359
0.03850
0.04014
0.04014
0.04014
0.04014
0.04342
0.04096
0.04014
0.04342
0.04505
0.04505
0.04505
0.04505
0.04505
0.04505
0.04505
0.04833
0.04997
0.04997
0.04997
0.04997
0.05325
0.05488
0.05898
0.05652
0.05488
0.05488
0.05898
0.05980
0.05652
0.05488
0.05488
0.05488
0.05898
0.05980
0.05980
0.06389
0.06471
0.06471
0.06471
0.06471
0.06471
0.06471
0.06471
0.06471
0.06471
0.06471
0.06471
0.06471
0.06471
0.06471
0.06471
0.06471
0.06471
0.06881
0.06963
0.06963
0.06963
0.06963
0.06963
0.06963
0.06963
0.06963
0.06963
0.06963
0.06963
0.06635
0.06471
0.06144
0.05652
0.05161
0.04669
0.04178
0.04014
0.03686
0.03113
0.02621
0.02130
0.01638
0.01474
0.00819
0.00164
-0.00328
-0.00819
-0.01311
-0.01884
-0.02376
-0.02867
-0.03031
-0.03031
-0.03359
-0.03522
-0.03522
-0.03522
-0.03522
-0.03850
-0.04014
-0.03686
-0.03522
-0.03522
-0.03522
-0.03195
-0.03359
-0.03522
-0.03195
-0.03031
-0.03031
-0.03031
-0.03031
-0.03031
-0.03359
-0.03195
-0.03031
-0.03359
-0.03522
-0.03522
-0.03522
-0.03522
-0.03522
-0.03522
-0.03522
-0.03522
-0.03522
-0.03850
-0.04342
-0.04505
-0.04833
-0.04997
-0.05325
-0.05488
-0.05488
-0.05488
-0.05816
-0.05652
-0.05161
-0.04014
-0.02785
-0.01474
0.00000
0.01474
0.03031
0.03850
0.04014
0.03686
0.03522
0.03850
0.04014
0.03359
0.01966
0.00491
-0.00983
-0.02539
-0.03686
-0.04997
-0.05816
-0.06635
-0.07372
-0.07864
-0.08028
-0.08028
-0.08028
-0.08028
-0.08355
-0.08519
-0.08192
-0.08028
-0.08028
-0.08028
-0.08028
-0.08028
-0.08028
-0.08028
-0.07700
-0.07536
-0.07536
-0.07536
-0.07536
-0.07536
-0.07536
-0.07536
-0.07864
-0.08028
-0.08028
-0.08028
-0.08028
-0.08028
-0.07700
