0.00000
0.00200
0.00400
0.00600
0.00800
0.01000
0.01200
0.01400
0.01600
0.01800
0.02000
0.02200
0.02400
0.02600
0.02800
0.03000
0.03200
0.03400
0.03600
0.03800
0.04000
0.04200
0.04400
0.04600
0.04800
0.05000
0.05200
0.05400
0.05600
0.05800
0.06000
0.06200
0.06400
0.06600
0.06800
0.07000
0.07200
0.07400
0.07600
0.07800
0.08000
0.08200
0.08400
0.08600
0.08800
0.09000
0.09200
0.09400
0.09600
0.09800
0.10000
0.10200
0.10400
0.10600
0.10800
0.11000
0.11200
0.11400
0.11600
0.11800
0.12000
0.12200
0.12400
0.12600
0.12800
0.13000
0.13200
0.13400
0.13600
0.13800
0.14000
0.14200
0.14400
0.14600
0.14800
0.15000
0.15200
0.15400
0.15600
0.15800
0.16000
0.16200
0.16400
0.16600
0.16800
0.17000
0.17200
0.17400
0.17600
0.17800
0.18000
0.18200
0.18400
0.18600
0.18800
0.19000
0.19200
0.19400
0.19600
0.19800
0.20000
0.20200
0.20400
0.20600
0.20800
0.21000
0.21200
0.21400
0.21600
0.21800
0.22000
0.22200
0.22400
0.22600
0.22800
0.23000
0.23200
0.23400
0.23600
0.23800
0.24000
0.24200
0.24400
0.24600
0.24800
0.25000
0.25200
0.25400
0.25600
0.25800
0.26000
0.26200
0.26400
0.26600
0.26800
0.27000
0.27200
0.27400
0.27600
0.27800
0.28000
0.28200
0.28400
0.28600
0.28800
0.29000
0.29200
0.29400
0.29600
0.29800
0.30000
0.30200
0.30400
0.30600
0.30800
0.31000
0.31200
0.31400
0.31600
0.31800
0.32000
0.32200
0.32400
0.32600
0.32800
0.33000
0.33200
0.33400
0.33600
0.33800
0.34000
0.34200
0.34400
0.34600
0.34800
0.35000
0.35200
0.35400
0.35600
0.35800
0.36000
0.36200
0.36400
0.36600
0.36800
0.37000
0.37200
0.37400
0.37600
0.37800
0.38000
0.38200
0.38400
0.38600
0.38800
0.39000
0.39200
0.39400
0.39600
0.39800
0.40000
0.40200
0.40400
0.40600
0.40800
0.41000
0.41200
0.41400
0.41600
0.41800
0.42000
0.42200
0.42400
0.42600
0.42800
0.43000
0.43200
0.43400
0.43600
0.43800
0.44000
0.44200
0.44400
0.44600
0.44800
0.45000
0.45200
0.45400
0.45600
0.45800
0.46000
0.46200
0.46400
0.46600
0.46800
0.47000
0.47200
0.47400
0.47600
0.47800
0.48000
0.48200
0.48400
0.48600
0.48800
0.49000
0.49200
0.49400
0.49600
0.49800
0.50000
0.50200
0.50400
0.50600
0.50800
0.51000
0.51200
0.51400
0.51600
0.51800
0.52000
0.52200
0.52400
0.52600
0.52800
0.53000
0.53200
0.53400
0.53600
0.53800
0.54000
0.54200
0.54400
0.54600
0.54800
0.55000
0.55200
0.55400
0.55600
0.55800
0.56000
0.56200
0.56400
0.56600
0.56800
0.57000
0.57200
0.57400
0.57600
0.57800
0.58000
0.58200
0.58400
0.58600
0.58800
0.59000
0.59200
0.59400
0.59600
0.59800
0.60000
0.60200
0.60400
0.60600
0.60800
0.61000
0.61200
0.61400
0.61600
0.61800
0.62000
0.62200
0.62400
0.62600
0.62800
0.63000
0.63200
0.63400
0.63600
0.63800
0.64000
0.64200
0.64400
0.64600
0.64800
0.65000
0.65200
0.65400
0.65600
0.65800
0.66000
0.66200
0.66400
0.66600
0.66800
0.67000
0.67200
0.67400
0.67600
0.67800
0.68000
0.68200
0.68400
0.68600
0.68800
0.69000
0.69200
0.69400
0.69600
0.69800
0.70000
0.70200
0.70400
0.70600
0.70800
0.71000
0.71200
0.71400
0.71600
0.71800
0.72000
0.72200
0.72400
0.72600
0.72800
0.73000
0.73200
0.73400
0.73600
0.73800
0.74000
0.74200
0.74400
0.74600
0.74800
0.75000
0.75200
0.75400
0.75600
0.75800
0.76000
0.76200
0.76400
0.76600
0.76800
0.77000
0.77200
0.77400
0.77600
0.77800
0.78000
0.78200
0.78400
0.78600
0.78800
0.79000
0.79200
0.79400
0.79600
0.79800
0.80000
0.80200
0.80400
0.80600
0.80800
0.81000
0.81200
0.81400
0.81600
0.81800
0.82000
0.82200
0.82400
0.82600
0.82800
0.83000
0.83200
0.83400
0.83600
0.83800
0.84000
0.84200
0.84400
0.84600
0.84800
0.85000
0.85200
0.85400
0.85600
0.85800
0.86000
0.86200
0.86400
0.86600
0.86800
0.87000
0.87200
0.87400
0.87600
0.87800
0.88000
0.88200
0.88400
0.88600
0.88800
0.89000
0.89200
0.89400
0.89600
0.89800
0.90000
0.90200
0.90400
0.90600
0.90800
0.91000
0.91200
0.91400
0.91600
0.91800
0.92000
0.92200
0.92400
0.92600
0.92800
0.93000
0.93200
0.93400
0.93600
0.93800
0.94000
0.94200
0.94400
0.94600
0.94800
0.95000
0.95200
0.95400
0.95600
0.95800
0.96000
0.96200
0.96400
0.96600
0.96800
0.97000
0.97200
0.97400
0.97600
0.97800
0.98000
0.98200
0.98400
0.98600
0.98800
0.99000
0.99200
0.99400
0.99600
0.99800
1.00000
1.00200
1.00400
1.00600
1.00800
1.01000
1.01200
1.01400
1.01600
1.01800
1.02000
1.02200
1.02400
1.02600
1.02800
1.03000
1.03200
1.03400
1.03600
1.03800
1.04000
1.04200
1.04400
1.04600
1.04800
1.05000
1.05200
1.05400
1.05600
1.05800
1.06000
1.06200
1.06400
1.06600
1.06800
1.07000
1.07200
1.07400
1.07600
1.07800
1.08000
1.08200
1.08400
1.08600
1.08800
1.09000
1.09200
1.09400
1.09600
1.09800
1.10000
1.10200
1.10400
1.10600
1.10800
1.11000
1.11200
1.11400
1.11600
1.11800
1.12000
1.12200
1.12400
1.12600
1.12800
1.13000
1.13200
1.13400
1.13600
1.13800
1.14000
1.14200
1.14400
1.14600
1.14800
1.15000
1.15200
1.15400
1.15600
1.15800
1.16000
1.16200
1.16400
1.16600
1.16800
1.17000
1.17200
1.17400
1.17600
1.17800
1.18000
1.18200
1.18400
1.18600
1.18800
1.19000
1.19200
1.19400
1.19600
1.19800
1.20000
1.20200
1.20400
1.20600
1.20800
1.21000
1.21200
1.21400
1.21600
1.21800
1.22000
1.22200
1.22400
1.22600
1.22800
1.23000
1.23200
1.23400
1.23600
1.23800
1.24000
1.24200
1.24400
1.24600
1.24800
1.25000
1.25200
1.25400
1.25600
1.25800
1.26000
1.26200
1.26400
1.26600
1.26800
1.27000
1.27200
1.27400
1.27600
1.27800
1.28000
1.28200
1.28400
1.28600
1.28800
1.29000
1.29200
1.29400
1.29600
1.29800
1.30000
1.30200
1.30400
1.30600
1.30800
1.31000
1.31200
1.31400
1.31600
1.31800
1.32000
1.32200
1.32400
1.32600
1.32800
1.33000
1.33200
1.33400
1.33600
1.33800
1.34000
1.34200
1.34400
1.34600
1.34800
1.35000
1.35200
1.35400
1.35600
1.35800
1.36000
1.36200
1.36400
1.36600
1.36800
1.37000
1.37200
1.37400
1.37600
1.37800
1.38000
1.38200
1.38400
1.38600
1.38800
1.39000
1.39200
1.39400
1.39600
1.39800
1.40000
1.40200
1.40400
1.40600
1.40800
1.41000
1.41200
1.41400
1.41600
1.41800
1.42000
1.42200
1.42400
1.42600
1.42800
1.43000
1.43200
1.43400
1.43600
1.43800
1.44000
1.44200
1.44400
1.44600
1.44800
1.45000
1.45200
1.45400
1.45600
1.45800
1.46000
1.46200
1.46400
1.46600
1.46800
1.47000
1.47200
1.47400
1.47600
1.47800
1.48000
1.48200
1.48400
1.48600
1.48800
1.49000
1.49200
1.49400
1.49600
1.49800
1.50000
1.50200
1.50400
1.50600
1.50800
1.51000
1.51200
1.51400
1.51600
1.51800
1.52000
1.52200
1.52400
1.52600
1.52800
1.53000
1.53200
1.53400
1.53600
1.53800
1.54000
1.54200
1.54400
1.54600
1.54800
1.55000
1.55200
1.55400
1.55600
1.55800
1.56000
1.56200
1.56400
1.56600
1.56800
1.57000
1.57200
1.57400
1.57600
1.57800
1.58000
1.58200
1.58400
1.58600
1.58800
1.59000
1.59200
1.59400
1.59600
1.59800
1.60000
1.60200
1.60400
1.60600
1.60800
1.61000
1.61200
1.61400
1.61600
1.61800
1.62000
1.62200
1.62400
1.62600
1.62800
1.63000
1.63200
1.63400
1.63600
1.63800
1.64000
1.64200
1.64400
1.64600
1.64800
1.65000
1.65200
1.65400
1.65600
1.65800
1.66000
1.66200
1.66400
1.66600
1.66800
1.67000
1.67200
1.67400
1.67600
1.67800
1.68000
1.68200
1.68400
1.68600
1.68800
1.69000
1.69200
1.69400
1.69600
1.69800
1.70000
1.70200
1.70400
1.70600
1.70800
1.71000
1.71200
1.71400
1.71600
1.71800
1.72000
1.72200
1.72400
1.72600
1.72800
1.73000
1.73200
1.73400
1.73600
1.73800
1.74000
1.74200
1.74400
1.74600
1.74800
1.75000
1.75200
1.75400
1.75600
1.75800
1.76000
1.76200
1.76400
1.76600
1.76800
1.77000
1.77200
1.77400
1.77600
1.77800
1.78000
1.78200
1.78400
1.78600
1.78800
1.79000
1.79200
1.79400
1.79600
1.79800
1.80000
1.80200
1.80400
1.80600
1.80800
1.81000
1.81200
1.81400
1.81600
1.81800
1.82000
1.82200
1.82400
1.82600
1.82800
1.83000
1.83200
1.83400
1.83600
1.83800
1.84000
1.84200
1.84400
1.84600
1.84800
1.85000
1.85200
1.85400
1.85600
1.85800
1.86000
1.86200
1.86400
1.86600
1.86800
1.87000
1.87200
1.87400
1.87600
1.87800
1.88000
1.88200
1.88400
1.88600
1.88800
1.89000
1.89200
1.89400
1.89600
1.89800
1.90000
1.90200
1.90400
1.90600
1.90800
1.91000
1.91200
1.91400
1.91600
1.91800
1.92000
1.92200
1.92400
1.92600
1.92800
1.93000
1.93200
1.93400
1.93600
1.93800
1.94000
1.94200
1.94400
1.94600
1.94800
1.95000
1.95200
1.95400
1.95600
1.95800
1.96000
1.96200
1.96400
1.96600
1.96800
1.97000
1.97200
1.97400
1.97600
1.97800
1.98000
1.98200
1.98400
1.98600
1.98800
1.99000
1.99200
1.99400
1.99600
1.99800
2.00000
2.00200
2.00400
2.00600
2.00800
2.01000
2.01200
2.01400
2.01600
2.01800
2.02000
2.02200
2.02400
2.02600
2.02800
2.03000
2.03200
2.03400
2.03600
2.03800
2.04000
2.04200
2.04400
2.04600
2.04800
2.05000
2.05200
2.05400
2.05600
2.05800
2.06000
2.06200
2.06400
2.06600
2.06800
2.07000
2.07200
2.07400
2.07600
2.07800
2.08000
2.08200
2.08400
2.08600
2.08800
2.09000
2.09200
2.09400
2.09600
2.09800
2.10000
2.10200
2.10400
2.10600
2.10800
2.11000
2.11200
2.11400
2.11600
2.11800
2.12000
2.12200
2.12400
2.12600
2.12800
2.13000
2.13200
2.13400
2.13600
2.13800
2.14000
2.14200
2.14400
2.14600
2.14800
2.15000
2.15200
2.15400
2.15600
2.15800
2.16000
2.16200
2.16400
2.16600
2.16800
2.17000
2.17200
2.17400
2.17600
2.17800
2.18000
2.18200
2.18400
2.18600
2.18800
2.19000
2.19200
2.19400
2.19600
2.19800
2.20000
2.20200
2.20400
2.20600
2.20800
2.21000
2.21200
2.21400
2.21600
2.21800
2.22000
2.22200
2.22400
2.22600
2.22800
2.23000
2.23200
2.23400
2.23600
2.23800
2.24000
2.24200
2.24400
2.24600
2.24800
2.25000
2.25200
2.25400
2.25600
2.25800
2.26000
2.26200
2.26400
2.26600
2.26800
2.27000
2.27200
2.27400
2.27600
2.27800
2.28000
2.28200
2.28400
2.28600
2.28800
2.29000
2.29200
2.29400
2.29600
2.29800
2.30000
2.30200
2.30400
2.30600
2.30800
2.31000
2.31200
2.31400
2.31600
2.31800
2.32000
2.32200
2.32400
2.32600
2.32800
2.33000
2.33200
2.33400
2.33600
2.33800
2.34000
2.34200
2.34400
2.34600
2.34800
2.35000
2.35200
2.35400
2.35600
2.35800
2.36000
2.36200
2.36400
2.36600
2.36800
2.37000
2.37200
2.37400
2.37600
2.37800
2.38000
2.38200
2.38400
2.38600
2.38800
2.39000
2.39200
2.39400
2.39600
2.39800
2.40000
2.40200
2.40400
2.40600
2.40800
2.41000
2.41200
2.41400
2.41600
2.41800
2.42000
2.42200
2.42400
2.42600
2.42800
2.43000
2.43200
2.43400
2.43600
2.43800
2.44000
2.44200
2.44400
2.44600
2.44800
2.45000
2.45200
2.45400
2.45600
2.45800
2.46000
2.46200
2.46400
2.46600
2.46800
2.47000
2.47200
2.47400
2.47600
2.47800
2.48000
2.48200
2.48400
2.48600
2.48800
2.49000
2.49200
2.49400
2.49600
2.49800
2.50000
2.50200
2.50400
2.50600
2.50800
2.51000
2.51200
2.51400
2.51600
2.51800
2.52000
2.52200
2.52400
2.52600
2.52800
2.53000
2.53200
2.53400
2.53600
2.53800
2.54000
2.54200
2.54400
2.54600
2.54800
2.55000
2.55200
2.55400
2.55600
2.55800
2.56000
2.56200
2.56400
2.56600
2.56800
2.57000
2.57200
2.57400
2.57600
2.57800
2.58000
2.58200
2.58400
2.58600
2.58800
2.59000
2.59200
2.59400
2.59600
2.59800
2.60000
2.60200
2.60400
2.60600
2.60800
2.61000
2.61200
2.61400
2.61600
2.61800
2.62000
2.62200
2.62400
2.62600
2.62800
2.63000
2.63200
2.63400
2.63600
2.63800
2.64000
2.64200
2.64400
2.64600
2.64800
2.65000
2.65200
2.65400
2.65600
2.65800
2.66000
2.66200
2.66400
2.66600
2.66800
2.67000
2.67200
2.67400
2.67600
2.67800
2.68000
2.68200
2.68400
2.68600
2.68800
2.69000
2.69200
2.69400
2.69600
2.69800
2.70000
2.70200
2.70400
2.70600
2.70800
2.71000
2.71200
2.71400
2.71600
2.71800
2.72000
2.72200
2.72400
2.72600
2.72800
2.73000
2.73200
2.73400
2.73600
2.73800
2.74000
2.74200
2.74400
2.74600
2.74800
2.75000
2.75200
2.75400
2.75600
2.75800
2.76000
2.76200
2.76400
2.76600
2.76800
2.77000
2.77200
2.77400
2.77600
2.77800
2.78000
2.78200
2.78400
2.78600
2.78800
2.79000
2.79200
2.79400
2.79600
2.79800
2.80000
2.80200
2.80400
2.80600
2.80800
2.81000
2.81200
2.81400
2.81600
2.81800
2.82000
2.82200
2.82400
2.82600
2.82800
2.83000
2.83200
2.83400
2.83600
2.83800
2.84000
2.84200
2.84400
2.84600
2.84800
2.85000
2.85200
2.85400
2.85600
2.85800
2.86000
2.86200
2.86400
2.86600
2.86800
2.87000
2.87200
2.87400
2.87600
2.87800
2.88000
2.88200
2.88400
2.88600
2.88800
2.89000
2.89200
2.89400
2.89600
2.89800
2.90000
2.90200
2.90400
2.90600
2.90800
2.91000
2.91200
2.91400
2.91600
2.91800
2.92000
2.92200
2.92400
2.92600
2.92800
2.93000
2.93200
2.93400
2.93600
2.93800
2.94000
2.94200
2.94400
2.94600
2.94800
2.95000
2.95200
2.95400
2.95600
2.95800
2.96000
2.96200
2.96400
2.96600
2.96800
2.97000
2.97200
2.97400
2.97600
2.97800
2.98000
2.98200
2.98400
2.98600
2.98800
2.99000
2.99200
2.99400
2.99600
2.99800
3.00000
3.00200
3.00400
3.00600
3.00800
3.01000
3.01200
3.01400
3.01600
3.01800
3.02000
3.02200
3.02400
3.02600
3.02800
3.03000
3.03200
3.03400
3.03600
3.03800
3.04000
3.04200
3.04400
3.04600
3.04800
3.05000
3.05200
3.05400
3.05600
3.05800
3.06000
3.06200
3.06400
3.06600
3.06800
3.07000
3.07200
3.07400
3.07600
3.07800
3.08000
3.08200
3.08400
3.08600
3.08800
3.09000
3.09200
3.09400
3.09600
3.09800
3.10000
3.10200
3.10400
3.10600
3.10800
3.11000
3.11200
3.11400
3.11600
3.11800
3.12000
3.12200
3.12400
3.12600
3.12800
3.13000
3.13200
3.13400
3.13600
3.13800
3.14000
3.14200
3.14400
3.14600
3.14800
3.15000
3.15200
3.15400
3.15600
3.15800
3.16000
3.16200
3.16400
3.16600
3.16800
3.17000
3.17200
3.17400
3.17600
3.17800
3.18000
3.18200
3.18400
3.18600
3.18800
3.19000
3.19200
3.19400
3.19600
3.19800
3.20000
3.20200
3.20400
3.20600
3.20800
3.21000
3.21200
3.21400
3.21600
3.21800
3.22000
3.22200
3.22400
3.22600
3.22800
3.23000
3.23200
3.23400
3.23600
3.23800
3.24000
3.24200
3.24400
3.24600
3.24800
3.25000
3.25200
3.25400
3.25600
3.25800
3.26000
3.26200
3.26400
3.26600
3.26800
3.27000
3.27200
3.27400
3.27600
3.27800
3.28000
3.28200
3.28400
3.28600
3.28800
3.29000
3.29200
3.29400
3.29600
3.29800
3.30000
3.30200
3.30400
3.30600
3.30800
3.31000
3.31200
3.31400
3.31600
3.31800
3.32000
3.32200
3.32400
3.32600
3.32800
3.33000
3.33200
3.33400
3.33600
3.33800
3.34000
3.34200
3.34400
3.34600
3.34800
3.35000
3.35200
3.35400
3.35600
3.35800
3.36000
3.36200
3.36400
3.36600
3.36800
3.37000
3.37200
3.37400
3.37600
3.37800
3.38000
3.38200
3.38400
3.38600
3.38800
3.39000
3.39200
3.39400
3.39600
3.39800
3.40000
3.40200
3.40400
3.40600
3.40800
3.41000
3.41200
3.41400
3.41600
3.41800
3.42000
3.42200
3.42400
3.42600
3.42800
3.43000
3.43200
3.43400
3.43600
3.43800
3.44000
3.44200
3.44400
3.44600
3.44800
3.45000
3.45200
3.45400
3.45600
3.45800
3.46000
3.46200
3.46400
3.46600
3.46800
3.47000
3.47200
3.47400
3.47600
3.47800
3.48000
3.48200
3.48400
3.48600
3.48800
3.49000
3.49200
3.49400
3.49600
3.49800
3.50000
3.50200
3.50400
3.50600
3.50800
3.51000
3.51200
3.51400
3.51600
3.51800
3.52000
3.52200
3.52400
3.52600
3.52800
3.53000
3.53200
3.53400
3.53600
3.53800
3.54000
3.54200
3.54400
3.54600
3.54800
3.55000
3.55200
3.55400
3.55600
3.55800
3.56000
3.56200
3.56400
3.56600
3.56800
3.57000
3.57200
3.57400
3.57600
3.57800
3.58000
3.58200
3.58400
3.58600
3.58800
3.59000
3.59200
3.59400
3.59600
3.59800
3.60000
3.60200
3.60400
3.60600
3.60800
3.61000
3.61200
3.61400
3.61600
3.61800
3.62000
3.62200
3.62400
3.62600
3.62800
3.63000
3.63200
3.63400
3.63600
3.63800
3.64000
3.64200
3.64400
3.64600
3.64800
3.65000
3.65200
3.65400
3.65600
3.65800
3.66000
3.66200
3.66400
3.66600
3.66800
3.67000
3.67200
3.67400
3.67600
3.67800
3.68000
3.68200
3.68400
3.68600
3.68800
3.69000
3.69200
3.69400
3.69600
3.69800
3.70000
3.70200
3.70400
3.70600
3.70800
3.71000
3.71200
3.71400
3.71600
3.71800
3.72000
3.72200
3.72400
3.72600
3.72800
3.73000
3.73200
3.73400
3.73600
3.73800
3.74000
3.74200
3.74400
3.74600
3.74800
3.75000
3.75200
3.75400
3.75600
3.75800
3.76000
3.76200
3.76400
3.76600
3.76800
3.77000
3.77200
3.77400
3.77600
3.77800
3.78000
3.78200
3.78400
3.78600
3.78800
3.79000
3.79200
3.79400
3.79600
3.79800
3.80000
3.80200
3.80400
3.80600
3.80800
3.81000
3.81200
3.81400
3.81600
3.81800
3.82000
3.82200
3.82400
3.82600
3.82800
3.83000
3.83200
3.83400
3.83600
3.83800
3.84000
3.84200
3.84400
3.84600
3.84800
3.85000
3.85200
3.85400
3.85600
3.85800
3.86000
3.86200
3.86400
3.86600
3.86800
3.87000
3.87200
3.87400
3.87600
3.87800
3.88000
3.88200
3.88400
3.88600
3.88800
3.89000
3.89200
3.89400
3.89600
3.89800
3.90000
3.90200
3.90400
3.90600
3.90800
3.91000
3.91200
3.91400
3.91600
3.91800
3.92000
3.92200
3.92400
3.92600
3.92800
3.93000
3.93200
3.93400
3.93600
3.93800
3.94000
3.94200
3.94400
3.94600
3.94800
3.95000
3.95200
3.95400
3.95600
3.95800
3.96000
3.96200
3.96400
3.96600
3.96800
3.97000
3.97200
3.97400
3.97600
3.97800
3.98000
3.98200
3.98400
3.98600
3.98800
3.99000
3.99200
3.99400
3.99600
3.99800
4.00000
4.00200
4.00400
4.00600
4.00800
4.01000
4.01200
4.01400
4.01600
4.01800
4.02000
4.02200
4.02400
4.02600
4.02800
4.03000
4.03200
4.03400
4.03600
4.03800
4.04000
4.04200
4.04400
4.04600
4.04800
4.05000
4.05200
4.05400
4.05600
4.05800
4.06000
4.06200
4.06400
4.06600
4.06800
4.07000
4.07200
4.07400
4.07600
4.07800
4.08000
4.08200
4.08400
4.08600
4.08800
4.09000
4.09200
4.09400
4.09600
4.09800
4.10000
4.10200
4.10400
4.10600
4.10800
4.11000
4.11200
4.11400
4.11600
4.11800
4.12000
4.12200
4.12400
4.12600
4.12800
4.13000
4.13200
4.13400
4.13600
4.13800
4.14000
4.14200
4.14400
4.14600
4.14800
4.15000
4.15200
4.15400
4.15600
4.15800
4.16000
4.16200
4.16400
4.16600
4.16800
4.17000
4.17200
4.17400
4.17600
4.17800
4.18000
4.18200
4.18400
4.18600
4.18800
4.19000
4.19200
4.19400
4.19600
4.19800
4.20000
4.20200
4.20400
4.20600
4.20800
4.21000
4.21200
4.21400
4.21600
4.21800
4.22000
4.22200
4.22400
4.22600
4.22800
4.23000
4.23200
4.23400
4.23600
4.23800
4.24000
4.24200
4.24400
4.24600
4.24800
4.25000
4.25200
4.25400
4.25600
4.25800
4.26000
4.26200
4.26400
4.26600
4.26800
4.27000
4.27200
4.27400
4.27600
4.27800
4.28000
4.28200
4.28400
4.28600
4.28800
4.29000
4.29200
4.29400
4.29600
4.29800
4.30000
4.30200
4.30400
4.30600
4.30800
4.31000
4.31200
4.31400
4.31600
4.31800
4.32000
4.32200
4.32400
4.32600
4.32800
4.33000
4.33200
4.33400
4.33600
4.33800
4.34000
4.34200
4.34400
4.34600
4.34800
4.35000
4.35200
4.35400
4.35600
4.35800
4.36000
4.36200
4.36400
4.36600
4.36800
4.37000
4.37200
4.37400
4.37600
4.37800
4.38000
4.38200
4.38400
4.38600
4.38800
4.39000
4.39200
4.39400
4.39600
4.39800
4.40000
4.40200
4.40400
4.40600
4.40800
4.41000
4.41200
4.41400
4.41600
4.41800
4.42000
4.42200
4.42400
4.42600
4.42800
4.43000
4.43200
4.43400
4.43600
4.43800
4.44000
4.44200
4.44400
4.44600
4.44800
4.45000
4.45200
4.45400
4.45600
4.45800
4.46000
4.46200
4.46400
4.46600
4.46800
4.47000
4.47200
4.47400
4.47600
4.47800
4.48000
4.48200
4.48400
4.48600
4.48800
4.49000
4.49200
4.49400
4.49600
4.49800
4.50000
4.50200
4.50400
4.50600
4.50800
4.51000
4.51200
4.51400
4.51600
4.51800
4.52000
4.52200
4.52400
4.52600
4.52800
4.53000
4.53200
4.53400
4.53600
4.53800
4.54000
4.54200
4.54400
4.54600
4.54800
4.55000
4.55200
4.55400
4.55600
4.55800
4.56000
4.56200
4.56400
4.56600
4.56800
4.57000
4.57200
4.57400
4.57600
4.57800
4.58000
4.58200
4.58400
4.58600
4.58800
4.59000
4.59200
4.59400
4.59600
4.59800
4.60000
4.60200
4.60400
4.60600
4.60800
4.61000
4.61200
4.61400
4.61600
4.61800
4.62000
4.62200
4.62400
4.62600
4.62800
4.63000
4.63200
4.63400
4.63600
4.63800
4.64000
4.64200
4.64400
4.64600
4.64800
4.65000
4.65200
4.65400
4.65600
4.65800
4.66000
4.66200
4.66400
4.66600
4.66800
4.67000
4.67200
4.67400
4.67600
4.67800
4.68000
4.68200
4.68400
4.68600
4.68800
4.69000
4.69200
4.69400
4.69600
4.69800
4.70000
4.70200
4.70400
4.70600
4.70800
4.71000
4.71200
4.71400
4.71600
4.71800
4.72000
4.72200
4.72400
4.72600
4.72800
4.73000
4.73200
4.73400
4.73600
4.73800
4.74000
4.74200
4.74400
4.74600
4.74800
4.75000
4.75200
4.75400
4.75600
4.75800
4.76000
4.76200
4.76400
4.76600
4.76800
4.77000
4.77200
4.77400
4.77600
4.77800
4.78000
4.78200
4.78400
4.78600
4.78800
4.79000
4.79200
4.79400
4.79600
4.79800
4.80000
4.80200
4.80400
4.80600
4.80800
4.81000
4.81200
4.81400
4.81600
4.81800
4.82000
4.82200
4.82400
4.82600
4.82800
4.83000
4.83200
4.83400
4.83600
4.83800
4.84000
4.84200
4.84400
4.84600
4.84800
4.85000
4.85200
4.85400
4.85600
4.85800
4.86000
4.86200
4.86400
4.86600
4.86800
4.87000
4.87200
4.87400
4.87600
4.87800
4.88000
4.88200
4.88400
4.88600
4.88800
4.89000
4.89200
4.89400
4.89600
4.89800
4.90000
4.90200
4.90400
4.90600
4.90800
4.91000
4.91200
4.91400
4.91600
4.91800
4.92000
4.92200
4.92400
4.92600
4.92800
4.93000
4.93200
4.93400
4.93600
4.93800
4.94000
4.94200
4.94400
4.94600
4.94800
4.95000
4.95200
4.95400
4.95600
4.95800
4.96000
4.96200
4.96400
4.96600
4.96800
4.97000
4.97200
4.97400
4.97600
4.97800
4.98000
4.98200
4.98400
4.98600
4.98800
4.99000
4.99200
4.99400
4.99600
4.99800
5.00000
5.00200
5.00400
5.00600
5.00800
5.01000
5.01200
5.01400
5.01600
5.01800
5.02000
5.02200
5.02400
5.02600
5.02800
5.03000
5.03200
5.03400
5.03600
5.03800
5.04000
5.04200
5.04400
5.04600
5.04800
5.05000
5.05200
5.05400
5.05600
5.05800
5.06000
5.06200
5.06400
5.06600
5.06800
5.07000
5.07200
5.07400
5.07600
5.07800
5.08000
5.08200
5.08400
5.08600
5.08800
5.09000
5.09200
5.09400
5.09600
5.09800
5.10000
5.10200
5.10400
5.10600
5.10800
5.11000
5.11200
5.11400
5.11600
5.11800
5.12000
5.12200
5.12400
5.12600
5.12800
5.13000
5.13200
5.13400
5.13600
5.13800
5.14000
5.14200
5.14400
5.14600
5.14800
5.15000
5.15200
5.15400
5.15600
5.15800
5.16000
5.16200
5.16400
5.16600
5.16800
5.17000
5.17200
5.17400
5.17600
5.17800
5.18000
5.18200
5.18400
5.18600
5.18800
5.19000
5.19200
5.19400
5.19600
5.19800
5.20000
5.20200
5.20400
5.20600
5.20800
5.21000
5.21200
5.21400
5.21600
5.21800
5.22000
5.22200
5.22400
5.22600
5.22800
5.23000
5.23200
5.23400
5.23600
5.23800
5.24000
5.24200
5.24400
5.24600
5.24800
5.25000
5.25200
5.25400
5.25600
5.25800
5.26000
5.26200
5.26400
5.26600
5.26800
5.27000
5.27200
5.27400
5.27600
5.27800
5.28000
5.28200
5.28400
5.28600
5.28800
5.29000
5.29200
5.29400
5.29600
5.29800
5.30000
5.30200
5.30400
5.30600
5.30800
5.31000
5.31200
5.31400
5.31600
5.31800
5.32000
5.32200
5.32400
5.32600
5.32800
5.33000
5.33200
5.33400
5.33600
5.33800
5.34000
5.34200
5.34400
5.34600
5.34800
5.35000
5.35200
5.35400
5.35600
5.35800
5.36000
5.36200
5.36400
5.36600
5.36800
5.37000
5.37200
5.37400
5.37600
5.37800
5.38000
5.38200
5.38400
5.38600
5.38800
5.39000
5.39200
5.39400
5.39600
5.39800
5.40000
5.40200
5.40400
5.40600
5.40800
5.41000
5.41200
5.41400
5.41600
5.41800
5.42000
5.42200
5.42400
5.42600
5.42800
5.43000
5.43200
5.43400
5.43600
5.43800
5.44000
5.44200
5.44400
5.44600
5.44800
5.45000
5.45200
5.45400
5.45600
5.45800
5.46000
5.46200
5.46400
5.46600
5.46800
5.47000
5.47200
5.47400
5.47600
5.47800
5.48000
5.48200
5.48400
5.48600
5.48800
5.49000
5.49200
5.49400
5.49600
5.49800
5.50000
5.50200
5.50400
5.50600
5.50800
5.51000
5.51200
5.51400
5.51600
5.51800
5.52000
5.52200
5.52400
5.52600
5.52800
5.53000
5.53200
5.53400
5.53600
5.53800
5.54000
5.54200
5.54400
5.54600
5.54800
5.55000
5.55200
5.55400
5.55600
5.55800
5.56000
5.56200
5.56400
5.56600
5.56800
5.57000
5.57200
5.57400
5.57600
5.57800
5.58000
5.58200
5.58400
5.58600
5.58800
5.59000
5.59200
5.59400
5.59600
5.59800
5.60000
5.60200
5.60400
5.60600
5.60800
5.61000
5.61200
5.61400
5.61600
5.61800
5.62000
5.62200
5.62400
5.62600
5.62800
5.63000
5.63200
5.63400
5.63600
5.63800
5.64000
5.64200
5.64400
5.64600
5.64800
5.65000
5.65200
5.65400
5.65600
5.65800
5.66000
5.66200
5.66400
5.66600
5.66800
5.67000
5.67200
5.67400
5.67600
5.67800
5.68000
5.68200
5.68400
5.68600
5.68800
5.69000
5.69200
5.69400
5.69600
5.69800
5.70000
5.70200
5.70400
5.70600
5.70800
5.71000
5.71200
5.71400
5.71600
5.71800
5.72000
5.72200
5.72400
5.72600
5.72800
5.73000
5.73200
5.73400
5.73600
5.73800
5.74000
5.74200
5.74400
5.74600
5.74800
5.75000
5.75200
5.75400
5.75600
5.75800
5.76000
5.76200
5.76400
5.76600
5.76800
5.77000
5.77200
5.77400
5.77600
5.77800
5.78000
5.78200
5.78400
5.78600
5.78800
5.79000
5.79200
5.79400
5.79600
5.79800
5.80000
5.80200
5.80400
5.80600
5.80800
5.81000
5.81200
5.81400
5.81600
5.81800
5.82000
5.82200
5.82400
5.82600
5.82800
5.83000
5.83200
5.83400
5.83600
5.83800
5.84000
5.84200
5.84400
5.84600
5.84800
5.85000
5.85200
5.85400
5.85600
5.85800
5.86000
5.86200
5.86400
5.86600
5.86800
5.87000
5.87200
5.87400
5.87600
5.87800
5.88000
5.88200
5.88400
5.88600
5.88800
5.89000
5.89200
5.89400
5.89600
5.89800
5.90000
5.90200
5.90400
5.90600
5.90800
5.91000
5.91200
5.91400
5.91600
5.91800
5.92000
5.92200
5.92400
5.92600
5.92800
5.93000
5.93200
5.93400
5.93600
5.93800
5.94000
5.94200
5.94400
5.94600
5.94800
5.95000
5.95200
5.95400
5.95600
5.95800
5.96000
5.96200
5.96400
5.96600
5.96800
5.97000
5.97200
5.97400
5.97600
5.97800
5.98000
5.98200
5.98400
5.98600
5.98800
5.99000
5.99200
5.99400
5.99600
5.99800
6.00000
6.00200
6.00400
6.00600
6.00800
6.01000
6.01200
6.01400
6.01600
6.01800
6.02000
6.02200
6.02400
6.02600
6.02800
6.03000
6.03200
6.03400
6.03600
6.03800
6.04000
6.04200
6.04400
6.04600
6.04800
6.05000
6.05200
6.05400
6.05600
6.05800
6.06000
6.06200
6.06400
6.06600
6.06800
6.07000
6.07200
6.07400
6.07600
6.07800
6.08000
6.08200
6.08400
6.08600
6.08800
6.09000
6.09200
6.09400
6.09600
6.09800
6.10000
6.10200
6.10400
6.10600
6.10800
6.11000
6.11200
6.11400
6.11600
6.11800
6.12000
6.12200
6.12400
6.12600
6.12800
6.13000
6.13200
6.13400
6.13600
6.13800
6.14000
6.14200
6.14400
6.14600
6.14800
6.15000
6.15200
6.15400
6.15600
6.15800
6.16000
6.16200
6.16400
6.16600
6.16800
6.17000
6.17200
6.17400
6.17600
6.17800
6.18000
6.18200
6.18400
6.18600
6.18800
6.19000
6.19200
6.19400
6.19600
6.19800
6.20000
6.20200
6.20400
6.20600
6.20800
6.21000
6.21200
6.21400
6.21600
6.21800
6.22000
6.22200
6.22400
6.22600
6.22800
6.23000
6.23200
6.23400
6.23600
6.23800
6.24000
6.24200
6.24400
6.24600
6.24800
6.25000
6.25200
6.25400
6.25600
6.25800
6.26000
6.26200
6.26400
6.26600
6.26800
6.27000
6.27200
6.27400
6.27600
6.27800
6.28000
6.28200
6.28400
6.28600
6.28800
6.29000
6.29200
6.29400
6.29600
6.29800
6.30000
6.30200
6.30400
6.30600
6.30800
6.31000
6.31200
6.31400
6.31600
6.31800
6.32000
6.32200
6.32400
6.32600
6.32800
6.33000
6.33200
6.33400
6.33600
6.33800
6.34000
6.34200
6.34400
6.34600
6.34800
6.35000
6.35200
6.35400
6.35600
6.35800
6.36000
6.36200
6.36400
6.36600
6.36800
6.37000
6.37200
6.37400
6.37600
6.37800
6.38000
6.38200
6.38400
6.38600
6.38800
6.39000
6.39200
6.39400
6.39600
6.39800
6.40000
6.40200
6.40400
6.40600
6.40800
6.41000
6.41200
6.41400
6.41600
6.41800
6.42000
6.42200
6.42400
6.42600
6.42800
6.43000
6.43200
6.43400
6.43600
6.43800
6.44000
6.44200
6.44400
6.44600
6.44800
6.45000
6.45200
6.45400
6.45600
6.45800
6.46000
6.46200
6.46400
6.46600
6.46800
6.47000
6.47200
6.47400
6.47600
6.47800
6.48000
6.48200
6.48400
6.48600
6.48800
6.49000
6.49200
6.49400
6.49600
6.49800
6.50000
6.50200
6.50400
6.50600
6.50800
6.51000
6.51200
6.51400
6.51600
6.51800
6.52000
6.52200
6.52400
6.52600
6.52800
6.53000
6.53200
6.53400
6.53600
6.53800
6.54000
6.54200
6.54400
6.54600
6.54800
6.55000
6.55200
6.55400
6.55600
6.55800
6.56000
6.56200
6.56400
6.56600
6.56800
6.57000
6.57200
6.57400
6.57600
6.57800
6.58000
6.58200
6.58400
6.58600
6.58800
6.59000
6.59200
6.59400
6.59600
6.59800
6.60000
6.60200
6.60400
6.60600
6.60800
6.61000
6.61200
6.61400
6.61600
6.61800
6.62000
6.62200
6.62400
6.62600
6.62800
6.63000
6.63200
6.63400
6.63600
6.63800
6.64000
6.64200
6.64400
6.64600
6.64800
6.65000
6.65200
6.65400
6.65600
6.65800
6.66000
6.66200
6.66400
6.66600
6.66800
6.67000
6.67200
6.67400
6.67600
6.67800
6.68000
6.68200
6.68400
6.68600
6.68800
6.69000
6.69200
6.69400
6.69600
6.69800
6.70000
6.70200
6.70400
6.70600
6.70800
6.71000
6.71200
6.71400
6.71600
6.71800
6.72000
6.72200
6.72400
6.72600
6.72800
6.73000
6.73200
6.73400
6.73600
6.73800
6.74000
6.74200
6.74400
6.74600
6.74800
6.75000
6.75200
6.75400
6.75600
6.75800
6.76000
6.76200
6.76400
6.76600
6.76800
6.77000
6.77200
6.77400
6.77600
6.77800
6.78000
6.78200
6.78400
6.78600
6.78800
6.79000
6.79200
6.79400
6.79600
6.79800
6.80000
6.80200
6.80400
6.80600
6.80800
6.81000
6.81200
6.81400
6.81600
6.81800
6.82000
6.82200
6.82400
6.82600
6.82800
6.83000
6.83200
6.83400
6.83600
6.83800
6.84000
6.84200
6.84400
6.84600
6.84800
6.85000
6.85200
6.85400
6.85600
6.85800
6.86000
6.86200
6.86400
6.86600
6.86800
6.87000
6.87200
6.87400
6.87600
6.87800
6.88000
6.88200
6.88400
6.88600
6.88800
6.89000
6.89200
6.89400
6.89600
6.89800
6.90000
6.90200
6.90400
6.90600
6.90800
6.91000
6.91200
6.91400
6.91600
6.91800
6.92000
6.92200
6.92400
6.92600
6.92800
6.93000
6.93200
6.93400
6.93600
6.93800
6.94000
6.94200
6.94400
6.94600
6.94800
6.95000
6.95200
6.95400
6.95600
6.95800
6.96000
6.96200
6.96400
6.96600
6.96800
6.97000
6.97200
6.97400
6.97600
6.97800
6.98000
6.98200
6.98400
6.98600
6.98800
6.99000
6.99200
6.99400
6.99600
6.99800
7.00000
7.00200
7.00400
7.00600
7.00800
7.01000
7.01200
7.01400
7.01600
7.01800
7.02000
7.02200
7.02400
7.02600
7.02800
7.03000
7.03200
7.03400
7.03600
7.03800
7.04000
7.04200
7.04400
7.04600
7.04800
7.05000
7.05200
7.05400
7.05600
7.05800
7.06000
7.06200
7.06400
7.06600
7.06800
7.07000
7.07200
7.07400
7.07600
7.07800
7.08000
7.08200
7.08400
7.08600
7.08800
7.09000
7.09200
7.09400
7.09600
7.09800
7.10000
7.10200
7.10400
7.10600
7.10800
7.11000
7.11200
7.11400
7.11600
7.11800
7.12000
7.12200
7.12400
7.12600
7.12800
7.13000
7.13200
7.13400
7.13600
7.13800
7.14000
7.14200
7.14400
7.14600
7.14800
7.15000
7.15200
7.15400
7.15600
7.15800
7.16000
7.16200
7.16400
7.16600
7.16800
7.17000
7.17200
7.17400
7.17600
7.17800
7.18000
7.18200
7.18400
7.18600
7.18800
7.19000
7.19200
7.19400
7.19600
7.19800
7.20000
7.20200
7.20400
7.20600
7.20800
7.21000
7.21200
7.21400
7.21600
7.21800
7.22000
7.22200
7.22400
7.22600
7.22800
7.23000
7.23200
7.23400
7.23600
7.23800
7.24000
7.24200
7.24400
7.24600
7.24800
7.25000
7.25200
7.25400
7.25600
7.25800
7.26000
7.26200
7.26400
7.26600
7.26800
7.27000
7.27200
7.27400
7.27600
7.27800
7.28000
7.28200
7.28400
7.28600
7.28800
7.29000
7.29200
7.29400
7.29600
7.29800
7.30000
7.30200
7.30400
7.30600
7.30800
7.31000
7.31200
7.31400
7.31600
7.31800
7.32000
7.32200
7.32400
7.32600
7.32800
7.33000
7.33200
7.33400
7.33600
7.33800
7.34000
7.34200
7.34400
7.34600
7.34800
7.35000
7.35200
7.35400
7.35600
7.35800
7.36000
7.36200
7.36400
7.36600
7.36800
7.37000
7.37200
7.37400
7.37600
7.37800
7.38000
7.38200
7.38400
7.38600
7.38800
7.39000
7.39200
7.39400
7.39600
7.39800
7.40000
7.40200
7.40400
7.40600
7.40800
7.41000
7.41200
7.41400
7.41600
7.41800
7.42000
7.42200
7.42400
7.42600
7.42800
7.43000
7.43200
7.43400
7.43600
7.43800
7.44000
7.44200
7.44400
7.44600
7.44800
7.45000
7.45200
7.45400
7.45600
7.45800
7.46000
7.46200
7.46400
7.46600
7.46800
7.47000
7.47200
7.47400
7.47600
7.47800
7.48000
7.48200
7.48400
7.48600
7.48800
7.49000
7.49200
7.49400
7.49600
7.49800
7.50000
7.50200
7.50400
7.50600
7.50800
7.51000
7.51200
7.51400
7.51600
7.51800
7.52000
7.52200
7.52400
7.52600
7.52800
7.53000
7.53200
7.53400
7.53600
7.53800
7.54000
7.54200
7.54400
7.54600
7.54800
7.55000
7.55200
7.55400
7.55600
7.55800
7.56000
7.56200
7.56400
7.56600
7.56800
7.57000
7.57200
7.57400
7.57600
7.57800
7.58000
7.58200
7.58400
7.58600
7.58800
7.59000
7.59200
7.59400
7.59600
7.59800
7.60000
7.60200
7.60400
7.60600
7.60800
7.61000
7.61200
7.61400
7.61600
7.61800
7.62000
7.62200
7.62400
7.62600
7.62800
7.63000
7.63200
7.63400
7.63600
7.63800
7.64000
7.64200
7.64400
7.64600
7.64800
7.65000
7.65200
7.65400
7.65600
7.65800
7.66000
7.66200
7.66400
7.66600
7.66800
7.67000
7.67200
7.67400
7.67600
7.67800
7.68000
7.68200
7.68400
7.68600
7.68800
7.69000
7.69200
7.69400
7.69600
7.69800
7.70000
7.70200
7.70400
7.70600
7.70800
7.71000
7.71200
7.71400
7.71600
7.71800
7.72000
7.72200
7.72400
7.72600
7.72800
7.73000
7.73200
7.73400
7.73600
7.73800
7.74000
7.74200
7.74400
7.74600
7.74800
7.75000
7.75200
7.75400
7.75600
7.75800
7.76000
7.76200
7.76400
7.76600
7.76800
7.77000
7.77200
7.77400
7.77600
7.77800
7.78000
7.78200
7.78400
7.78600
7.78800
7.79000
7.79200
7.79400
7.79600
7.79800
7.80000
7.80200
7.80400
7.80600
7.80800
7.81000
7.81200
7.81400
7.81600
7.81800
7.82000
7.82200
7.82400
7.82600
7.82800
7.83000
7.83200
7.83400
7.83600
7.83800
7.84000
7.84200
7.84400
7.84600
7.84800
7.85000
7.85200
7.85400
7.85600
7.85800
7.86000
7.86200
7.86400
7.86600
7.86800
7.87000
7.87200
7.87400
7.87600
7.87800
7.88000
7.88200
7.88400
7.88600
7.88800
7.89000
7.89200
7.89400
7.89600
7.89800
7.90000
7.90200
7.90400
7.90600
7.90800
7.91000
7.91200
7.91400
7.91600
7.91800
7.92000
7.92200
7.92400
7.92600
7.92800
7.93000
7.93200
7.93400
7.93600
7.93800
7.94000
7.94200
7.94400
7.94600
7.94800
7.95000
7.95200
7.95400
7.95600
7.95800
7.96000
7.96200
7.96400
7.96600
7.96800
7.97000
7.97200
7.97400
7.97600
7.97800
7.98000
7.98200
7.98400
7.98600
7.98800
7.99000
7.99200
7.99400
7.99600
7.99800
8.00000
8.00200
8.00400
8.00600
8.00800
8.01000
8.01200
8.01400
8.01600
8.01800
8.02000
8.02200
8.02400
8.02600
8.02800
8.03000
8.03200
8.03400
8.03600
8.03800
8.04000
8.04200
8.04400
8.04600
8.04800
8.05000
8.05200
8.05400
8.05600
8.05800
8.06000
8.06200
8.06400
8.06600
8.06800
8.07000
8.07200
8.07400
8.07600
8.07800
8.08000
8.08200
8.08400
8.08600
8.08800
8.09000
8.09200
8.09400
8.09600
8.09800
8.10000
8.10200
8.10400
8.10600
8.10800
8.11000
8.11200
8.11400
8.11600
8.11800
8.12000
8.12200
8.12400
8.12600
8.12800
8.13000
8.13200
8.13400
8.13600
8.13800
8.14000
8.14200
8.14400
8.14600
8.14800
8.15000
8.15200
8.15400
8.15600
8.15800
8.16000
8.16200
8.16400
8.16600
8.16800
8.17000
8.17200
8.17400
8.17600
8.17800
8.18000
8.18200
8.18400
8.18600
8.18800
8.19000
8.19200
8.19400
8.19600
8.19800
8.20000
8.20200
8.20400
8.20600
8.20800
8.21000
8.21200
8.21400
8.21600
8.21800
8.22000
8.22200
8.22400
8.22600
8.22800
8.23000
8.23200
8.23400
8.23600
8.23800
8.24000
8.24200
8.24400
8.24600
8.24800
8.25000
8.25200
8.25400
8.25600
8.25800
8.26000
8.26200
8.26400
8.26600
8.26800
8.27000
8.27200
8.27400
8.27600
8.27800
8.28000
8.28200
8.28400
8.28600
8.28800
8.29000
8.29200
8.29400
8.29600
8.29800
8.30000
8.30200
8.30400
8.30600
8.30800
8.31000
8.31200
8.31400
8.31600
8.31800
8.32000
8.32200
8.32400
8.32600
8.32800
8.33000
8.33200
8.33400
8.33600
8.33800
8.34000
8.34200
8.34400
8.34600
8.34800
8.35000
8.35200
8.35400
8.35600
8.35800
8.36000
8.36200
8.36400
8.36600
8.36800
8.37000
8.37200
8.37400
8.37600
8.37800
8.38000
8.38200
8.38400
8.38600
8.38800
8.39000
8.39200
8.39400
8.39600
8.39800
8.40000
8.40200
8.40400
8.40600
8.40800
8.41000
8.41200
8.41400
8.41600
8.41800
8.42000
8.42200
8.42400
8.42600
8.42800
8.43000
8.43200
8.43400
8.43600
8.43800
8.44000
8.44200
8.44400
8.44600
8.44800
8.45000
8.45200
8.45400
8.45600
8.45800
8.46000
8.46200
8.46400
8.46600
8.46800
8.47000
8.47200
8.47400
8.47600
8.47800
8.48000
8.48200
8.48400
8.48600
8.48800
8.49000
8.49200
8.49400
8.49600
8.49800
8.50000
8.50200
8.50400
8.50600
8.50800
8.51000
8.51200
8.51400
8.51600
8.51800
8.52000
8.52200
8.52400
8.52600
8.52800
8.53000
8.53200
8.53400
8.53600
8.53800
8.54000
8.54200
8.54400
8.54600
8.54800
8.55000
8.55200
8.55400
8.55600
8.55800
8.56000
8.56200
8.56400
8.56600
8.56800
8.57000
8.57200
8.57400
8.57600
8.57800
8.58000
8.58200
8.58400
8.58600
8.58800
8.59000
8.59200
8.59400
8.59600
8.59800
8.60000
8.60200
8.60400
8.60600
8.60800
8.61000
8.61200
8.61400
8.61600
8.61800
8.62000
8.62200
8.62400
8.62600
8.62800
8.63000
8.63200
8.63400
8.63600
8.63800
8.64000
8.64200
8.64400
8.64600
8.64800
8.65000
8.65200
8.65400
8.65600
8.65800
8.66000
8.66200
8.66400
8.66600
8.66800
8.67000
8.67200
8.67400
8.67600
8.67800
8.68000
8.68200
8.68400
8.68600
8.68800
8.69000
8.69200
8.69400
8.69600
8.69800
8.70000
8.70200
8.70400
8.70600
8.70800
8.71000
8.71200
8.71400
8.71600
8.71800
8.72000
8.72200
8.72400
8.72600
8.72800
8.73000
8.73200
8.73400
8.73600
8.73800
8.74000
8.74200
8.74400
8.74600
8.74800
8.75000
8.75200
8.75400
8.75600
8.75800
8.76000
8.76200
8.76400
8.76600
8.76800
8.77000
8.77200
8.77400
8.77600
8.77800
8.78000
8.78200
8.78400
8.78600
8.78800
8.79000
8.79200
8.79400
8.79600
8.79800
8.80000
8.80200
8.80400
8.80600
8.80800
8.81000
8.81200
8.81400
8.81600
8.81800
8.82000
8.82200
8.82400
8.82600
8.82800
8.83000
8.83200
8.83400
8.83600
8.83800
8.84000
8.84200
8.84400
8.84600
8.84800
8.85000
8.85200
8.85400
8.85600
8.85800
8.86000
8.86200
8.86400
8.86600
8.86800
8.87000
8.87200
8.87400
8.87600
8.87800
8.88000
8.88200
8.88400
8.88600
8.88800
8.89000
8.89200
8.89400
8.89600
8.89800
8.90000
8.90200
8.90400
8.90600
8.90800
8.91000
8.91200
8.91400
8.91600
8.91800
8.92000
8.92200
8.92400
8.92600
8.92800
8.93000
8.93200
8.93400
8.93600
8.93800
8.94000
8.94200
8.94400
8.94600
8.94800
8.95000
8.95200
8.95400
8.95600
8.95800
8.96000
8.96200
8.96400
8.96600
8.96800
8.97000
8.97200
8.97400
8.97600
8.97800
8.98000
8.98200
8.98400
8.98600
8.98800
8.99000
8.99200
8.99400
8.99600
8.99800
9.00000
9.00200
9.00400
9.00600
9.00800
9.01000
9.01200
9.01400
9.01600
9.01800
9.02000
9.02200
9.02400
9.02600
9.02800
9.03000
9.03200
9.03400
9.03600
9.03800
9.04000
9.04200
9.04400
9.04600
9.04800
9.05000
9.05200
9.05400
9.05600
9.05800
9.06000
9.06200
9.06400
9.06600
9.06800
9.07000
9.07200
9.07400
9.07600
9.07800
9.08000
9.08200
9.08400
9.08600
9.08800
9.09000
9.09200
9.09400
9.09600
9.09800
9.10000
9.10200
9.10400
9.10600
9.10800
9.11000
9.11200
9.11400
9.11600
9.11800
9.12000
9.12200
9.12400
9.12600
9.12800
9.13000
9.13200
9.13400
9.13600
9.13800
9.14000
9.14200
9.14400
9.14600
9.14800
9.15000
9.15200
9.15400
9.15600
9.15800
9.16000
9.16200
9.16400
9.16600
9.16800
9.17000
9.17200
9.17400
9.17600
9.17800
9.18000
9.18200
9.18400
9.18600
9.18800
9.19000
9.19200
9.19400
9.19600
9.19800
9.20000
9.20200
9.20400
9.20600
9.20800
9.21000
9.21200
9.21400
9.21600
9.21800
9.22000
9.22200
9.22400
9.22600
9.22800
9.23000
9.23200
9.23400
9.23600
9.23800
9.24000
9.24200
9.24400
9.24600
9.24800
9.25000
9.25200
9.25400
9.25600
9.25800
9.26000
9.26200
9.26400
9.26600
9.26800
9.27000
9.27200
9.27400
9.27600
9.27800
9.28000
9.28200
9.28400
9.28600
9.28800
9.29000
9.29200
9.29400
9.29600
9.29800
9.30000
9.30200
9.30400
9.30600
9.30800
9.31000
9.31200
9.31400
9.31600
9.31800
9.32000
9.32200
9.32400
9.32600
9.32800
9.33000
9.33200
9.33400
9.33600
9.33800
9.34000
9.34200
9.34400
9.34600
9.34800
9.35000
9.35200
9.35400
9.35600
9.35800
9.36000
9.36200
9.36400
9.36600
9.36800
9.37000
9.37200
9.37400
9.37600
9.37800
9.38000
9.38200
9.38400
9.38600
9.38800
9.39000
9.39200
9.39400
9.39600
9.39800
9.40000
9.40200
9.40400
9.40600
9.40800
9.41000
9.41200
9.41400
9.41600
9.41800
9.42000
9.42200
9.42400
9.42600
9.42800
9.43000
9.43200
9.43400
9.43600
9.43800
9.44000
9.44200
9.44400
9.44600
9.44800
9.45000
9.45200
9.45400
9.45600
9.45800
9.46000
9.46200
9.46400
9.46600
9.46800
9.47000
9.47200
9.47400
9.47600
9.47800
9.48000
9.48200
9.48400
9.48600
9.48800
9.49000
9.49200
9.49400
9.49600
9.49800
9.50000
9.50200
9.50400
9.50600
9.50800
9.51000
9.51200
9.51400
9.51600
9.51800
9.52000
9.52200
9.52400
9.52600
9.52800
9.53000
9.53200
9.53400
9.53600
9.53800
9.54000
9.54200
9.54400
9.54600
9.54800
9.55000
9.55200
9.55400
9.55600
9.55800
9.56000
9.56200
9.56400
9.56600
9.56800
9.57000
9.57200
9.57400
9.57600
9.57800
9.58000
9.58200
9.58400
9.58600
9.58800
9.59000
9.59200
9.59400
9.59600
9.59800
9.60000
9.60200
9.60400
9.60600
9.60800
9.61000
9.61200
9.61400
9.61600
9.61800
9.62000
9.62200
9.62400
9.62600
9.62800
9.63000
9.63200
9.63400
9.63600
9.63800
9.64000
9.64200
9.64400
9.64600
9.64800
9.65000
9.65200
9.65400
9.65600
9.65800
9.66000
9.66200
9.66400
9.66600
9.66800
9.67000
9.67200
9.67400
9.67600
9.67800
9.68000
9.68200
9.68400
9.68600
9.68800
9.69000
9.69200
9.69400
9.69600
9.69800
9.70000
9.70200
9.70400
9.70600
9.70800
9.71000
9.71200
9.71400
9.71600
9.71800
9.72000
9.72200
9.72400
9.72600
9.72800
9.73000
9.73200
9.73400
9.73600
9.73800
9.74000
9.74200
9.74400
9.74600
9.74800
9.75000
9.75200
9.75400
9.75600
9.75800
9.76000
9.76200
9.76400
9.76600
9.76800
9.77000
9.77200
9.77400
9.77600
9.77800
9.78000
9.78200
9.78400
9.78600
9.78800
9.79000
9.79200
9.79400
9.79600
9.79800
9.80000
9.80200
9.80400
9.80600
9.80800
9.81000
9.81200
9.81400
9.81600
9.81800
9.82000
9.82200
9.82400
9.82600
9.82800
9.83000
9.83200
9.83400
9.83600
9.83800
9.84000
9.84200
9.84400
9.84600
9.84800
9.85000
9.85200
9.85400
9.85600
9.85800
9.86000
9.86200
9.86400
9.86600
9.86800
9.87000
9.87200
9.87400
9.87600
9.87800
9.88000
9.88200
9.88400
9.88600
9.88800
9.89000
9.89200
9.89400
9.89600
9.89800
9.90000
9.90200
9.90400
9.90600
9.90800
9.91000
9.91200
9.91400
9.91600
9.91800
9.92000
9.92200
9.92400
9.92600
9.92800
9.93000
9.93200
9.93400
9.93600
9.93800
9.94000
9.94200
9.94400
9.94600
9.94800
9.95000
9.95200
9.95400
9.95600
9.95800
9.96000
9.96200
9.96400
9.96600
9.96800
9.97000
9.97200
9.97400
9.97600
9.97800
9.98000
9.98200
9.98400
9.98600
9.98800
9.99000
9.99200
9.99400
9.99600
9.99800
10.00000
10.00200
10.00400
10.00600
10.00800
10.01000
10.01200
10.01400
10.01600
10.01800
10.02000
10.02200
10.02400
10.02600
10.02800
10.03000
10.03200
10.03400
10.03600
10.03800
10.04000
10.04200
10.04400
10.04600
10.04800
10.05000
10.05200
10.05400
10.05600
10.05800
10.06000
10.06200
10.06400
10.06600
10.06800
10.07000
10.07200
10.07400
10.07600
10.07800
10.08000
10.08200
10.08400
10.08600
10.08800
10.09000
10.09200
10.09400
10.09600
10.09800
10.10000
10.10200
10.10400
10.10600
10.10800
10.11000
10.11200
10.11400
10.11600
10.11800
10.12000
10.12200
10.12400
10.12600
10.12800
10.13000
10.13200
10.13400
10.13600
10.13800
10.14000
10.14200
10.14400
10.14600
10.14800
10.15000
10.15200
10.15400
10.15600
10.15800
10.16000
10.16200
10.16400
10.16600
10.16800
10.17000
10.17200
10.17400
10.17600
10.17800
10.18000
10.18200
10.18400
10.18600
10.18800
10.19000
10.19200
10.19400
10.19600
10.19800
10.20000
10.20200
10.20400
10.20600
10.20800
10.21000
10.21200
10.21400
10.21600
10.21800
10.22000
10.22200
10.22400
10.22600
10.22800
10.23000
10.23200
10.23400
10.23600
10.23800
10.24000
10.24200
10.24400
10.24600
10.24800
10.25000
10.25200
10.25400
10.25600
10.25800
10.26000
10.26200
10.26400
10.26600
10.26800
10.27000
10.27200
10.27400
10.27600
10.27800
10.28000
10.28200
10.28400
10.28600
10.28800
10.29000
10.29200
10.29400
10.29600
10.29800
10.30000
10.30200
10.30400
10.30600
10.30800
10.31000
10.31200
10.31400
10.31600
10.31800
10.32000
10.32200
10.32400
10.32600
10.32800
10.33000
10.33200
10.33400
10.33600
10.33800
10.34000
10.34200
10.34400
10.34600
10.34800
10.35000
10.35200
10.35400
10.35600
10.35800
10.36000
10.36200
10.36400
10.36600
10.36800
10.37000
10.37200
10.37400
10.37600
10.37800
10.38000
10.38200
10.38400
10.38600
10.38800
10.39000
10.39200
10.39400
10.39600
10.39800
10.40000
10.40200
10.40400
10.40600
10.40800
10.41000
10.41200
10.41400
10.41600
10.41800
10.42000
10.42200
10.42400
10.42600
10.42800
10.43000
10.43200
10.43400
10.43600
10.43800
10.44000
10.44200
10.44400
10.44600
10.44800
10.45000
10.45200
10.45400
10.45600
10.45800
10.46000
10.46200
10.46400
10.46600
10.46800
10.47000
10.47200
10.47400
10.47600
10.47800
10.48000
10.48200
10.48400
10.48600
10.48800
10.49000
10.49200
10.49400
10.49600
10.49800
10.50000
10.50200
10.50400
10.50600
10.50800
10.51000
10.51200
10.51400
10.51600
10.51800
10.52000
10.52200
10.52400
10.52600
10.52800
10.53000
10.53200
10.53400
10.53600
10.53800
10.54000
10.54200
10.54400
10.54600
10.54800
10.55000
10.55200
10.55400
10.55600
10.55800
10.56000
10.56200
10.56400
10.56600
10.56800
10.57000
10.57200
10.57400
10.57600
10.57800
10.58000
10.58200
10.58400
10.58600
10.58800
10.59000
10.59200
10.59400
10.59600
10.59800
10.60000
10.60200
10.60400
10.60600
10.60800
10.61000
10.61200
10.61400
10.61600
10.61800
10.62000
10.62200
10.62400
10.62600
10.62800
10.63000
10.63200
10.63400
10.63600
10.63800
10.64000
10.64200
10.64400
10.64600
10.64800
10.65000
10.65200
10.65400
10.65600
10.65800
10.66000
10.66200
10.66400
10.66600
10.66800
10.67000
10.67200
10.67400
10.67600
10.67800
10.68000
10.68200
10.68400
10.68600
10.68800
10.69000
10.69200
10.69400
10.69600
10.69800
10.70000
10.70200
10.70400
10.70600
10.70800
10.71000
10.71200
10.71400
10.71600
10.71800
10.72000
10.72200
10.72400
10.72600
10.72800
10.73000
10.73200
10.73400
10.73600
10.73800
10.74000
10.74200
10.74400
10.74600
10.74800
10.75000
10.75200
10.75400
10.75600
10.75800
10.76000
10.76200
10.76400
10.76600
10.76800
10.77000
10.77200
10.77400
10.77600
10.77800
10.78000
10.78200
10.78400
10.78600
10.78800
10.79000
10.79200
10.79400
10.79600
10.79800
10.80000
10.80200
10.80400
10.80600
10.80800
10.81000
10.81200
10.81400
10.81600
10.81800
10.82000
10.82200
10.82400
10.82600
10.82800
10.83000
10.83200
10.83400
10.83600
10.83800
10.84000
10.84200
10.84400
10.84600
10.84800
10.85000
10.85200
10.85400
10.85600
10.85800
10.86000
10.86200
10.86400
10.86600
10.86800
10.87000
10.87200
10.87400
10.87600
10.87800
10.88000
10.88200
10.88400
10.88600
10.88800
10.89000
10.89200
10.89400
10.89600
10.89800
10.90000
10.90200
10.90400
10.90600
10.90800
10.91000
10.91200
10.91400
10.91600
10.91800
10.92000
10.92200
10.92400
10.92600
10.92800
10.93000
10.93200
10.93400
10.93600
10.93800
10.94000
10.94200
10.94400
10.94600
10.94800
10.95000
10.95200
10.95400
10.95600
10.95800
10.96000
10.96200
10.96400
10.96600
10.96800
10.97000
10.97200
10.97400
10.97600
10.97800
10.98000
10.98200
10.98400
10.98600
10.98800
10.99000
10.99200
10.99400
10.99600
10.99800
11.00000
11.00200
11.00400
11.00600
11.00800
11.01000
11.01200
11.01400
11.01600
11.01800
11.02000
11.02200
11.02400
11.02600
11.02800
11.03000
11.03200
11.03400
11.03600
11.03800
11.04000
11.04200
11.04400
11.04600
11.04800
11.05000
11.05200
11.05400
11.05600
11.05800
11.06000
11.06200
11.06400
11.06600
11.06800
11.07000
11.07200
11.07400
11.07600
11.07800
11.08000
11.08200
11.08400
11.08600
11.08800
11.09000
11.09200
11.09400
11.09600
11.09800
11.10000
11.10200
11.10400
11.10600
11.10800
11.11000
11.11200
11.11400
11.11600
11.11800
11.12000
11.12200
11.12400
11.12600
11.12800
11.13000
11.13200
11.13400
11.13600
11.13800
11.14000
11.14200
11.14400
11.14600
11.14800
11.15000
11.15200
11.15400
11.15600
11.15800
11.16000
11.16200
11.16400
11.16600
11.16800
11.17000
11.17200
11.17400
11.17600
11.17800
11.18000
11.18200
11.18400
11.18600
11.18800
11.19000
11.19200
11.19400
11.19600
11.19800
11.20000
11.20200
11.20400
11.20600
11.20800
11.21000
11.21200
11.21400
11.21600
11.21800
11.22000
11.22200
11.22400
11.22600
11.22800
11.23000
11.23200
11.23400
11.23600
11.23800
11.24000
11.24200
11.24400
11.24600
11.24800
11.25000
11.25200
11.25400
11.25600
11.25800
11.26000
11.26200
11.26400
11.26600
11.26800
11.27000
11.27200
11.27400
11.27600
11.27800
11.28000
11.28200
11.28400
11.28600
11.28800
11.29000
11.29200
11.29400
11.29600
11.29800
11.30000
11.30200
11.30400
11.30600
11.30800
11.31000
11.31200
11.31400
11.31600
11.31800
11.32000
11.32200
11.32400
11.32600
11.32800
11.33000
11.33200
11.33400
11.33600
11.33800
11.34000
11.34200
11.34400
11.34600
11.34800
11.35000
11.35200
11.35400
11.35600
11.35800
11.36000
11.36200
11.36400
11.36600
11.36800
11.37000
11.37200
11.37400
11.37600
11.37800
11.38000
11.38200
11.38400
11.38600
11.38800
11.39000
11.39200
11.39400
11.39600
11.39800
11.40000
11.40200
11.40400
11.40600
11.40800
11.41000
11.41200
11.41400
11.41600
11.41800
11.42000
11.42200
11.42400
11.42600
11.42800
11.43000
11.43200
11.43400
11.43600
11.43800
11.44000
11.44200
11.44400
11.44600
11.44800
11.45000
11.45200
11.45400
11.45600
11.45800
11.46000
11.46200
11.46400
11.46600
11.46800
11.47000
11.47200
11.47400
11.47600
11.47800
11.48000
11.48200
11.48400
11.48600
11.48800
11.49000
11.49200
11.49400
11.49600
11.49800
11.50000
11.50200
11.50400
11.50600
11.50800
11.51000
11.51200
11.51400
11.51600
11.51800
11.52000
11.52200
11.52400
11.52600
11.52800
11.53000
11.53200
11.53400
11.53600
11.53800
11.54000
11.54200
11.54400
11.54600
11.54800
11.55000
11.55200
11.55400
11.55600
11.55800
11.56000
11.56200
11.56400
11.56600
11.56800
11.57000
11.57200
11.57400
11.57600
11.57800
11.58000
11.58200
11.58400
11.58600
11.58800
11.59000
11.59200
11.59400
11.59600
11.59800
11.60000
11.60200
11.60400
11.60600
11.60800
11.61000
11.61200
11.61400
11.61600
11.61800
11.62000
11.62200
11.62400
11.62600
11.62800
11.63000
11.63200
11.63400
11.63600
11.63800
11.64000
11.64200
11.64400
11.64600
11.64800
11.65000
11.65200
11.65400
11.65600
11.65800
11.66000
11.66200
11.66400
11.66600
11.66800
11.67000
11.67200
11.67400
11.67600
11.67800
11.68000
11.68200
11.68400
11.68600
11.68800
11.69000
11.69200
11.69400
11.69600
11.69800
11.70000
11.70200
11.70400
11.70600
11.70800
11.71000
11.71200
11.71400
11.71600
11.71800
11.72000
11.72200
11.72400
11.72600
11.72800
11.73000
11.73200
11.73400
11.73600
11.73800
11.74000
11.74200
11.74400
11.74600
11.74800
11.75000
11.75200
11.75400
11.75600
11.75800
11.76000
11.76200
11.76400
11.76600
11.76800
11.77000
11.77200
11.77400
11.77600
11.77800
11.78000
11.78200
11.78400
11.78600
11.78800
11.79000
11.79200
11.79400
11.79600
11.79800
11.80000
11.80200
11.80400
11.80600
11.80800
11.81000
11.81200
11.81400
11.81600
11.81800
11.82000
11.82200
11.82400
11.82600
11.82800
11.83000
11.83200
11.83400
11.83600
11.83800
11.84000
11.84200
11.84400
11.84600
11.84800
11.85000
11.85200
11.85400
11.85600
11.85800
11.86000
11.86200
11.86400
11.86600
11.86800
11.87000
11.87200
11.87400
11.87600
11.87800
11.88000
11.88200
11.88400
11.88600
11.88800
11.89000
11.89200
11.89400
11.89600
11.89800
11.90000
11.90200
11.90400
11.90600
11.90800
11.91000
11.91200
11.91400
11.91600
11.91800
11.92000
11.92200
11.92400
11.92600
11.92800
11.93000
11.93200
11.93400
11.93600
11.93800
11.94000
11.94200
11.94400
11.94600
11.94800
11.95000
11.95200
11.95400
11.95600
11.95800
11.96000
11.96200
11.96400
11.96600
11.96800
11.97000
11.97200
11.97400
11.97600
11.97800
11.98000
11.98200
11.98400
11.98600
11.98800
11.99000
11.99200
11.99400
11.99600
11.99800
12.00000
12.00200
12.00400
12.00600
12.00800
12.01000
12.01200
12.01400
12.01600
12.01800
12.02000
12.02200
12.02400
12.02600
12.02800
12.03000
12.03200
12.03400
12.03600
12.03800
12.04000
12.04200
12.04400
12.04600
12.04800
12.05000
12.05200
12.05400
12.05600
12.05800
12.06000
12.06200
12.06400
12.06600
12.06800
12.07000
12.07200
12.07400
12.07600
12.07800
12.08000
12.08200
12.08400
12.08600
12.08800
12.09000
12.09200
12.09400
12.09600
12.09800
12.10000
12.10200
12.10400
12.10600
12.10800
12.11000
12.11200
12.11400
12.11600
12.11800
12.12000
12.12200
12.12400
12.12600
12.12800
12.13000
12.13200
12.13400
12.13600
12.13800
12.14000
12.14200
12.14400
12.14600
12.14800
12.15000
12.15200
12.15400
12.15600
12.15800
12.16000
12.16200
12.16400
12.16600
12.16800
12.17000
12.17200
12.17400
12.17600
12.17800
12.18000
12.18200
12.18400
12.18600
12.18800
12.19000
12.19200
12.19400
12.19600
12.19800
12.20000
12.20200
12.20400
12.20600
12.20800
12.21000
12.21200
12.21400
12.21600
12.21800
12.22000
12.22200
12.22400
12.22600
12.22800
12.23000
12.23200
12.23400
12.23600
12.23800
12.24000
12.24200
12.24400
12.24600
12.24800
12.25000
12.25200
12.25400
12.25600
12.25800
12.26000
12.26200
12.26400
12.26600
12.26800
12.27000
12.27200
12.27400
12.27600
12.27800
12.28000
12.28200
12.28400
12.28600
12.28800
12.29000
12.29200
12.29400
12.29600
12.29800
12.30000
12.30200
12.30400
12.30600
12.30800
12.31000
12.31200
12.31400
12.31600
12.31800
12.32000
12.32200
12.32400
12.32600
12.32800
12.33000
12.33200
12.33400
12.33600
12.33800
12.34000
12.34200
12.34400
12.34600
12.34800
12.35000
12.35200
12.35400
12.35600
12.35800
12.36000
12.36200
12.36400
12.36600
12.36800
12.37000
12.37200
12.37400
12.37600
12.37800
12.38000
12.38200
12.38400
12.38600
12.38800
12.39000
12.39200
12.39400
12.39600
12.39800
12.40000
12.40200
12.40400
12.40600
12.40800
12.41000
12.41200
12.41400
12.41600
12.41800
12.42000
12.42200
12.42400
12.42600
12.42800
12.43000
12.43200
12.43400
12.43600
12.43800
12.44000
12.44200
12.44400
12.44600
12.44800
12.45000
12.45200
12.45400
12.45600
12.45800
12.46000
12.46200
12.46400
12.46600
12.46800
12.47000
12.47200
12.47400
12.47600
12.47800
12.48000
12.48200
12.48400
12.48600
12.48800
12.49000
12.49200
12.49400
12.49600
12.49800
12.50000
12.50200
12.50400
12.50600
12.50800
12.51000
12.51200
12.51400
12.51600
12.51800
12.52000
12.52200
12.52400
12.52600
12.52800
12.53000
12.53200
12.53400
12.53600
12.53800
12.54000
12.54200
12.54400
12.54600
12.54800
12.55000
12.55200
12.55400
12.55600
12.55800
12.56000
12.56200
12.56400
12.56600
12.56800
12.57000
12.57200
12.57400
12.57600
12.57800
12.58000
12.58200
12.58400
12.58600
12.58800
12.59000
12.59200
12.59400
12.59600
12.59800
12.60000
12.60200
12.60400
12.60600
12.60800
12.61000
12.61200
12.61400
12.61600
12.61800
12.62000
12.62200
12.62400
12.62600
12.62800
12.63000
12.63200
12.63400
12.63600
12.63800
12.64000
12.64200
12.64400
12.64600
12.64800
12.65000
12.65200
12.65400
12.65600
12.65800
12.66000
12.66200
12.66400
12.66600
12.66800
12.67000
12.67200
12.67400
12.67600
12.67800
12.68000
12.68200
12.68400
12.68600
12.68800
12.69000
12.69200
12.69400
12.69600
12.69800
12.70000
12.70200
12.70400
12.70600
12.70800
12.71000
12.71200
12.71400
12.71600
12.71800
12.72000
12.72200
12.72400
12.72600
12.72800
12.73000
12.73200
12.73400
12.73600
12.73800
12.74000
12.74200
12.74400
12.74600
12.74800
12.75000
12.75200
12.75400
12.75600
12.75800
12.76000
12.76200
12.76400
12.76600
12.76800
12.77000
12.77200
12.77400
12.77600
12.77800
12.78000
12.78200
12.78400
12.78600
12.78800
12.79000
12.79200
12.79400
12.79600
12.79800
12.80000
12.80200
12.80400
12.80600
12.80800
12.81000
12.81200
12.81400
12.81600
12.81800
12.82000
12.82200
12.82400
12.82600
12.82800
12.83000
12.83200
12.83400
12.83600
12.83800
12.84000
12.84200
12.84400
12.84600
12.84800
12.85000
12.85200
12.85400
12.85600
12.85800
12.86000
12.86200
12.86400
12.86600
12.86800
12.87000
12.87200
12.87400
12.87600
12.87800
12.88000
12.88200
12.88400
12.88600
12.88800
12.89000
12.89200
12.89400
12.89600
12.89800
12.90000
12.90200
12.90400
12.90600
12.90800
12.91000
12.91200
12.91400
12.91600
12.91800
12.92000
12.92200
12.92400
12.92600
12.92800
12.93000
12.93200
12.93400
12.93600
12.93800
12.94000
12.94200
12.94400
12.94600
12.94800
12.95000
12.95200
12.95400
12.95600
12.95800
12.96000
12.96200
12.96400
12.96600
12.96800
12.97000
12.97200
12.97400
12.97600
12.97800
12.98000
12.98200
12.98400
12.98600
12.98800
12.99000
12.99200
12.99400
12.99600
12.99800
13.00000
13.00200
13.00400
13.00600
13.00800
13.01000
13.01200
13.01400
13.01600
13.01800
13.02000
13.02200
13.02400
13.02600
13.02800
13.03000
13.03200
13.03400
13.03600
13.03800
13.04000
13.04200
13.04400
13.04600
13.04800
13.05000
13.05200
13.05400
13.05600
13.05800
13.06000
13.06200
13.06400
13.06600
13.06800
13.07000
13.07200
13.07400
13.07600
13.07800
13.08000
13.08200
13.08400
13.08600
13.08800
13.09000
13.09200
13.09400
13.09600
13.09800
13.10000
13.10200
13.10400
13.10600
13.10800
13.11000
13.11200
13.11400
13.11600
13.11800
13.12000
13.12200
13.12400
13.12600
13.12800
13.13000
13.13200
13.13400
13.13600
13.13800
13.14000
13.14200
13.14400
13.14600
13.14800
13.15000
13.15200
13.15400
13.15600
13.15800
13.16000
13.16200
13.16400
13.16600
13.16800
13.17000
13.17200
13.17400
13.17600
13.17800
13.18000
13.18200
13.18400
13.18600
13.18800
13.19000
13.19200
13.19400
13.19600
13.19800
13.20000
13.20200
13.20400
13.20600
13.20800
13.21000
13.21200
13.21400
13.21600
13.21800
13.22000
13.22200
13.22400
13.22600
13.22800
13.23000
13.23200
13.23400
13.23600
13.23800
13.24000
13.24200
13.24400
13.24600
13.24800
13.25000
13.25200
13.25400
13.25600
13.25800
13.26000
13.26200
13.26400
13.26600
13.26800
13.27000
13.27200
13.27400
13.27600
13.27800
13.28000
13.28200
13.28400
13.28600
13.28800
13.29000
13.29200
13.29400
13.29600
13.29800
13.30000
13.30200
13.30400
13.30600
13.30800
13.31000
13.31200
13.31400
13.31600
13.31800
13.32000
13.32200
13.32400
13.32600
13.32800
13.33000
13.33200
13.33400
13.33600
13.33800
13.34000
13.34200
13.34400
13.34600
13.34800
13.35000
13.35200
13.35400
13.35600
13.35800
13.36000
13.36200
13.36400
13.36600
13.36800
13.37000
13.37200
13.37400
13.37600
13.37800
13.38000
13.38200
13.38400
13.38600
13.38800
13.39000
13.39200
13.39400
13.39600
13.39800
13.40000
13.40200
13.40400
13.40600
13.40800
13.41000
13.41200
13.41400
13.41600
13.41800
13.42000
13.42200
13.42400
13.42600
13.42800
13.43000
13.43200
13.43400
13.43600
13.43800
13.44000
13.44200
13.44400
13.44600
13.44800
13.45000
13.45200
13.45400
13.45600
13.45800
13.46000
13.46200
13.46400
13.46600
13.46800
13.47000
13.47200
13.47400
13.47600
13.47800
13.48000
13.48200
13.48400
13.48600
13.48800
13.49000
13.49200
13.49400
13.49600
13.49800
13.50000
13.50200
13.50400
13.50600
13.50800
13.51000
13.51200
13.51400
13.51600
13.51800
13.52000
13.52200
13.52400
13.52600
13.52800
13.53000
13.53200
13.53400
13.53600
13.53800
13.54000
13.54200
13.54400
13.54600
13.54800
13.55000
13.55200
13.55400
13.55600
13.55800
13.56000
13.56200
13.56400
13.56600
13.56800
13.57000
13.57200
13.57400
13.57600
13.57800
13.58000
13.58200
13.58400
13.58600
13.58800
13.59000
13.59200
13.59400
13.59600
13.59800
13.60000
13.60200
13.60400
13.60600
13.60800
13.61000
13.61200
13.61400
13.61600
13.61800
13.62000
13.62200
13.62400
13.62600
13.62800
13.63000
13.63200
13.63400
13.63600
13.63800
13.64000
13.64200
13.64400
13.64600
13.64800
13.65000
13.65200
13.65400
13.65600
13.65800
13.66000
13.66200
13.66400
13.66600
13.66800
13.67000
13.67200
13.67400
13.67600
13.67800
13.68000
13.68200
13.68400
13.68600
13.68800
13.69000
13.69200
13.69400
13.69600
13.69800
13.70000
13.70200
13.70400
13.70600
13.70800
13.71000
13.71200
13.71400
13.71600
13.71800
13.72000
13.72200
13.72400
13.72600
13.72800
13.73000
13.73200
13.73400
13.73600
13.73800
13.74000
13.74200
13.74400
13.74600
13.74800
13.75000
13.75200
13.75400
13.75600
13.75800
13.76000
13.76200
13.76400
13.76600
13.76800
13.77000
13.77200
13.77400
13.77600
13.77800
13.78000
13.78200
13.78400
13.78600
13.78800
13.79000
13.79200
13.79400
13.79600
13.79800
13.80000
13.80200
13.80400
13.80600
13.80800
13.81000
13.81200
13.81400
13.81600
13.81800
13.82000
13.82200
13.82400
13.82600
13.82800
13.83000
13.83200
13.83400
13.83600
13.83800
13.84000
13.84200
13.84400
13.84600
13.84800
13.85000
13.85200
13.85400
13.85600
13.85800
13.86000
13.86200
13.86400
13.86600
13.86800
13.87000
13.87200
13.87400
13.87600
13.87800
13.88000
13.88200
13.88400
13.88600
13.88800
13.89000
13.89200
13.89400
13.89600
13.89800
13.90000
13.90200
13.90400
13.90600
13.90800
13.91000
13.91200
13.91400
13.91600
13.91800
13.92000
13.92200
13.92400
13.92600
13.92800
13.93000
13.93200
13.93400
13.93600
13.93800
13.94000
13.94200
13.94400
13.94600
13.94800
13.95000
13.95200
13.95400
13.95600
13.95800
13.96000
13.96200
13.96400
13.96600
13.96800
13.97000
13.97200
13.97400
13.97600
13.97800
13.98000
13.98200
13.98400
13.98600
13.98800
13.99000
13.99200
13.99400
13.99600
13.99800
14.00000
14.00200
14.00400
14.00600
14.00800
14.01000
14.01200
14.01400
14.01600
14.01800
14.02000
14.02200
14.02400
14.02600
14.02800
14.03000
14.03200
14.03400
14.03600
14.03800
14.04000
14.04200
14.04400
14.04600
14.04800
14.05000
14.05200
14.05400
14.05600
14.05800
14.06000
14.06200
14.06400
14.06600
14.06800
14.07000
14.07200
14.07400
14.07600
14.07800
14.08000
14.08200
14.08400
14.08600
14.08800
14.09000
14.09200
14.09400
14.09600
14.09800
14.10000
14.10200
14.10400
14.10600
14.10800
14.11000
14.11200
14.11400
14.11600
14.11800
14.12000
14.12200
14.12400
14.12600
14.12800
14.13000
14.13200
14.13400
14.13600
14.13800
14.14000
14.14200
14.14400
14.14600
14.14800
14.15000
14.15200
14.15400
14.15600
14.15800
14.16000
14.16200
14.16400
14.16600
14.16800
14.17000
14.17200
14.17400
14.17600
14.17800
14.18000
14.18200
14.18400
14.18600
14.18800
14.19000
14.19200
14.19400
14.19600
14.19800
14.20000
14.20200
14.20400
14.20600
14.20800
14.21000
14.21200
14.21400
14.21600
14.21800
14.22000
14.22200
14.22400
14.22600
14.22800
14.23000
14.23200
14.23400
14.23600
14.23800
14.24000
14.24200
14.24400
14.24600
14.24800
14.25000
14.25200
14.25400
14.25600
14.25800
14.26000
14.26200
14.26400
14.26600
14.26800
14.27000
14.27200
14.27400
14.27600
14.27800
14.28000
14.28200
14.28400
14.28600
14.28800
14.29000
14.29200
14.29400
14.29600
14.29800
14.30000
14.30200
14.30400
14.30600
14.30800
14.31000
14.31200
14.31400
14.31600
14.31800
14.32000
14.32200
14.32400
14.32600
14.32800
14.33000
14.33200
14.33400
14.33600
14.33800
14.34000
14.34200
14.34400
14.34600
14.34800
14.35000
14.35200
14.35400
14.35600
14.35800
14.36000
14.36200
14.36400
14.36600
14.36800
14.37000
14.37200
14.37400
14.37600
14.37800
14.38000
14.38200
14.38400
14.38600
14.38800
14.39000
14.39200
14.39400
14.39600
14.39800
14.40000
14.40200
14.40400
14.40600
14.40800
14.41000
14.41200
14.41400
14.41600
14.41800
14.42000
14.42200
14.42400
14.42600
14.42800
14.43000
14.43200
14.43400
14.43600
14.43800
14.44000
14.44200
14.44400
14.44600
14.44800
14.45000
14.45200
14.45400
14.45600
14.45800
14.46000
14.46200
14.46400
14.46600
14.46800
14.47000
14.47200
14.47400
14.47600
14.47800
14.48000
14.48200
14.48400
14.48600
14.48800
14.49000
14.49200
14.49400
14.49600
14.49800
14.50000
14.50200
14.50400
14.50600
14.50800
14.51000
14.51200
14.51400
14.51600
14.51800
14.52000
14.52200
14.52400
14.52600
14.52800
14.53000
14.53200
14.53400
14.53600
14.53800
14.54000
14.54200
14.54400
14.54600
14.54800
14.55000
14.55200
14.55400
14.55600
14.55800
14.56000
14.56200
14.56400
14.56600
14.56800
14.57000
14.57200
14.57400
14.57600
14.57800
14.58000
14.58200
14.58400
14.58600
14.58800
14.59000
14.59200
14.59400
14.59600
14.59800
14.60000
14.60200
14.60400
14.60600
14.60800
14.61000
14.61200
14.61400
14.61600
14.61800
14.62000
14.62200
14.62400
14.62600
14.62800
14.63000
14.63200
14.63400
14.63600
14.63800
14.64000
14.64200
14.64400
14.64600
14.64800
14.65000
14.65200
14.65400
14.65600
14.65800
14.66000
14.66200
14.66400
14.66600
14.66800
14.67000
14.67200
14.67400
14.67600
14.67800
14.68000
14.68200
14.68400
14.68600
14.68800
14.69000
14.69200
14.69400
14.69600
14.69800
14.70000
14.70200
14.70400
14.70600
14.70800
14.71000
14.71200
14.71400
14.71600
14.71800
14.72000
14.72200
14.72400
14.72600
14.72800
14.73000
14.73200
14.73400
14.73600
14.73800
14.74000
14.74200
14.74400
14.74600
14.74800
14.75000
14.75200
14.75400
14.75600
14.75800
14.76000
14.76200
14.76400
14.76600
14.76800
14.77000
14.77200
14.77400
14.77600
14.77800
14.78000
14.78200
14.78400
14.78600
14.78800
14.79000
14.79200
14.79400
14.79600
14.79800
14.80000
14.80200
14.80400
14.80600
14.80800
14.81000
14.81200
14.81400
14.81600
14.81800
14.82000
14.82200
14.82400
14.82600
14.82800
14.83000
14.83200
14.83400
14.83600
14.83800
14.84000
14.84200
14.84400
14.84600
14.84800
14.85000
14.85200
14.85400
14.85600
14.85800
14.86000
14.86200
14.86400
14.86600
14.86800
14.87000
14.87200
14.87400
14.87600
14.87800
14.88000
14.88200
14.88400
14.88600
14.88800
14.89000
14.89200
14.89400
14.89600
14.89800
14.90000
14.90200
14.90400
14.90600
14.90800
14.91000
14.91200
14.91400
14.91600
14.91800
14.92000
14.92200
14.92400
14.92600
14.92800
14.93000
14.93200
14.93400
14.93600
14.93800
14.94000
14.94200
14.94400
14.94600
14.94800
14.95000
14.95200
14.95400
14.95600
14.95800
14.96000
14.96200
14.96400
14.96600
14.96800
14.97000
14.97200
14.97400
14.97600
14.97800
14.98000
14.98200
14.98400
14.98600
14.98800
14.99000
14.99200
14.99400
14.99600
14.99800
15.00000
15.00200
15.00400
15.00600
15.00800
15.01000
15.01200
15.01400
15.01600
15.01800
15.02000
15.02200
15.02400
15.02600
15.02800
15.03000
15.03200
15.03400
15.03600
15.03800
15.04000
15.04200
15.04400
15.04600
15.04800
15.05000
15.05200
15.05400
15.05600
15.05800
15.06000
15.06200
15.06400
15.06600
15.06800
15.07000
15.07200
15.07400
15.07600
15.07800
15.08000
15.08200
15.08400
15.08600
15.08800
15.09000
15.09200
15.09400
15.09600
15.09800
15.10000
15.10200
15.10400
15.10600
15.10800
15.11000
15.11200
15.11400
15.11600
15.11800
15.12000
15.12200
15.12400
15.12600
15.12800
15.13000
15.13200
15.13400
15.13600
15.13800
15.14000
15.14200
15.14400
15.14600
15.14800
15.15000
15.15200
15.15400
15.15600
15.15800
15.16000
15.16200
15.16400
15.16600
15.16800
15.17000
15.17200
15.17400
15.17600
15.17800
15.18000
15.18200
15.18400
15.18600
15.18800
15.19000
15.19200
15.19400
15.19600
15.19800
15.20000
15.20200
15.20400
15.20600
15.20800
15.21000
15.21200
15.21400
15.21600
15.21800
15.22000
15.22200
15.22400
15.22600
15.22800
15.23000
15.23200
15.23400
15.23600
15.23800
15.24000
15.24200
15.24400
15.24600
15.24800
15.25000
15.25200
15.25400
15.25600
15.25800
15.26000
15.26200
15.26400
15.26600
15.26800
15.27000
15.27200
15.27400
15.27600
15.27800
15.28000
15.28200
15.28400
15.28600
15.28800
15.29000
15.29200
15.29400
15.29600
15.29800
15.30000
15.30200
15.30400
15.30600
15.30800
15.31000
15.31200
15.31400
15.31600
15.31800
15.32000
15.32200
15.32400
15.32600
15.32800
15.33000
15.33200
15.33400
15.33600
15.33800
15.34000
15.34200
15.34400
15.34600
15.34800
15.35000
15.35200
15.35400
15.35600
15.35800
15.36000
15.36200
15.36400
15.36600
15.36800
15.37000
15.37200
15.37400
15.37600
15.37800
15.38000
15.38200
15.38400
15.38600
15.38800
15.39000
15.39200
15.39400
15.39600
15.39800
15.40000
15.40200
15.40400
15.40600
15.40800
15.41000
15.41200
15.41400
15.41600
15.41800
15.42000
15.42200
15.42400
15.42600
15.42800
15.43000
15.43200
15.43400
15.43600
15.43800
15.44000
15.44200
15.44400
15.44600
15.44800
15.45000
15.45200
15.45400
15.45600
15.45800
15.46000
15.46200
15.46400
15.46600
15.46800
15.47000
15.47200
15.47400
15.47600
15.47800
15.48000
15.48200
15.48400
15.48600
15.48800
15.49000
15.49200
15.49400
15.49600
15.49800
15.50000
15.50200
15.50400
15.50600
15.50800
15.51000
15.51200
15.51400
15.51600
15.51800
15.52000
15.52200
15.52400
15.52600
15.52800
15.53000
15.53200
15.53400
15.53600
15.53800
15.54000
15.54200
15.54400
15.54600
15.54800
15.55000
15.55200
15.55400
15.55600
15.55800
15.56000
15.56200
15.56400
15.56600
15.56800
15.57000
15.57200
15.57400
15.57600
15.57800
15.58000
15.58200
15.58400
15.58600
15.58800
15.59000
15.59200
15.59400
15.59600
15.59800
15.60000
15.60200
15.60400
15.60600
15.60800
15.61000
15.61200
15.61400
15.61600
15.61800
15.62000
15.62200
15.62400
15.62600
15.62800
15.63000
15.63200
15.63400
15.63600
15.63800
15.64000
15.64200
15.64400
15.64600
15.64800
15.65000
15.65200
15.65400
15.65600
15.65800
15.66000
15.66200
15.66400
15.66600
15.66800
15.67000
15.67200
15.67400
15.67600
15.67800
15.68000
15.68200
15.68400
15.68600
15.68800
15.69000
15.69200
15.69400
15.69600
15.69800
15.70000
15.70200
15.70400
15.70600
15.70800
15.71000
15.71200
15.71400
15.71600
15.71800
15.72000
15.72200
15.72400
15.72600
15.72800
15.73000
15.73200
15.73400
15.73600
15.73800
15.74000
15.74200
15.74400
15.74600
15.74800
15.75000
15.75200
15.75400
15.75600
15.75800
15.76000
15.76200
15.76400
15.76600
15.76800
15.77000
15.77200
15.77400
15.77600
15.77800
15.78000
15.78200
15.78400
15.78600
15.78800
15.79000
15.79200
15.79400
15.79600
15.79800
15.80000
15.80200
15.80400
15.80600
15.80800
15.81000
15.81200
15.81400
15.81600
15.81800
15.82000
15.82200
15.82400
15.82600
15.82800
15.83000
15.83200
15.83400
15.83600
15.83800
15.84000
15.84200
15.84400
15.84600
15.84800
15.85000
15.85200
15.85400
15.85600
15.85800
15.86000
15.86200
15.86400
15.86600
15.86800
15.87000
15.87200
15.87400
15.87600
15.87800
15.88000
15.88200
15.88400
15.88600
15.88800
15.89000
15.89200
15.89400
15.89600
15.89800
15.90000
15.90200
15.90400
15.90600
15.90800
15.91000
15.91200
15.91400
15.91600
15.91800
15.92000
15.92200
15.92400
15.92600
15.92800
15.93000
15.93200
15.93400
15.93600
15.93800
15.94000
15.94200
15.94400
15.94600
15.94800
15.95000
15.95200
15.95400
15.95600
15.95800
15.96000
15.96200
15.96400
15.96600
15.96800
15.97000
15.97200
15.97400
15.97600
15.97800
15.98000
15.98200
15.98400
15.98600
15.98800
15.99000
15.99200
15.99400
15.99600
15.99800
16.00000
16.00200
16.00400
16.00600
16.00800
16.01000
16.01200
16.01400
16.01600
16.01800
16.02000
16.02200
16.02400
16.02600
16.02800
16.03000
16.03200
16.03400
16.03600
16.03800
16.04000
16.04200
16.04400
16.04600
16.04800
16.05000
16.05200
16.05400
16.05600
16.05800
16.06000
16.06200
16.06400
16.06600
16.06800
16.07000
16.07200
16.07400
16.07600
16.07800
16.08000
16.08200
16.08400
16.08600
16.08800
16.09000
16.09200
16.09400
16.09600
16.09800
16.10000
16.10200
16.10400
16.10600
16.10800
16.11000
16.11200
16.11400
16.11600
16.11800
16.12000
16.12200
16.12400
16.12600
16.12800
16.13000
16.13200
16.13400
16.13600
16.13800
16.14000
16.14200
16.14400
16.14600
16.14800
16.15000
16.15200
16.15400
16.15600
16.15800
16.16000
16.16200
16.16400
16.16600
16.16800
16.17000
16.17200
16.17400
16.17600
16.17800
16.18000
16.18200
16.18400
16.18600
16.18800
16.19000
16.19200
16.19400
16.19600
16.19800
16.20000
16.20200
16.20400
16.20600
16.20800
16.21000
16.21200
16.21400
16.21600
16.21800
16.22000
16.22200
16.22400
16.22600
16.22800
16.23000
16.23200
16.23400
16.23600
16.23800
16.24000
16.24200
16.24400
16.24600
16.24800
16.25000
16.25200
16.25400
16.25600
16.25800
16.26000
16.26200
16.26400
16.26600
16.26800
16.27000
16.27200
16.27400
16.27600
16.27800
16.28000
16.28200
16.28400
16.28600
16.28800
16.29000
16.29200
16.29400
16.29600
16.29800
16.30000
16.30200
16.30400
16.30600
16.30800
16.31000
16.31200
16.31400
16.31600
16.31800
16.32000
16.32200
16.32400
16.32600
16.32800
16.33000
16.33200
16.33400
16.33600
16.33800
16.34000
16.34200
16.34400
16.34600
16.34800
16.35000
16.35200
16.35400
16.35600
16.35800
16.36000
16.36200
16.36400
16.36600
16.36800
16.37000
16.37200
16.37400
16.37600
16.37800
16.38000
16.38200
16.38400
16.38600
16.38800
16.39000
16.39200
16.39400
16.39600
16.39800
16.40000
16.40200
16.40400
16.40600
16.40800
16.41000
16.41200
16.41400
16.41600
16.41800
16.42000
16.42200
16.42400
16.42600
16.42800
16.43000
16.43200
16.43400
16.43600
16.43800
16.44000
16.44200
16.44400
16.44600
16.44800
16.45000
16.45200
16.45400
16.45600
16.45800
16.46000
16.46200
16.46400
16.46600
16.46800
16.47000
16.47200
16.47400
16.47600
16.47800
16.48000
16.48200
16.48400
16.48600
16.48800
16.49000
16.49200
16.49400
16.49600
16.49800
16.50000
16.50200
16.50400
16.50600
16.50800
16.51000
16.51200
16.51400
16.51600
16.51800
16.52000
16.52200
16.52400
16.52600
16.52800
16.53000
16.53200
16.53400
16.53600
16.53800
16.54000
16.54200
16.54400
16.54600
16.54800
16.55000
16.55200
16.55400
16.55600
16.55800
16.56000
16.56200
16.56400
16.56600
16.56800
16.57000
16.57200
16.57400
16.57600
16.57800
16.58000
16.58200
16.58400
16.58600
16.58800
16.59000
16.59200
16.59400
16.59600
16.59800
16.60000
16.60200
16.60400
16.60600
16.60800
16.61000
16.61200
16.61400
16.61600
16.61800
16.62000
16.62200
16.62400
16.62600
16.62800
16.63000
16.63200
16.63400
16.63600
16.63800
16.64000
16.64200
16.64400
16.64600
16.64800
16.65000
16.65200
16.65400
16.65600
16.65800
16.66000
16.66200
16.66400
16.66600
16.66800
16.67000
16.67200
16.67400
16.67600
16.67800
16.68000
16.68200
16.68400
16.68600
16.68800
16.69000
16.69200
16.69400
16.69600
16.69800
16.70000
16.70200
16.70400
16.70600
16.70800
16.71000
16.71200
16.71400
16.71600
16.71800
16.72000
16.72200
16.72400
16.72600
16.72800
16.73000
16.73200
16.73400
16.73600
16.73800
16.74000
16.74200
16.74400
16.74600
16.74800
16.75000
16.75200
16.75400
16.75600
16.75800
16.76000
16.76200
16.76400
16.76600
16.76800
16.77000
16.77200
16.77400
16.77600
16.77800
16.78000
16.78200
16.78400
16.78600
16.78800
16.79000
16.79200
16.79400
16.79600
16.79800
16.80000
16.80200
16.80400
16.80600
16.80800
16.81000
16.81200
16.81400
16.81600
16.81800
16.82000
16.82200
16.82400
16.82600
16.82800
16.83000
16.83200
16.83400
16.83600
16.83800
16.84000
16.84200
16.84400
16.84600
16.84800
16.85000
16.85200
16.85400
16.85600
16.85800
16.86000
16.86200
16.86400
16.86600
16.86800
16.87000
16.87200
16.87400
16.87600
16.87800
16.88000
16.88200
16.88400
16.88600
16.88800
16.89000
16.89200
16.89400
16.89600
16.89800
16.90000
16.90200
16.90400
16.90600
16.90800
16.91000
16.91200
16.91400
16.91600
16.91800
16.92000
16.92200
16.92400
16.92600
16.92800
16.93000
16.93200
16.93400
16.93600
16.93800
16.94000
16.94200
16.94400
16.94600
16.94800
16.95000
16.95200
16.95400
16.95600
16.95800
16.96000
16.96200
16.96400
16.96600
16.96800
16.97000
16.97200
16.97400
16.97600
16.97800
16.98000
16.98200
16.98400
16.98600
16.98800
16.99000
16.99200
16.99400
16.99600
16.99800
17.00000
17.00200
17.00400
17.00600
17.00800
17.01000
17.01200
17.01400
17.01600
17.01800
17.02000
17.02200
17.02400
17.02600
17.02800
17.03000
17.03200
17.03400
17.03600
17.03800
17.04000
17.04200
17.04400
17.04600
17.04800
17.05000
17.05200
17.05400
17.05600
17.05800
17.06000
17.06200
17.06400
17.06600
17.06800
17.07000
17.07200
17.07400
17.07600
17.07800
17.08000
17.08200
17.08400
17.08600
17.08800
17.09000
17.09200
17.09400
17.09600
17.09800
17.10000
17.10200
17.10400
17.10600
17.10800
17.11000
17.11200
17.11400
17.11600
17.11800
17.12000
17.12200
17.12400
17.12600
17.12800
17.13000
17.13200
17.13400
17.13600
17.13800
17.14000
17.14200
17.14400
17.14600
17.14800
17.15000
17.15200
17.15400
17.15600
17.15800
17.16000
17.16200
17.16400
17.16600
17.16800
17.17000
17.17200
17.17400
17.17600
17.17800
17.18000
17.18200
17.18400
17.18600
17.18800
17.19000
17.19200
17.19400
17.19600
17.19800
17.20000
17.20200
17.20400
17.20600
17.20800
17.21000
17.21200
17.21400
17.21600
17.21800
17.22000
17.22200
17.22400
17.22600
17.22800
17.23000
17.23200
17.23400
17.23600
17.23800
17.24000
17.24200
17.24400
17.24600
17.24800
17.25000
17.25200
17.25400
17.25600
17.25800
17.26000
17.26200
17.26400
17.26600
17.26800
17.27000
17.27200
17.27400
17.27600
17.27800
17.28000
17.28200
17.28400
17.28600
17.28800
17.29000
17.29200
17.29400
17.29600
17.29800
17.30000
17.30200
17.30400
17.30600
17.30800
17.31000
17.31200
17.31400
17.31600
17.31800
17.32000
17.32200
17.32400
17.32600
17.32800
17.33000
17.33200
17.33400
17.33600
17.33800
17.34000
17.34200
17.34400
17.34600
17.34800
17.35000
17.35200
17.35400
17.35600
17.35800
17.36000
17.36200
17.36400
17.36600
17.36800
17.37000
17.37200
17.37400
17.37600
17.37800
17.38000
17.38200
17.38400
17.38600
17.38800
17.39000
17.39200
17.39400
17.39600
17.39800
17.40000
17.40200
17.40400
17.40600
17.40800
17.41000
17.41200
17.41400
17.41600
17.41800
17.42000
17.42200
17.42400
17.42600
17.42800
17.43000
17.43200
17.43400
17.43600
17.43800
17.44000
17.44200
17.44400
17.44600
17.44800
17.45000
17.45200
17.45400
17.45600
17.45800
17.46000
17.46200
17.46400
17.46600
17.46800
17.47000
17.47200
17.47400
17.47600
17.47800
17.48000
17.48200
17.48400
17.48600
17.48800
17.49000
17.49200
17.49400
17.49600
17.49800
17.50000
17.50200
17.50400
17.50600
17.50800
17.51000
17.51200
17.51400
17.51600
17.51800
17.52000
17.52200
17.52400
17.52600
17.52800
17.53000
17.53200
17.53400
17.53600
17.53800
17.54000
17.54200
17.54400
17.54600
17.54800
17.55000
17.55200
17.55400
17.55600
17.55800
17.56000
17.56200
17.56400
17.56600
17.56800
17.57000
17.57200
17.57400
17.57600
17.57800
17.58000
17.58200
17.58400
17.58600
17.58800
17.59000
17.59200
17.59400
17.59600
17.59800
17.60000
17.60200
17.60400
17.60600
17.60800
17.61000
17.61200
17.61400
17.61600
17.61800
17.62000
17.62200
17.62400
17.62600
17.62800
17.63000
17.63200
17.63400
17.63600
17.63800
17.64000
17.64200
17.64400
17.64600
17.64800
17.65000
17.65200
17.65400
17.65600
17.65800
17.66000
17.66200
17.66400
17.66600
17.66800
17.67000
17.67200
17.67400
17.67600
17.67800
17.68000
17.68200
17.68400
17.68600
17.68800
17.69000
17.69200
17.69400
17.69600
17.69800
17.70000
17.70200
17.70400
17.70600
17.70800
17.71000
17.71200
17.71400
17.71600
17.71800
17.72000
17.72200
17.72400
17.72600
17.72800
17.73000
17.73200
17.73400
17.73600
17.73800
17.74000
17.74200
17.74400
17.74600
17.74800
17.75000
17.75200
17.75400
17.75600
17.75800
17.76000
17.76200
17.76400
17.76600
17.76800
17.77000
17.77200
17.77400
17.77600
17.77800
17.78000
17.78200
17.78400
17.78600
17.78800
17.79000
17.79200
17.79400
17.79600
17.79800
17.80000
17.80200
17.80400
17.80600
17.80800
17.81000
17.81200
17.81400
17.81600
17.81800
17.82000
17.82200
17.82400
17.82600
17.82800
17.83000
17.83200
17.83400
17.83600
17.83800
17.84000
17.84200
17.84400
17.84600
17.84800
17.85000
17.85200
17.85400
17.85600
17.85800
17.86000
17.86200
17.86400
17.86600
17.86800
17.87000
17.87200
17.87400
17.87600
17.87800
17.88000
17.88200
17.88400
17.88600
17.88800
17.89000
17.89200
17.89400
17.89600
17.89800
17.90000
17.90200
17.90400
17.90600
17.90800
17.91000
17.91200
17.91400
17.91600
17.91800
17.92000
17.92200
17.92400
17.92600
17.92800
17.93000
17.93200
17.93400
17.93600
17.93800
17.94000
17.94200
17.94400
17.94600
17.94800
17.95000
17.95200
17.95400
17.95600
17.95800
17.96000
17.96200
17.96400
17.96600
17.96800
17.97000
17.97200
17.97400
17.97600
17.97800
17.98000
17.98200
17.98400
17.98600
17.98800
17.99000
17.99200
17.99400
17.99600
17.99800
18.00000
18.00200
18.00400
18.00600
18.00800
18.01000
18.01200
18.01400
18.01600
18.01800
18.02000
18.02200
18.02400
18.02600
18.02800
18.03000
18.03200
18.03400
18.03600
18.03800
18.04000
18.04200
18.04400
18.04600
18.04800
18.05000
18.05200
18.05400
18.05600
18.05800
18.06000
18.06200
18.06400
18.06600
18.06800
18.07000
18.07200
18.07400
18.07600
18.07800
18.08000
18.08200
18.08400
18.08600
18.08800
18.09000
18.09200
18.09400
18.09600
18.09800
18.10000
18.10200
18.10400
18.10600
18.10800
18.11000
18.11200
18.11400
18.11600
18.11800
18.12000
18.12200
18.12400
18.12600
18.12800
18.13000
18.13200
18.13400
18.13600
18.13800
18.14000
18.14200
18.14400
18.14600
18.14800
18.15000
18.15200
18.15400
18.15600
18.15800
18.16000
18.16200
18.16400
18.16600
18.16800
18.17000
18.17200
18.17400
18.17600
18.17800
18.18000
18.18200
18.18400
18.18600
18.18800
18.19000
18.19200
18.19400
18.19600
18.19800
18.20000
18.20200
18.20400
18.20600
18.20800
18.21000
18.21200
18.21400
18.21600
18.21800
18.22000
18.22200
18.22400
18.22600
18.22800
18.23000
18.23200
18.23400
18.23600
18.23800
18.24000
18.24200
18.24400
18.24600
18.24800
18.25000
18.25200
18.25400
18.25600
18.25800
18.26000
18.26200
18.26400
18.26600
18.26800
18.27000
18.27200
18.27400
18.27600
18.27800
18.28000
18.28200
18.28400
18.28600
18.28800
18.29000
18.29200
18.29400
18.29600
18.29800
18.30000
18.30200
18.30400
18.30600
18.30800
18.31000
18.31200
18.31400
18.31600
18.31800
18.32000
18.32200
18.32400
18.32600
18.32800
18.33000
18.33200
18.33400
18.33600
18.33800
18.34000
18.34200
18.34400
18.34600
18.34800
18.35000
18.35200
18.35400
18.35600
18.35800
18.36000
18.36200
18.36400
18.36600
18.36800
18.37000
18.37200
18.37400
18.37600
18.37800
18.38000
18.38200
18.38400
18.38600
18.38800
18.39000
18.39200
18.39400
18.39600
18.39800
18.40000
18.40200
18.40400
18.40600
18.40800
18.41000
18.41200
18.41400
18.41600
18.41800
18.42000
18.42200
18.42400
18.42600
18.42800
18.43000
18.43200
18.43400
18.43600
18.43800
18.44000
18.44200
18.44400
18.44600
18.44800
18.45000
18.45200
18.45400
18.45600
18.45800
18.46000
18.46200
18.46400
18.46600
18.46800
18.47000
18.47200
18.47400
18.47600
18.47800
18.48000
18.48200
18.48400
18.48600
18.48800
18.49000
18.49200
18.49400
18.49600
18.49800
18.50000
18.50200
18.50400
18.50600
18.50800
18.51000
18.51200
18.51400
18.51600
18.51800
18.52000
18.52200
18.52400
18.52600
18.52800
18.53000
18.53200
18.53400
18.53600
18.53800
18.54000
18.54200
18.54400
18.54600
18.54800
18.55000
18.55200
18.55400
18.55600
18.55800
18.56000
18.56200
18.56400
18.56600
18.56800
18.57000
18.57200
18.57400
18.57600
18.57800
18.58000
18.58200
18.58400
18.58600
18.58800
18.59000
18.59200
18.59400
18.59600
18.59800
18.60000
18.60200
18.60400
18.60600
18.60800
18.61000
18.61200
18.61400
18.61600
18.61800
18.62000
18.62200
18.62400
18.62600
18.62800
18.63000
18.63200
18.63400
18.63600
18.63800
18.64000
18.64200
18.64400
18.64600
18.64800
18.65000
18.65200
18.65400
18.65600
18.65800
18.66000
18.66200
18.66400
18.66600
18.66800
18.67000
18.67200
18.67400
18.67600
18.67800
18.68000
18.68200
18.68400
18.68600
18.68800
18.69000
18.69200
18.69400
18.69600
18.69800
18.70000
18.70200
18.70400
18.70600
18.70800
18.71000
18.71200
18.71400
18.71600
18.71800
18.72000
18.72200
18.72400
18.72600
18.72800
18.73000
18.73200
18.73400
18.73600
18.73800
18.74000
18.74200
18.74400
18.74600
18.74800
18.75000
18.75200
18.75400
18.75600
18.75800
18.76000
18.76200
18.76400
18.76600
18.76800
18.77000
18.77200
18.77400
18.77600
18.77800
18.78000
18.78200
18.78400
18.78600
18.78800
18.79000
18.79200
18.79400
18.79600
18.79800
18.80000
18.80200
18.80400
18.80600
18.80800
18.81000
18.81200
18.81400
18.81600
18.81800
18.82000
18.82200
18.82400
18.82600
18.82800
18.83000
18.83200
18.83400
18.83600
18.83800
18.84000
18.84200
18.84400
18.84600
18.84800
18.85000
18.85200
18.85400
18.85600
18.85800
18.86000
18.86200
18.86400
18.86600
18.86800
18.87000
18.87200
18.87400
18.87600
18.87800
18.88000
18.88200
18.88400
18.88600
18.88800
18.89000
18.89200
18.89400
18.89600
18.89800
18.90000
18.90200
18.90400
18.90600
18.90800
18.91000
18.91200
18.91400
18.91600
18.91800
18.92000
18.92200
18.92400
18.92600
18.92800
18.93000
18.93200
18.93400
18.93600
18.93800
18.94000
18.94200
18.94400
18.94600
18.94800
18.95000
18.95200
18.95400
18.95600
18.95800
18.96000
18.96200
18.96400
18.96600
18.96800
18.97000
18.97200
18.97400
18.97600
18.97800
18.98000
18.98200
18.98400
18.98600
18.98800
18.99000
18.99200
18.99400
18.99600
18.99800
19.00000
19.00200
19.00400
19.00600
19.00800
19.01000
19.01200
19.01400
19.01600
19.01800
19.02000
19.02200
19.02400
19.02600
19.02800
19.03000
19.03200
19.03400
19.03600
19.03800
19.04000
19.04200
19.04400
19.04600
19.04800
19.05000
19.05200
19.05400
19.05600
19.05800
19.06000
19.06200
19.06400
19.06600
19.06800
19.07000
19.07200
19.07400
19.07600
19.07800
19.08000
19.08200
19.08400
19.08600
19.08800
19.09000
19.09200
19.09400
19.09600
19.09800
19.10000
19.10200
19.10400
19.10600
19.10800
19.11000
19.11200
19.11400
19.11600
19.11800
19.12000
19.12200
19.12400
19.12600
19.12800
19.13000
19.13200
19.13400
19.13600
19.13800
19.14000
19.14200
19.14400
19.14600
19.14800
19.15000
19.15200
19.15400
19.15600
19.15800
19.16000
19.16200
19.16400
19.16600
19.16800
19.17000
19.17200
19.17400
19.17600
19.17800
19.18000
19.18200
19.18400
19.18600
19.18800
19.19000
19.19200
19.19400
19.19600
19.19800
19.20000
19.20200
19.20400
19.20600
19.20800
19.21000
19.21200
19.21400
19.21600
19.21800
19.22000
19.22200
19.22400
19.22600
19.22800
19.23000
19.23200
19.23400
19.23600
19.23800
19.24000
19.24200
19.24400
19.24600
19.24800
19.25000
19.25200
19.25400
19.25600
19.25800
19.26000
19.26200
19.26400
19.26600
19.26800
19.27000
19.27200
19.27400
19.27600
19.27800
19.28000
19.28200
19.28400
19.28600
19.28800
19.29000
19.29200
19.29400
19.29600
19.29800
19.30000
19.30200
19.30400
19.30600
19.30800
19.31000
19.31200
19.31400
19.31600
19.31800
19.32000
19.32200
19.32400
19.32600
19.32800
19.33000
19.33200
19.33400
19.33600
19.33800
19.34000
19.34200
19.34400
19.34600
19.34800
19.35000
19.35200
19.35400
19.35600
19.35800
19.36000
19.36200
19.36400
19.36600
19.36800
19.37000
19.37200
19.37400
19.37600
19.37800
19.38000
19.38200
19.38400
19.38600
19.38800
19.39000
19.39200
19.39400
19.39600
19.39800
19.40000
19.40200
19.40400
19.40600
19.40800
19.41000
19.41200
19.41400
19.41600
19.41800
19.42000
19.42200
19.42400
19.42600
19.42800
19.43000
19.43200
19.43400
19.43600
19.43800
19.44000
19.44200
19.44400
19.44600
19.44800
19.45000
19.45200
19.45400
19.45600
19.45800
19.46000
19.46200
19.46400
19.46600
19.46800
19.47000
19.47200
19.47400
19.47600
19.47800
19.48000
19.48200
19.48400
19.48600
19.48800
19.49000
19.49200
19.49400
19.49600
19.49800
19.50000
19.50200
19.50400
19.50600
19.50800
19.51000
19.51200
19.51400
19.51600
19.51800
19.52000
19.52200
19.52400
19.52600
19.52800
19.53000
19.53200
19.53400
19.53600
19.53800
19.54000
19.54200
19.54400
19.54600
19.54800
19.55000
19.55200
19.55400
19.55600
19.55800
19.56000
19.56200
19.56400
19.56600
19.56800
19.57000
19.57200
19.57400
19.57600
19.57800
19.58000
19.58200
19.58400
19.58600
19.58800
19.59000
19.59200
19.59400
19.59600
19.59800
19.60000
19.60200
19.60400
19.60600
19.60800
19.61000
19.61200
19.61400
19.61600
19.61800
19.62000
19.62200
19.62400
19.62600
19.62800
19.63000
19.63200
19.63400
19.63600
19.63800
19.64000
19.64200
19.64400
19.64600
19.64800
19.65000
19.65200
19.65400
19.65600
19.65800
19.66000
19.66200
19.66400
19.66600
19.66800
19.67000
19.67200
19.67400
19.67600
19.67800
19.68000
19.68200
19.68400
19.68600
19.68800
19.69000
19.69200
19.69400
19.69600
19.69800
19.70000
19.70200
19.70400
19.70600
19.70800
19.71000
19.71200
19.71400
19.71600
19.71800
19.72000
19.72200
19.72400
19.72600
19.72800
19.73000
19.73200
19.73400
19.73600
19.73800
19.74000
19.74200
19.74400
19.74600
19.74800
19.75000
19.75200
19.75400
19.75600
19.75800
19.76000
19.76200
19.76400
19.76600
19.76800
19.77000
19.77200
19.77400
19.77600
19.77800
19.78000
19.78200
19.78400
19.78600
19.78800
19.79000
19.79200
19.79400
19.79600
19.79800
19.80000
19.80200
19.80400
19.80600
19.80800
19.81000
19.81200
19.81400
19.81600
19.81800
19.82000
19.82200
19.82400
19.82600
19.82800
19.83000
19.83200
19.83400
19.83600
19.83800
19.84000
19.84200
19.84400
19.84600
19.84800
19.85000
19.85200
19.85400
19.85600
19.85800
19.86000
19.86200
19.86400
19.86600
19.86800
19.87000
19.87200
19.87400
19.87600
19.87800
19.88000
19.88200
19.88400
19.88600
19.88800
19.89000
19.89200
19.89400
19.89600
19.89800
19.90000
19.90200
19.90400
19.90600
19.90800
19.91000
19.91200
19.91400
19.91600
19.91800
19.92000
19.92200
19.92400
19.92600
19.92800
19.93000
19.93200
19.93400
19.93600
19.93800
19.94000
19.94200
19.94400
19.94600
19.94800
19.95000
19.95200
19.95400
19.95600
19.95800
19.96000
19.96200
19.96400
19.96600
19.96800
19.97000
19.97200
19.97400
19.97600
19.97800
19.98000
19.98200
19.98400
19.98600
19.98800
19.99000
19.99200
19.99400
19.99600
19.99800
20.00000
20.00200
20.00400
20.00600
20.00800
20.01000
20.01200
20.01400
20.01600
20.01800
20.02000
20.02200
20.02400
20.02600
20.02800
20.03000
20.03200
20.03400
20.03600
20.03800
20.04000
20.04200
20.04400
20.04600
20.04800
20.05000
20.05200
20.05400
20.05600
20.05800
20.06000
20.06200
20.06400
20.06600
20.06800
20.07000
20.07200
20.07400
20.07600
20.07800
20.08000
20.08200
20.08400
20.08600
20.08800
20.09000
20.09200
20.09400
20.09600
20.09800
20.10000
20.10200
20.10400
20.10600
20.10800
20.11000
20.11200
20.11400
20.11600
20.11800
20.12000
20.12200
20.12400
20.12600
20.12800
20.13000
20.13200
20.13400
20.13600
20.13800
20.14000
20.14200
20.14400
20.14600
20.14800
20.15000
20.15200
20.15400
20.15600
20.15800
20.16000
20.16200
20.16400
20.16600
20.16800
20.17000
20.17200
20.17400
20.17600
20.17800
20.18000
20.18200
20.18400
20.18600
20.18800
20.19000
20.19200
20.19400
20.19600
20.19800
20.20000
20.20200
20.20400
20.20600
20.20800
20.21000
20.21200
20.21400
20.21600
20.21800
20.22000
20.22200
20.22400
20.22600
20.22800
20.23000
20.23200
20.23400
20.23600
20.23800
20.24000
20.24200
20.24400
20.24600
20.24800
20.25000
20.25200
20.25400
20.25600
20.25800
20.26000
20.26200
20.26400
20.26600
20.26800
20.27000
20.27200
20.27400
20.27600
20.27800
20.28000
20.28200
20.28400
20.28600
20.28800
20.29000
20.29200
20.29400
20.29600
20.29800
20.30000
20.30200
20.30400
20.30600
20.30800
20.31000
20.31200
20.31400
20.31600
20.31800
20.32000
20.32200
20.32400
20.32600
20.32800
20.33000
20.33200
20.33400
20.33600
20.33800
20.34000
20.34200
20.34400
20.34600
20.34800
20.35000
20.35200
20.35400
20.35600
20.35800
20.36000
20.36200
20.36400
20.36600
20.36800
20.37000
20.37200
20.37400
20.37600
20.37800
20.38000
20.38200
20.38400
20.38600
20.38800
20.39000
20.39200
20.39400
20.39600
20.39800
20.40000
20.40200
20.40400
20.40600
20.40800
20.41000
20.41200
20.41400
20.41600
20.41800
20.42000
20.42200
20.42400
20.42600
20.42800
20.43000
20.43200
20.43400
20.43600
20.43800
20.44000
20.44200
20.44400
20.44600
20.44800
20.45000
20.45200
20.45400
20.45600
20.45800
20.46000
20.46200
20.46400
20.46600
20.46800
20.47000
20.47200
20.47400
20.47600
20.47800
20.48000
20.48200
20.48400
20.48600
20.48800
20.49000
20.49200
20.49400
20.49600
20.49800
20.50000
20.50200
20.50400
20.50600
20.50800
20.51000
20.51200
20.51400
20.51600
20.51800
20.52000
20.52200
20.52400
20.52600
20.52800
20.53000
20.53200
20.53400
20.53600
20.53800
20.54000
20.54200
20.54400
20.54600
20.54800
20.55000
20.55200
20.55400
20.55600
20.55800
20.56000
20.56200
20.56400
20.56600
20.56800
20.57000
20.57200
20.57400
20.57600
20.57800
20.58000
20.58200
20.58400
20.58600
20.58800
20.59000
20.59200
20.59400
20.59600
20.59800
20.60000
20.60200
20.60400
20.60600
20.60800
20.61000
20.61200
20.61400
20.61600
20.61800
20.62000
20.62200
20.62400
20.62600
20.62800
20.63000
20.63200
20.63400
20.63600
20.63800
20.64000
20.64200
20.64400
20.64600
20.64800
20.65000
20.65200
20.65400
20.65600
20.65800
20.66000
20.66200
20.66400
20.66600
20.66800
20.67000
20.67200
20.67400
20.67600
20.67800
20.68000
20.68200
20.68400
20.68600
20.68800
20.69000
20.69200
20.69400
20.69600
20.69800
20.70000
20.70200
20.70400
20.70600
20.70800
20.71000
20.71200
20.71400
20.71600
20.71800
20.72000
20.72200
20.72400
20.72600
20.72800
20.73000
20.73200
20.73400
20.73600
20.73800
20.74000
20.74200
20.74400
20.74600
20.74800
20.75000
20.75200
20.75400
20.75600
20.75800
20.76000
20.76200
20.76400
20.76600
20.76800
20.77000
20.77200
20.77400
20.77600
20.77800
20.78000
20.78200
20.78400
20.78600
20.78800
20.79000
20.79200
20.79400
20.79600
20.79800
20.80000
20.80200
20.80400
20.80600
20.80800
20.81000
20.81200
20.81400
20.81600
20.81800
20.82000
20.82200
20.82400
20.82600
20.82800
20.83000
20.83200
20.83400
20.83600
20.83800
20.84000
20.84200
20.84400
20.84600
20.84800
20.85000
20.85200
20.85400
20.85600
20.85800
20.86000
20.86200
20.86400
20.86600
20.86800
20.87000
20.87200
20.87400
20.87600
20.87800
20.88000
20.88200
20.88400
20.88600
20.88800
20.89000
20.89200
20.89400
20.89600
20.89800
20.90000
20.90200
20.90400
20.90600
20.90800
20.91000
20.91200
20.91400
20.91600
20.91800
20.92000
20.92200
20.92400
20.92600
20.92800
20.93000
20.93200
20.93400
20.93600
20.93800
20.94000
20.94200
20.94400
20.94600
20.94800
20.95000
20.95200
20.95400
20.95600
20.95800
20.96000
20.96200
20.96400
20.96600
20.96800
20.97000
20.97200
20.97400
20.97600
20.97800
20.98000
20.98200
20.98400
20.98600
20.98800
20.99000
20.99200
20.99400
20.99600
20.99800
21.00000
21.00200
21.00400
21.00600
21.00800
21.01000
21.01200
21.01400
21.01600
21.01800
21.02000
21.02200
21.02400
21.02600
21.02800
21.03000
21.03200
21.03400
21.03600
21.03800
21.04000
21.04200
21.04400
21.04600
21.04800
21.05000
21.05200
21.05400
21.05600
21.05800
21.06000
21.06200
21.06400
21.06600
21.06800
21.07000
21.07200
21.07400
21.07600
21.07800
21.08000
21.08200
21.08400
21.08600
21.08800
21.09000
21.09200
21.09400
21.09600
21.09800
21.10000
21.10200
21.10400
21.10600
21.10800
21.11000
21.11200
21.11400
21.11600
21.11800
21.12000
21.12200
21.12400
21.12600
21.12800
21.13000
21.13200
21.13400
21.13600
21.13800
21.14000
21.14200
21.14400
21.14600
21.14800
21.15000
21.15200
21.15400
21.15600
21.15800
21.16000
21.16200
21.16400
21.16600
21.16800
21.17000
21.17200
21.17400
21.17600
21.17800
21.18000
21.18200
21.18400
21.18600
21.18800
21.19000
21.19200
21.19400
21.19600
21.19800
21.20000
21.20200
21.20400
21.20600
21.20800
21.21000
21.21200
21.21400
21.21600
21.21800
21.22000
21.22200
21.22400
21.22600
21.22800
21.23000
21.23200
21.23400
21.23600
21.23800
21.24000
21.24200
21.24400
21.24600
21.24800
21.25000
21.25200
21.25400
21.25600
21.25800
21.26000
21.26200
21.26400
21.26600
21.26800
21.27000
21.27200
21.27400
21.27600
21.27800
21.28000
21.28200
21.28400
21.28600
21.28800
21.29000
21.29200
21.29400
21.29600
21.29800
21.30000
21.30200
21.30400
21.30600
21.30800
21.31000
21.31200
21.31400
21.31600
21.31800
21.32000
21.32200
21.32400
21.32600
21.32800
21.33000
21.33200
21.33400
21.33600
21.33800
21.34000
21.34200
21.34400
21.34600
21.34800
21.35000
21.35200
21.35400
21.35600
21.35800
21.36000
21.36200
21.36400
21.36600
21.36800
21.37000
21.37200
21.37400
21.37600
21.37800
21.38000
21.38200
21.38400
21.38600
21.38800
21.39000
21.39200
21.39400
21.39600
21.39800
21.40000
21.40200
21.40400
21.40600
21.40800
21.41000
21.41200
21.41400
21.41600
21.41800
21.42000
21.42200
21.42400
21.42600
21.42800
21.43000
21.43200
21.43400
21.43600
21.43800
21.44000
21.44200
21.44400
21.44600
21.44800
21.45000
21.45200
21.45400
21.45600
21.45800
21.46000
21.46200
21.46400
21.46600
21.46800
21.47000
21.47200
21.47400
21.47600
21.47800
21.48000
21.48200
21.48400
21.48600
21.48800
21.49000
21.49200
21.49400
21.49600
21.49800
21.50000
21.50200
21.50400
21.50600
21.50800
21.51000
21.51200
21.51400
21.51600
21.51800
21.52000
21.52200
21.52400
21.52600
21.52800
21.53000
21.53200
21.53400
21.53600
21.53800
21.54000
21.54200
21.54400
21.54600
21.54800
21.55000
21.55200
21.55400
21.55600
21.55800
21.56000
21.56200
21.56400
21.56600
21.56800
21.57000
21.57200
21.57400
21.57600
21.57800
21.58000
21.58200
21.58400
21.58600
21.58800
21.59000
21.59200
21.59400
21.59600
21.59800
21.60000
21.60200
21.60400
21.60600
21.60800
21.61000
21.61200
21.61400
21.61600
21.61800
21.62000
21.62200
21.62400
21.62600
21.62800
21.63000
21.63200
21.63400
21.63600
21.63800
21.64000
21.64200
21.64400
21.64600
21.64800
21.65000
21.65200
21.65400
21.65600
21.65800
21.66000
21.66200
21.66400
21.66600
21.66800
21.67000
21.67200
21.67400
21.67600
21.67800
21.68000
21.68200
21.68400
21.68600
21.68800
21.69000
21.69200
21.69400
21.69600
21.69800
21.70000
21.70200
21.70400
21.70600
21.70800
21.71000
21.71200
21.71400
21.71600
21.71800
21.72000
21.72200
21.72400
21.72600
21.72800
21.73000
21.73200
21.73400
21.73600
21.73800
21.74000
21.74200
21.74400
21.74600
21.74800
21.75000
21.75200
21.75400
21.75600
21.75800
21.76000
21.76200
21.76400
21.76600
21.76800
21.77000
21.77200
21.77400
21.77600
21.77800
21.78000
21.78200
21.78400
21.78600
21.78800
21.79000
21.79200
21.79400
21.79600
21.79800
21.80000
21.80200
21.80400
21.80600
21.80800
21.81000
21.81200
21.81400
21.81600
21.81800
21.82000
21.82200
21.82400
21.82600
21.82800
21.83000
21.83200
21.83400
21.83600
21.83800
21.84000
21.84200
21.84400
21.84600
21.84800
21.85000
21.85200
21.85400
21.85600
21.85800
21.86000
21.86200
21.86400
21.86600
21.86800
21.87000
21.87200
21.87400
21.87600
21.87800
21.88000
21.88200
21.88400
21.88600
21.88800
21.89000
21.89200
21.89400
21.89600
21.89800
21.90000
21.90200
21.90400
21.90600
21.90800
21.91000
21.91200
21.91400
21.91600
21.91800
21.92000
21.92200
21.92400
21.92600
21.92800
21.93000
21.93200
21.93400
21.93600
21.93800
21.94000
21.94200
21.94400
21.94600
21.94800
21.95000
21.95200
21.95400
21.95600
21.95800
21.96000
21.96200
21.96400
21.96600
21.96800
21.97000
21.97200
21.97400
21.97600
21.97800
21.98000
21.98200
21.98400
21.98600
21.98800
21.99000
21.99200
21.99400
21.99600
21.99800
22.00000
22.00200
22.00400
22.00600
22.00800
22.01000
22.01200
22.01400
22.01600
22.01800
22.02000
22.02200
22.02400
22.02600
22.02800
22.03000
22.03200
22.03400
22.03600
22.03800
22.04000
22.04200
22.04400
22.04600
22.04800
22.05000
22.05200
22.05400
22.05600
22.05800
22.06000
22.06200
22.06400
22.06600
22.06800
22.07000
22.07200
22.07400
22.07600
22.07800
22.08000
22.08200
22.08400
22.08600
22.08800
22.09000
22.09200
22.09400
22.09600
22.09800
22.10000
22.10200
22.10400
22.10600
22.10800
22.11000
22.11200
22.11400
22.11600
22.11800
22.12000
22.12200
22.12400
22.12600
22.12800
22.13000
22.13200
22.13400
22.13600
22.13800
22.14000
22.14200
22.14400
22.14600
22.14800
22.15000
22.15200
22.15400
22.15600
22.15800
22.16000
22.16200
22.16400
22.16600
22.16800
22.17000
22.17200
22.17400
22.17600
22.17800
22.18000
22.18200
22.18400
22.18600
22.18800
22.19000
22.19200
22.19400
22.19600
22.19800
22.20000
22.20200
22.20400
22.20600
22.20800
22.21000
22.21200
22.21400
22.21600
22.21800
22.22000
22.22200
22.22400
22.22600
22.22800
22.23000
22.23200
22.23400
22.23600
22.23800
22.24000
22.24200
22.24400
22.24600
22.24800
22.25000
22.25200
22.25400
22.25600
22.25800
22.26000
22.26200
22.26400
22.26600
22.26800
22.27000
22.27200
22.27400
22.27600
22.27800
22.28000
22.28200
22.28400
22.28600
22.28800
22.29000
22.29200
22.29400
22.29600
22.29800
22.30000
22.30200
22.30400
22.30600
22.30800
22.31000
22.31200
22.31400
22.31600
22.31800
22.32000
22.32200
22.32400
22.32600
22.32800
22.33000
22.33200
22.33400
22.33600
22.33800
22.34000
22.34200
22.34400
22.34600
22.34800
22.35000
22.35200
22.35400
22.35600
22.35800
22.36000
22.36200
22.36400
22.36600
22.36800
22.37000
22.37200
22.37400
22.37600
22.37800
22.38000
22.38200
22.38400
22.38600
22.38800
22.39000
22.39200
22.39400
22.39600
22.39800
22.40000
22.40200
22.40400
22.40600
22.40800
22.41000
22.41200
22.41400
22.41600
22.41800
22.42000
22.42200
22.42400
22.42600
22.42800
22.43000
22.43200
22.43400
22.43600
22.43800
22.44000
22.44200
22.44400
22.44600
22.44800
22.45000
22.45200
22.45400
22.45600
22.45800
22.46000
22.46200
22.46400
22.46600
22.46800
22.47000
22.47200
22.47400
22.47600
22.47800
22.48000
22.48200
22.48400
22.48600
22.48800
22.49000
22.49200
22.49400
22.49600
22.49800
22.50000
22.50200
22.50400
22.50600
22.50800
22.51000
22.51200
22.51400
22.51600
22.51800
22.52000
22.52200
22.52400
22.52600
22.52800
22.53000
22.53200
22.53400
22.53600
22.53800
22.54000
22.54200
22.54400
22.54600
22.54800
22.55000
22.55200
22.55400
22.55600
22.55800
22.56000
22.56200
22.56400
22.56600
22.56800
22.57000
22.57200
22.57400
22.57600
22.57800
22.58000
22.58200
22.58400
22.58600
22.58800
22.59000
22.59200
22.59400
22.59600
22.59800
22.60000
22.60200
22.60400
22.60600
22.60800
22.61000
22.61200
22.61400
22.61600
22.61800
22.62000
22.62200
22.62400
22.62600
22.62800
22.63000
22.63200
22.63400
22.63600
22.63800
22.64000
22.64200
22.64400
22.64600
22.64800
22.65000
22.65200
22.65400
22.65600
22.65800
22.66000
22.66200
22.66400
22.66600
22.66800
22.67000
22.67200
22.67400
22.67600
22.67800
22.68000
22.68200
22.68400
22.68600
22.68800
22.69000
22.69200
22.69400
22.69600
22.69800
22.70000
22.70200
22.70400
22.70600
22.70800
22.71000
22.71200
22.71400
22.71600
22.71800
22.72000
22.72200
22.72400
22.72600
22.72800
22.73000
22.73200
22.73400
22.73600
22.73800
22.74000
22.74200
22.74400
22.74600
22.74800
22.75000
22.75200
22.75400
22.75600
22.75800
22.76000
22.76200
22.76400
22.76600
22.76800
22.77000
22.77200
22.77400
22.77600
22.77800
22.78000
22.78200
22.78400
22.78600
22.78800
22.79000
22.79200
22.79400
22.79600
22.79800
22.80000
22.80200
22.80400
22.80600
22.80800
22.81000
22.81200
22.81400
22.81600
22.81800
22.82000
22.82200
22.82400
22.82600
22.82800
22.83000
22.83200
22.83400
22.83600
22.83800
22.84000
22.84200
22.84400
22.84600
22.84800
22.85000
22.85200
22.85400
22.85600
22.85800
22.86000
22.86200
22.86400
22.86600
22.86800
22.87000
22.87200
22.87400
22.87600
22.87800
22.88000
22.88200
22.88400
22.88600
22.88800
22.89000
22.89200
22.89400
22.89600
22.89800
22.90000
22.90200
22.90400
22.90600
22.90800
22.91000
22.91200
22.91400
22.91600
22.91800
22.92000
22.92200
22.92400
22.92600
22.92800
22.93000
22.93200
22.93400
22.93600
22.93800
22.94000
22.94200
22.94400
22.94600
22.94800
22.95000
22.95200
22.95400
22.95600
22.95800
22.96000
22.96200
22.96400
22.96600
22.96800
22.97000
22.97200
22.97400
22.97600
22.97800
22.98000
22.98200
22.98400
22.98600
22.98800
22.99000
22.99200
22.99400
22.99600
22.99800
23.00000
23.00200
23.00400
23.00600
23.00800
23.01000
23.01200
23.01400
23.01600
23.01800
23.02000
23.02200
23.02400
23.02600
23.02800
23.03000
23.03200
23.03400
23.03600
23.03800
23.04000
23.04200
23.04400
23.04600
23.04800
23.05000
23.05200
23.05400
23.05600
23.05800
23.06000
23.06200
23.06400
23.06600
23.06800
23.07000
23.07200
23.07400
23.07600
23.07800
23.08000
23.08200
23.08400
23.08600
23.08800
23.09000
23.09200
23.09400
23.09600
23.09800
23.10000
23.10200
23.10400
23.10600
23.10800
23.11000
23.11200
23.11400
23.11600
23.11800
23.12000
23.12200
23.12400
23.12600
23.12800
23.13000
23.13200
23.13400
23.13600
23.13800
23.14000
23.14200
23.14400
23.14600
23.14800
23.15000
23.15200
23.15400
23.15600
23.15800
23.16000
23.16200
23.16400
23.16600
23.16800
23.17000
23.17200
23.17400
23.17600
23.17800
23.18000
23.18200
23.18400
23.18600
23.18800
23.19000
23.19200
23.19400
23.19600
23.19800
23.20000
23.20200
23.20400
23.20600
23.20800
23.21000
23.21200
23.21400
23.21600
23.21800
23.22000
23.22200
23.22400
23.22600
23.22800
23.23000
23.23200
23.23400
23.23600
23.23800
23.24000
23.24200
23.24400
23.24600
23.24800
23.25000
23.25200
23.25400
23.25600
23.25800
23.26000
23.26200
23.26400
23.26600
23.26800
23.27000
23.27200
23.27400
23.27600
23.27800
23.28000
23.28200
23.28400
23.28600
23.28800
23.29000
23.29200
23.29400
23.29600
23.29800
23.30000
23.30200
23.30400
23.30600
23.30800
23.31000
23.31200
23.31400
23.31600
23.31800
23.32000
23.32200
23.32400
23.32600
23.32800
23.33000
23.33200
23.33400
23.33600
23.33800
23.34000
23.34200
23.34400
23.34600
23.34800
23.35000
23.35200
23.35400
23.35600
23.35800
23.36000
23.36200
23.36400
23.36600
23.36800
23.37000
23.37200
23.37400
23.37600
23.37800
23.38000
23.38200
23.38400
23.38600
23.38800
23.39000
23.39200
23.39400
23.39600
23.39800
23.40000
23.40200
23.40400
23.40600
23.40800
23.41000
23.41200
23.41400
23.41600
23.41800
23.42000
23.42200
23.42400
23.42600
23.42800
23.43000
23.43200
23.43400
23.43600
23.43800
23.44000
23.44200
23.44400
23.44600
23.44800
23.45000
23.45200
23.45400
23.45600
23.45800
23.46000
23.46200
23.46400
23.46600
23.46800
23.47000
23.47200
23.47400
23.47600
23.47800
23.48000
23.48200
23.48400
23.48600
23.48800
23.49000
23.49200
23.49400
23.49600
23.49800
23.50000
23.50200
23.50400
23.50600
23.50800
23.51000
23.51200
23.51400
23.51600
23.51800
23.52000
23.52200
23.52400
23.52600
23.52800
23.53000
23.53200
23.53400
23.53600
23.53800
23.54000
23.54200
23.54400
23.54600
23.54800
23.55000
23.55200
23.55400
23.55600
23.55800
23.56000
23.56200
23.56400
23.56600
23.56800
23.57000
23.57200
23.57400
23.57600
23.57800
23.58000
23.58200
23.58400
23.58600
23.58800
23.59000
23.59200
23.59400
23.59600
23.59800
23.60000
23.60200
23.60400
23.60600
23.60800
23.61000
23.61200
23.61400
23.61600
23.61800
23.62000
23.62200
23.62400
23.62600
23.62800
23.63000
23.63200
23.63400
23.63600
23.63800
23.64000
23.64200
23.64400
23.64600
23.64800
23.65000
23.65200
23.65400
23.65600
23.65800
23.66000
23.66200
23.66400
23.66600
23.66800
23.67000
23.67200
23.67400
23.67600
23.67800
23.68000
23.68200
23.68400
23.68600
23.68800
23.69000
23.69200
23.69400
23.69600
23.69800
23.70000
23.70200
23.70400
23.70600
23.70800
23.71000
23.71200
23.71400
23.71600
23.71800
23.72000
23.72200
23.72400
23.72600
23.72800
23.73000
23.73200
23.73400
23.73600
23.73800
23.74000
23.74200
23.74400
23.74600
23.74800
23.75000
23.75200
23.75400
23.75600
23.75800
23.76000
23.76200
23.76400
23.76600
23.76800
23.77000
23.77200
23.77400
23.77600
23.77800
23.78000
23.78200
23.78400
23.78600
23.78800
23.79000
23.79200
23.79400
23.79600
23.79800
23.80000
23.80200
23.80400
23.80600
23.80800
23.81000
23.81200
23.81400
23.81600
23.81800
23.82000
23.82200
23.82400
23.82600
23.82800
23.83000
23.83200
23.83400
23.83600
23.83800
23.84000
23.84200
23.84400
23.84600
23.84800
23.85000
23.85200
23.85400
23.85600
23.85800
23.86000
23.86200
23.86400
23.86600
23.86800
23.87000
23.87200
23.87400
23.87600
23.87800
23.88000
23.88200
23.88400
23.88600
23.88800
23.89000
23.89200
23.89400
23.89600
23.89800
23.90000
23.90200
23.90400
23.90600
23.90800
23.91000
23.91200
23.91400
23.91600
23.91800
23.92000
23.92200
23.92400
23.92600
23.92800
23.93000
23.93200
23.93400
23.93600
23.93800
23.94000
23.94200
23.94400
23.94600
23.94800
23.95000
23.95200
23.95400
23.95600
23.95800
23.96000
23.96200
23.96400
23.96600
23.96800
23.97000
23.97200
23.97400
23.97600
23.97800
23.98000
23.98200
23.98400
23.98600
23.98800
23.99000
23.99200
23.99400
23.99600
23.99800
24.00000
24.00200
24.00400
24.00600
24.00800
24.01000
24.01200
24.01400
24.01600
24.01800
24.02000
24.02200
24.02400
24.02600
24.02800
24.03000
24.03200
24.03400
24.03600
24.03800
24.04000
24.04200
24.04400
24.04600
24.04800
24.05000
24.05200
24.05400
24.05600
24.05800
24.06000
24.06200
24.06400
24.06600
24.06800
24.07000
24.07200
24.07400
24.07600
24.07800
24.08000
24.08200
24.08400
24.08600
24.08800
24.09000
24.09200
24.09400
24.09600
24.09800
24.10000
24.10200
24.10400
24.10600
24.10800
24.11000
24.11200
24.11400
24.11600
24.11800
24.12000
24.12200
24.12400
24.12600
24.12800
24.13000
24.13200
24.13400
24.13600
24.13800
24.14000
24.14200
24.14400
24.14600
24.14800
24.15000
24.15200
24.15400
24.15600
24.15800
24.16000
24.16200
24.16400
24.16600
24.16800
24.17000
24.17200
24.17400
24.17600
24.17800
24.18000
24.18200
24.18400
24.18600
24.18800
24.19000
24.19200
24.19400
24.19600
24.19800
24.20000
24.20200
24.20400
24.20600
24.20800
24.21000
24.21200
24.21400
24.21600
24.21800
24.22000
24.22200
24.22400
24.22600
24.22800
24.23000
24.23200
24.23400
24.23600
24.23800
24.24000
24.24200
24.24400
24.24600
24.24800
24.25000
24.25200
24.25400
24.25600
24.25800
24.26000
24.26200
24.26400
24.26600
24.26800
24.27000
24.27200
24.27400
24.27600
24.27800
24.28000
24.28200
24.28400
24.28600
24.28800
24.29000
24.29200
24.29400
24.29600
24.29800
24.30000
24.30200
24.30400
24.30600
24.30800
24.31000
24.31200
24.31400
24.31600
24.31800
24.32000
24.32200
24.32400
24.32600
24.32800
24.33000
24.33200
24.33400
24.33600
24.33800
24.34000
24.34200
24.34400
24.34600
24.34800
24.35000
24.35200
24.35400
24.35600
24.35800
24.36000
24.36200
24.36400
24.36600
24.36800
24.37000
24.37200
24.37400
24.37600
24.37800
24.38000
24.38200
24.38400
24.38600
24.38800
24.39000
24.39200
24.39400
24.39600
24.39800
24.40000
24.40200
24.40400
24.40600
24.40800
24.41000
24.41200
24.41400
24.41600
24.41800
24.42000
24.42200
24.42400
24.42600
24.42800
24.43000
24.43200
24.43400
24.43600
24.43800
24.44000
24.44200
24.44400
24.44600
24.44800
24.45000
24.45200
24.45400
24.45600
24.45800
24.46000
24.46200
24.46400
24.46600
24.46800
24.47000
24.47200
24.47400
24.47600
24.47800
24.48000
24.48200
24.48400
24.48600
24.48800
24.49000
24.49200
24.49400
24.49600
24.49800
24.50000
24.50200
24.50400
24.50600
24.50800
24.51000
24.51200
24.51400
24.51600
24.51800
24.52000
24.52200
24.52400
24.52600
24.52800
24.53000
24.53200
24.53400
24.53600
24.53800
24.54000
24.54200
24.54400
24.54600
24.54800
24.55000
24.55200
24.55400
24.55600
24.55800
24.56000
24.56200
24.56400
24.56600
24.56800
24.57000
24.57200
24.57400
24.57600
24.57800
24.58000
24.58200
24.58400
24.58600
24.58800
24.59000
24.59200
24.59400
24.59600
24.59800
24.60000
24.60200
24.60400
24.60600
24.60800
24.61000
24.61200
24.61400
24.61600
24.61800
24.62000
24.62200
24.62400
24.62600
24.62800
24.63000
24.63200
24.63400
24.63600
24.63800
24.64000
24.64200
24.64400
24.64600
24.64800
24.65000
24.65200
24.65400
24.65600
24.65800
24.66000
24.66200
24.66400
24.66600
24.66800
24.67000
24.67200
24.67400
24.67600
24.67800
24.68000
24.68200
24.68400
24.68600
24.68800
24.69000
24.69200
24.69400
24.69600
24.69800
24.70000
24.70200
24.70400
24.70600
24.70800
24.71000
24.71200
24.71400
24.71600
24.71800
24.72000
24.72200
24.72400
24.72600
24.72800
24.73000
24.73200
24.73400
24.73600
24.73800
24.74000
24.74200
24.74400
24.74600
24.74800
24.75000
24.75200
24.75400
24.75600
24.75800
24.76000
24.76200
24.76400
24.76600
24.76800
24.77000
24.77200
24.77400
24.77600
24.77800
24.78000
24.78200
24.78400
24.78600
24.78800
24.79000
24.79200
24.79400
24.79600
24.79800
24.80000
24.80200
24.80400
24.80600
24.80800
24.81000
24.81200
24.81400
24.81600
24.81800
24.82000
24.82200
24.82400
24.82600
24.82800
24.83000
24.83200
24.83400
24.83600
24.83800
24.84000
24.84200
24.84400
24.84600
24.84800
24.85000
24.85200
24.85400
24.85600
24.85800
24.86000
24.86200
24.86400
24.86600
24.86800
24.87000
24.87200
24.87400
24.87600
24.87800
24.88000
24.88200
24.88400
24.88600
24.88800
24.89000
24.89200
24.89400
24.89600
24.89800
24.90000
24.90200
24.90400
24.90600
24.90800
24.91000
24.91200
24.91400
24.91600
24.91800
24.92000
24.92200
24.92400
24.92600
24.92800
24.93000
24.93200
24.93400
24.93600
24.93800
24.94000
24.94200
24.94400
24.94600
24.94800
24.95000
24.95200
24.95400
24.95600
24.95800
24.96000
24.96200
24.96400
24.96600
24.96800
24.97000
24.97200
24.97400
24.97600
24.97800
24.98000
24.98200
24.98400
24.98600
24.98800
24.99000
24.99200
24.99400
24.99600
24.99800
25.00000
25.00200
25.00400
25.00600
25.00800
25.01000
25.01200
25.01400
25.01600
25.01800
25.02000
25.02200
25.02400
25.02600
25.02800
25.03000
25.03200
25.03400
25.03600
25.03800
25.04000
25.04200
25.04400
25.04600
25.04800
25.05000
25.05200
25.05400
25.05600
25.05800
25.06000
25.06200
25.06400
25.06600
25.06800
25.07000
25.07200
25.07400
25.07600
25.07800
25.08000
25.08200
25.08400
25.08600
25.08800
25.09000
25.09200
25.09400
25.09600
25.09800
25.10000
25.10200
25.10400
25.10600
25.10800
25.11000
25.11200
25.11400
25.11600
25.11800
25.12000
25.12200
25.12400
25.12600
25.12800
25.13000
25.13200
25.13400
25.13600
25.13800
25.14000
25.14200
25.14400
25.14600
25.14800
25.15000
25.15200
25.15400
25.15600
25.15800
25.16000
25.16200
25.16400
25.16600
25.16800
25.17000
25.17200
25.17400
25.17600
25.17800
25.18000
25.18200
25.18400
25.18600
25.18800
25.19000
25.19200
25.19400
25.19600
25.19800
25.20000
25.20200
25.20400
25.20600
25.20800
25.21000
25.21200
25.21400
25.21600
25.21800
25.22000
25.22200
25.22400
25.22600
25.22800
25.23000
25.23200
25.23400
25.23600
25.23800
25.24000
25.24200
25.24400
25.24600
25.24800
25.25000
25.25200
25.25400
25.25600
25.25800
25.26000
25.26200
25.26400
25.26600
25.26800
25.27000
25.27200
25.27400
25.27600
25.27800
25.28000
25.28200
25.28400
25.28600
25.28800
25.29000
25.29200
25.29400
25.29600
25.29800
25.30000
25.30200
25.30400
25.30600
25.30800
25.31000
25.31200
25.31400
25.31600
25.31800
25.32000
25.32200
25.32400
25.32600
25.32800
25.33000
25.33200
25.33400
25.33600
25.33800
25.34000
25.34200
25.34400
25.34600
25.34800
25.35000
25.35200
25.35400
25.35600
25.35800
25.36000
25.36200
25.36400
25.36600
25.36800
25.37000
25.37200
25.37400
25.37600
25.37800
25.38000
25.38200
25.38400
25.38600
25.38800
25.39000
25.39200
25.39400
25.39600
25.39800
25.40000
25.40200
25.40400
25.40600
25.40800
25.41000
25.41200
25.41400
25.41600
25.41800
25.42000
25.42200
25.42400
25.42600
25.42800
25.43000
25.43200
25.43400
25.43600
25.43800
25.44000
25.44200
25.44400
25.44600
25.44800
25.45000
25.45200
25.45400
25.45600
25.45800
25.46000
25.46200
25.46400
25.46600
25.46800
25.47000
25.47200
25.47400
25.47600
25.47800
25.48000
25.48200
25.48400
25.48600
25.48800
25.49000
25.49200
25.49400
25.49600
25.49800
25.50000
25.50200
25.50400
25.50600
25.50800
25.51000
25.51200
25.51400
25.51600
25.51800
25.52000
25.52200
25.52400
25.52600
25.52800
25.53000
25.53200
25.53400
25.53600
25.53800
25.54000
25.54200
25.54400
25.54600
25.54800
25.55000
25.55200
25.55400
25.55600
25.55800
25.56000
25.56200
25.56400
25.56600
25.56800
25.57000
25.57200
25.57400
25.57600
25.57800
25.58000
25.58200
25.58400
25.58600
25.58800
25.59000
25.59200
25.59400
25.59600
25.59800
25.60000
25.60200
25.60400
25.60600
25.60800
25.61000
25.61200
25.61400
25.61600
25.61800
25.62000
25.62200
25.62400
25.62600
25.62800
25.63000
25.63200
25.63400
25.63600
25.63800
25.64000
25.64200
25.64400
25.64600
25.64800
25.65000
25.65200
25.65400
25.65600
25.65800
25.66000
25.66200
25.66400
25.66600
25.66800
25.67000
25.67200
25.67400
25.67600
25.67800
25.68000
25.68200
25.68400
25.68600
25.68800
25.69000
25.69200
25.69400
25.69600
25.69800
25.70000
25.70200
25.70400
25.70600
25.70800
25.71000
25.71200
25.71400
25.71600
25.71800
25.72000
25.72200
25.72400
25.72600
25.72800
25.73000
25.73200
25.73400
25.73600
25.73800
25.74000
25.74200
25.74400
25.74600
25.74800
25.75000
25.75200
25.75400
25.75600
25.75800
25.76000
25.76200
25.76400
25.76600
25.76800
25.77000
25.77200
25.77400
25.77600
25.77800
25.78000
25.78200
25.78400
25.78600
25.78800
25.79000
25.79200
25.79400
25.79600
25.79800
25.80000
25.80200
25.80400
25.80600
25.80800
25.81000
25.81200
25.81400
25.81600
25.81800
25.82000
25.82200
25.82400
25.82600
25.82800
25.83000
25.83200
25.83400
25.83600
25.83800
25.84000
25.84200
25.84400
25.84600
25.84800
25.85000
25.85200
25.85400
25.85600
25.85800
25.86000
25.86200
25.86400
25.86600
25.86800
25.87000
25.87200
25.87400
25.87600
25.87800
25.88000
25.88200
25.88400
25.88600
25.88800
25.89000
25.89200
25.89400
25.89600
25.89800
25.90000
25.90200
25.90400
25.90600
25.90800
25.91000
25.91200
25.91400
25.91600
25.91800
25.92000
25.92200
25.92400
25.92600
25.92800
25.93000
25.93200
25.93400
25.93600
25.93800
25.94000
25.94200
25.94400
25.94600
25.94800
25.95000
25.95200
25.95400
25.95600
25.95800
25.96000
25.96200
25.96400
25.96600
25.96800
25.97000
25.97200
25.97400
25.97600
25.97800
25.98000
25.98200
25.98400
25.98600
25.98800
25.99000
25.99200
25.99400
25.99600
25.99800
26.00000
26.00200
26.00400
26.00600
26.00800
26.01000
26.01200
26.01400
26.01600
26.01800
26.02000
26.02200
26.02400
26.02600
26.02800
26.03000
26.03200
26.03400
26.03600
26.03800
26.04000
26.04200
26.04400
26.04600
26.04800
26.05000
26.05200
26.05400
26.05600
26.05800
26.06000
26.06200
26.06400
26.06600
26.06800
26.07000
26.07200
26.07400
26.07600
26.07800
26.08000
26.08200
26.08400
26.08600
26.08800
26.09000
26.09200
26.09400
26.09600
26.09800
26.10000
26.10200
26.10400
26.10600
26.10800
26.11000
26.11200
26.11400
26.11600
26.11800
26.12000
26.12200
26.12400
26.12600
26.12800
26.13000
26.13200
26.13400
26.13600
26.13800
26.14000
26.14200
26.14400
26.14600
26.14800
26.15000
26.15200
26.15400
26.15600
26.15800
26.16000
26.16200
26.16400
26.16600
26.16800
26.17000
26.17200
26.17400
26.17600
26.17800
26.18000
26.18200
26.18400
26.18600
26.18800
26.19000
26.19200
26.19400
26.19600
26.19800
26.20000
26.20200
26.20400
26.20600
26.20800
26.21000
26.21200
26.21400
26.21600
26.21800
26.22000
26.22200
26.22400
26.22600
26.22800
26.23000
26.23200
26.23400
26.23600
26.23800
26.24000
26.24200
26.24400
26.24600
26.24800
26.25000
26.25200
26.25400
26.25600
26.25800
26.26000
26.26200
26.26400
26.26600
26.26800
26.27000
26.27200
26.27400
26.27600
26.27800
26.28000
26.28200
26.28400
26.28600
26.28800
26.29000
26.29200
26.29400
26.29600
26.29800
26.30000
26.30200
26.30400
26.30600
26.30800
26.31000
26.31200
26.31400
26.31600
26.31800
26.32000
26.32200
26.32400
26.32600
26.32800
26.33000
26.33200
26.33400
26.33600
26.33800
26.34000
26.34200
26.34400
26.34600
26.34800
26.35000
26.35200
26.35400
26.35600
26.35800
26.36000
26.36200
26.36400
26.36600
26.36800
26.37000
26.37200
26.37400
26.37600
26.37800
26.38000
26.38200
26.38400
26.38600
26.38800
26.39000
26.39200
26.39400
26.39600
26.39800
26.40000
26.40200
26.40400
26.40600
26.40800
26.41000
26.41200
26.41400
26.41600
26.41800
26.42000
26.42200
26.42400
26.42600
26.42800
26.43000
26.43200
26.43400
26.43600
26.43800
26.44000
26.44200
26.44400
26.44600
26.44800
26.45000
26.45200
26.45400
26.45600
26.45800
26.46000
26.46200
26.46400
26.46600
26.46800
26.47000
26.47200
26.47400
26.47600
26.47800
26.48000
26.48200
26.48400
26.48600
26.48800
26.49000
26.49200
26.49400
26.49600
26.49800
26.50000
26.50200
26.50400
26.50600
26.50800
26.51000
26.51200
26.51400
26.51600
26.51800
26.52000
26.52200
26.52400
26.52600
26.52800
26.53000
26.53200
26.53400
26.53600
26.53800
26.54000
26.54200
26.54400
26.54600
26.54800
26.55000
26.55200
26.55400
26.55600
26.55800
26.56000
26.56200
26.56400
26.56600
26.56800
26.57000
26.57200
26.57400
26.57600
26.57800
26.58000
26.58200
26.58400
26.58600
26.58800
26.59000
26.59200
26.59400
26.59600
26.59800
26.60000
26.60200
26.60400
26.60600
26.60800
26.61000
26.61200
26.61400
26.61600
26.61800
26.62000
26.62200
26.62400
26.62600
26.62800
26.63000
26.63200
26.63400
26.63600
26.63800
26.64000
26.64200
26.64400
26.64600
26.64800
26.65000
26.65200
26.65400
26.65600
26.65800
26.66000
26.66200
26.66400
26.66600
26.66800
26.67000
26.67200
26.67400
26.67600
26.67800
26.68000
26.68200
26.68400
26.68600
26.68800
26.69000
26.69200
26.69400
26.69600
26.69800
26.70000
26.70200
26.70400
26.70600
26.70800
26.71000
26.71200
26.71400
26.71600
26.71800
26.72000
26.72200
26.72400
26.72600
26.72800
26.73000
26.73200
26.73400
26.73600
26.73800
26.74000
26.74200
26.74400
26.74600
26.74800
26.75000
26.75200
26.75400
26.75600
26.75800
26.76000
26.76200
26.76400
26.76600
26.76800
26.77000
26.77200
26.77400
26.77600
26.77800
26.78000
26.78200
26.78400
26.78600
26.78800
26.79000
26.79200
26.79400
26.79600
26.79800
26.80000
26.80200
26.80400
26.80600
26.80800
26.81000
26.81200
26.81400
26.81600
26.81800
26.82000
26.82200
26.82400
26.82600
26.82800
26.83000
26.83200
26.83400
26.83600
26.83800
26.84000
26.84200
26.84400
26.84600
26.84800
26.85000
26.85200
26.85400
26.85600
26.85800
26.86000
26.86200
26.86400
26.86600
26.86800
26.87000
26.87200
26.87400
26.87600
26.87800
26.88000
26.88200
26.88400
26.88600
26.88800
26.89000
26.89200
26.89400
26.89600
26.89800
26.90000
26.90200
26.90400
26.90600
26.90800
26.91000
26.91200
26.91400
26.91600
26.91800
26.92000
26.92200
26.92400
26.92600
26.92800
26.93000
26.93200
26.93400
26.93600
26.93800
26.94000
26.94200
26.94400
26.94600
26.94800
26.95000
26.95200
26.95400
26.95600
26.95800
26.96000
26.96200
26.96400
26.96600
26.96800
26.97000
26.97200
26.97400
26.97600
26.97800
26.98000
26.98200
26.98400
26.98600
26.98800
26.99000
26.99200
26.99400
26.99600
26.99800
27.00000
27.00200
27.00400
27.00600
27.00800
27.01000
27.01200
27.01400
27.01600
27.01800
27.02000
27.02200
27.02400
27.02600
27.02800
27.03000
27.03200
27.03400
27.03600
27.03800
27.04000
27.04200
27.04400
27.04600
27.04800
27.05000
27.05200
27.05400
27.05600
27.05800
27.06000
27.06200
27.06400
27.06600
27.06800
27.07000
27.07200
27.07400
27.07600
27.07800
27.08000
27.08200
27.08400
27.08600
27.08800
27.09000
27.09200
27.09400
27.09600
27.09800
27.10000
27.10200
27.10400
27.10600
27.10800
27.11000
27.11200
27.11400
27.11600
27.11800
27.12000
27.12200
27.12400
27.12600
27.12800
27.13000
27.13200
27.13400
27.13600
27.13800
27.14000
27.14200
27.14400
27.14600
27.14800
27.15000
27.15200
27.15400
27.15600
27.15800
27.16000
27.16200
27.16400
27.16600
27.16800
27.17000
27.17200
27.17400
27.17600
27.17800
27.18000
27.18200
27.18400
27.18600
27.18800
27.19000
27.19200
27.19400
27.19600
27.19800
27.20000
27.20200
27.20400
27.20600
27.20800
27.21000
27.21200
27.21400
27.21600
27.21800
27.22000
27.22200
27.22400
27.22600
27.22800
27.23000
27.23200
27.23400
27.23600
27.23800
27.24000
27.24200
27.24400
27.24600
27.24800
27.25000
27.25200
27.25400
27.25600
27.25800
27.26000
27.26200
27.26400
27.26600
27.26800
27.27000
27.27200
27.27400
27.27600
27.27800
27.28000
27.28200
27.28400
27.28600
27.28800
27.29000
27.29200
27.29400
27.29600
27.29800
27.30000
27.30200
27.30400
27.30600
27.30800
27.31000
27.31200
27.31400
27.31600
27.31800
27.32000
27.32200
27.32400
27.32600
27.32800
27.33000
27.33200
27.33400
27.33600
27.33800
27.34000
27.34200
27.34400
27.34600
27.34800
27.35000
27.35200
27.35400
27.35600
27.35800
27.36000
27.36200
27.36400
27.36600
27.36800
27.37000
27.37200
27.37400
27.37600
27.37800
27.38000
27.38200
27.38400
27.38600
27.38800
27.39000
27.39200
27.39400
27.39600
27.39800
27.40000
27.40200
27.40400
27.40600
27.40800
27.41000
27.41200
27.41400
27.41600
27.41800
27.42000
27.42200
27.42400
27.42600
27.42800
27.43000
27.43200
27.43400
27.43600
27.43800
27.44000
27.44200
27.44400
27.44600
27.44800
27.45000
27.45200
27.45400
27.45600
27.45800
27.46000
27.46200
27.46400
27.46600
27.46800
27.47000
27.47200
27.47400
27.47600
27.47800
27.48000
27.48200
27.48400
27.48600
27.48800
27.49000
27.49200
27.49400
27.49600
27.49800
27.50000
27.50200
27.50400
27.50600
27.50800
27.51000
27.51200
27.51400
27.51600
27.51800
27.52000
27.52200
27.52400
27.52600
27.52800
27.53000
27.53200
27.53400
27.53600
27.53800
27.54000
27.54200
27.54400
27.54600
27.54800
27.55000
27.55200
27.55400
27.55600
27.55800
27.56000
27.56200
27.56400
27.56600
27.56800
27.57000
27.57200
27.57400
27.57600
27.57800
27.58000
27.58200
27.58400
27.58600
27.58800
27.59000
27.59200
27.59400
27.59600
27.59800
27.60000
27.60200
27.60400
27.60600
27.60800
27.61000
27.61200
27.61400
27.61600
27.61800
27.62000
27.62200
27.62400
27.62600
27.62800
27.63000
27.63200
27.63400
27.63600
27.63800
27.64000
27.64200
27.64400
27.64600
27.64800
27.65000
27.65200
27.65400
27.65600
27.65800
27.66000
27.66200
27.66400
27.66600
27.66800
27.67000
27.67200
27.67400
27.67600
27.67800
27.68000
27.68200
27.68400
27.68600
27.68800
27.69000
27.69200
27.69400
27.69600
27.69800
27.70000
27.70200
27.70400
27.70600
27.70800
27.71000
27.71200
27.71400
27.71600
27.71800
27.72000
27.72200
27.72400
27.72600
27.72800
27.73000
27.73200
27.73400
27.73600
27.73800
27.74000
27.74200
27.74400
27.74600
27.74800
27.75000
27.75200
27.75400
27.75600
27.75800
27.76000
27.76200
27.76400
27.76600
27.76800
27.77000
27.77200
27.77400
