-0.02748
-0.01873
-0.01249
-0.00375
0.00125
0.00375
0.00000
0.00000
-0.00125
-0.00500
-0.00500
-0.00250
0.00500
0.00500
0.00375
-0.00125
-0.00749
-0.01873
-0.03497
-0.05246
-0.06120
-0.06620
-0.06869
-0.05870
-0.03372
-0.01124
0.00624
0.02998
0.04496
0.04496
0.04496
0.04496
0.04371
0.03872
0.03372
0.02998
0.02998
0.02998
0.02748
0.01249
-0.03497
-0.14363
-0.25854
-0.25979
-0.04371
0.36095
0.77186
0.92923
0.75313
0.42715
0.14363
-0.00999
-0.05371
-0.04746
-0.03997
-0.04122
-0.04496
-0.04496
-0.04496
-0.04621
-0.05121
-0.05371
-0.05246
-0.06120
-0.06620
-0.06994
-0.07119
-0.07744
-0.08618
-0.09117
-0.09742
-0.10741
-0.11740
-0.12615
-0.13239
-0.14238
-0.15237
-0.16112
-0.16736
-0.17735
-0.18610
-0.18984
-0.18984
-0.18984
-0.18984
-0.18859
-0.18360
-0.17860
-0.17361
-0.16736
-0.15737
-0.14488
-0.12615
-0.10991
-0.09117
-0.07619
-0.06120
-0.04746
-0.03622
-0.02248
-0.01374
-0.00999
-0.00874
-0.00500
-0.00500
-0.00500
-0.00500
-0.00500
-0.00500
-0.00500
-0.00500
-0.00375
-0.00125
-0.00624
-0.01374
-0.02873
-0.04371
-0.05995
-0.07869
-0.08868
-0.08118
-0.05995
-0.03622
-0.01374
0.01499
0.03747
0.04496
0.04496
0.04496
0.04371
0.03872
0.03622
0.03997
0.03747
0.02873
0.02498
0.02248
0.00375
-0.06620
-0.19359
-0.29975
-0.24605
0.05620
0.53456
0.93673
0.98669
0.70192
0.32973
0.07244
-0.03997
-0.05870
-0.05246
-0.04496
-0.04621
-0.05121
-0.05620
-0.05995
-0.05995
-0.06120
-0.06620
-0.06994
-0.06869
-0.06620
-0.07244
-0.08118
-0.08493
-0.08743
-0.09742
-0.11116
-0.11615
-0.12240
-0.13239
-0.14738
-0.15612
-0.16237
-0.17236
-0.18235
-0.18984
-0.19109
-0.19609
-0.20108
-0.20483
-0.20483
-0.20483
-0.20483
-0.20358
-0.19859
-0.18859
-0.17735
-0.16362
-0.14988
-0.12739
-0.11116
-0.09117
-0.07369
-0.06245
-0.04871
-0.04371
-0.03372
-0.02873
-0.02123
-0.02498
-0.02498
-0.02373
-0.01873
-0.01374
-0.00874
-0.00500
-0.00500
-0.00500
-0.00500
-0.00624
-0.01124
-0.02373
-0.04496
-0.06744
-0.07744
-0.08993
-0.08618
-0.06495
-0.04122
-0.02123
0.00000
0.02248
0.03622
0.04496
0.04496
0.04496
0.04371
0.03872
0.03497
0.03497
0.03372
0.02873
0.01873
0.00874
-0.03872
-0.14988
-0.27103
-0.26228
-0.00500
0.46087
0.87803
0.97045
0.71566
0.35596
0.09117
-0.02998
-0.05371
-0.04371
-0.03622
-0.04621
-0.04996
-0.04996
-0.04871
-0.04496
-0.04496
-0.04621
-0.05121
-0.06120
-0.06495
-0.06620
-0.07244
-0.08618
-0.08993
-0.09117
-0.09617
-0.10242
-0.11615
-0.12615
-0.13614
-0.14613
-0.15612
-0.16112
-0.16611
-0.17610
-0.17985
-0.18110
-0.18610
-0.19109
-0.19984
-0.19984
-0.19484
-0.18984
-0.18485
-0.18360
-0.17236
-0.15737
-0.14238
-0.12615
-0.10242
-0.08743
-0.07369
-0.06245
-0.04746
-0.03372
-0.02373
-0.01998
-0.01873
-0.00874
-0.00624
-0.00874
-0.00500
-0.00375
0.00000
0.00000
0.00125
0.00500
0.00375
-0.00125
-0.01249
-0.02748
-0.04122
-0.05246
-0.06620
-0.06869
-0.05745
-0.04246
-0.02123
0.00375
0.02748
0.04496
0.04496
0.04621
0.04996
0.04871
0.04496
0.04371
0.03872
0.03372
0.02873
0.02498
0.02248
-0.00749
-0.10366
-0.22856
-0.26728
-0.10866
0.25104
0.69068
0.94547
0.83556
0.50084
0.17985
0.00624
-0.05121
-0.05495
-0.04996
-0.04496
-0.04122
-0.04621
-0.05121
-0.05995
-0.05495
-0.05620
-0.06120
-0.06495
-0.06620
-0.06994
-0.07119
-0.08118
-0.08493
-0.08618
-0.09742
-0.11116
-0.11990
-0.12240
-0.13739
-0.15113
-0.15612
-0.16736
-0.18110
-0.19109
-0.19484
-0.19109
-0.19609
-0.20108
-0.20483
-0.20483
-0.20483
-0.20483
-0.19859
-0.18859
-0.17860
-0.16362
-0.15237
-0.13239
-0.11366
-0.09867
-0.08743
-0.06370
-0.04871
-0.03997
-0.03372
-0.02498
-0.01998
-0.01998
-0.01998
-0.01998
-0.01998
-0.01499
-0.01499
-0.01499
-0.00999
-0.00999
-0.01499
-0.01998
-0.02123
-0.03747
-0.05620
-0.07119
-0.07993
-0.08493
-0.08368
-0.06744
-0.04746
-0.02248
0.00250
0.02123
0.03622
0.04496
0.03872
0.02998
0.02998
0.02998
0.02498
0.01998
0.01998
0.01998
0.01374
-0.00500
-0.06120
-0.17735
-0.28976
-0.26228
0.00500
0.47336
0.90675
1.00043
0.72815
0.34846
0.08243
-0.03747
-0.06495
-0.05870
-0.04996
-0.04621
-0.05495
-0.05495
-0.05495
-0.05995
-0.05995
-0.05995
-0.05995
-0.06495
-0.07119
-0.07993
-0.08493
-0.09117
-0.10117
-0.10991
-0.10991
-0.11615
-0.12615
-0.13614
-0.14988
-0.15612
-0.16611
-0.17486
-0.17985
-0.18485
-0.19109
-0.19984
-0.20483
-0.20483
-0.20483
-0.20983
-0.20983
-0.20483
-0.19984
-0.18984
-0.17860
-0.15362
-0.13364
-0.12365
-0.10366
-0.08368
-0.06370
-0.04996
-0.04371
-0.03497
-0.03372
-0.02498
-0.01873
-0.00999
-0.00500
0.00000
-0.00500
-0.00375
0.00500
0.00500
0.00500
0.00500
0.00624
0.01374
0.00375
-0.01624
-0.03122
-0.04621
-0.06120
-0.06994
-0.06869
-0.05371
-0.02873
-0.00874
0.01249
0.04122
0.05495
0.05495
0.04996
0.04996
0.04996
0.04996
0.04996
0.04996
0.04496
0.03497
0.03497
0.03372
-0.00125
-0.10242
-0.23730
-0.26978
-0.08243
0.33098
0.79684
0.99043
0.80933
0.43839
0.14113
-0.00749
-0.04996
-0.04496
-0.03997
-0.03497
-0.03997
-0.04496
-0.04496
-0.04496
-0.04496
-0.04621
-0.05995
-0.05995
-0.05995
-0.05995
-0.06495
-0.06994
-0.07494
-0.07993
-0.08993
-0.09492
-0.09992
-0.10491
-0.11615
-0.13489
-0.14488
-0.14988
-0.15987
-0.16986
-0.16986
-0.16486
-0.17486
-0.17985
-0.17985
-0.17985
-0.17486
-0.17486
-0.17486
-0.16486
-0.15487
-0.13988
-0.12365
-0.10491
-0.08993
-0.07494
-0.06495
-0.04996
-0.03497
-0.02498
-0.01998
-0.01499
-0.00500
-0.00500
-0.00500
-0.00500
0.00000
0.00000
0.00000
0.00000
0.00500
0.00500
0.00000
0.00000
-0.00500
-0.01998
-0.03997
-0.05495
-0.06495
-0.06495
-0.06495
-0.04496
-0.01998
-0.00500
0.00999
0.02998
0.04496
0.04996
0.04496
0.04496
0.04496
0.03997
0.03497
0.02998
0.02998
0.02998
0.02998
0.01374
-0.03747
-0.15737
-0.27477
-0.25604
0.00250
0.45213
0.87178
0.96545
0.70442
0.34596
0.08868
-0.02498
-0.05995
-0.05495
-0.04496
-0.04496
-0.04496
-0.04496
-0.04496
-0.04996
-0.05995
-0.05995
-0.05995
-0.06495
-0.06994
-0.07993
-0.07494
-0.07993
-0.08993
-0.09492
-0.10491
-0.11491
-0.11990
-0.13489
-0.13988
-0.14988
-0.15987
-0.16986
-0.17486
-0.17985
-0.18485
-0.19484
-0.19484
-0.19984
-0.20483
-0.20483
-0.19984
-0.18984
-0.18485
-0.17486
-0.15987
-0.13988
-0.12490
-0.11491
-0.09492
-0.06994
-0.04996
-0.03997
-0.03497
-0.01998
-0.00999
-0.00500
-0.00500
-0.00500
-0.00500
-0.00500
-0.00999
-0.00999
-0.00500
-0.00500
-0.00500
-0.00500
-0.00500
-0.00999
-0.02498
-0.04496
-0.05995
-0.07494
-0.08993
-0.08993
-0.07494
-0.04496
-0.02998
-0.00999
0.01499
0.03997
0.04496
0.04496
0.04496
0.04496
0.03997
0.02998
0.02998
0.02998
0.02998
0.02498
0.01998
0.00000
-0.07869
-0.22731
-0.31849
-0.21232
0.15612
0.67819
1.02166
0.95172
0.58826
0.22357
0.01499
-0.05870
-0.05995
-0.04996
-0.04496
-0.04496
-0.04996
-0.05495
-0.05995
-0.06495
-0.06495
-0.06994
-0.07494
-0.08493
-0.08493
-0.08493
-0.08493
-0.09492
-0.09992
-0.10991
-0.11990
-0.12989
-0.13489
-0.14488
-0.15987
-0.17486
-0.17985
-0.18485
-0.19984
-0.20483
-0.20483
-0.20983
-0.21482
-0.22481
-0.21982
-0.21482
-0.20983
-0.20983
-0.20483
-0.19484
-0.18485
-0.17486
-0.15612
-0.13114
-0.11116
-0.09117
-0.07619
-0.05620
-0.04122
-0.03497
-0.03497
-0.02123
-0.01499
-0.01499
-0.01998
-0.01499
-0.00999
-0.00500
-0.00500
-0.00500
0.00000
0.00500
0.00500
0.00000
-0.00500
-0.01873
-0.04871
-0.06370
-0.07494
-0.07494
-0.06120
-0.04122
-0.01624
-0.00125
0.02373
0.04371
0.05495
0.05495
0.04496
0.04496
0.04496
0.04996
0.04496
0.03997
0.03497
0.03997
0.03497
0.00624
-0.08493
-0.21732
-0.28102
-0.12115
0.28477
0.76937
1.01167
0.85180
0.48335
0.16986
0.00999
-0.04246
-0.04496
-0.03122
-0.02123
-0.02498
-0.03372
-0.03497
-0.03997
-0.04496
-0.04496
-0.04496
-0.04496
-0.04996
-0.05495
-0.05995
-0.05495
-0.05995
-0.07369
-0.08368
-0.08993
-0.09867
-0.11366
-0.12490
-0.12989
-0.13988
-0.14988
-0.15987
-0.16486
-0.16986
-0.17985
-0.18485
-0.18485
-0.18485
-0.18984
-0.18984
-0.18485
-0.17610
-0.16611
-0.15987
-0.15113
-0.13114
-0.11615
-0.10117
-0.07744
-0.05620
-0.04122
-0.03122
-0.02123
-0.01124
-0.00500
-0.00500
-0.00500
0.00000
0.00500
0.00500
0.00000
0.00500
0.00999
0.00999
0.00500
0.00000
-0.00500
-0.01374
-0.02873
-0.04371
-0.05371
-0.06869
-0.07494
-0.05620
-0.03247
-0.01124
0.00375
0.02748
0.04371
0.05371
0.05495
0.04996
0.04496
0.03997
0.03497
0.02998
0.02998
0.02998
0.02998
0.02123
-0.00749
-0.09117
-0.21732
-0.27477
-0.11740
0.26478
0.71941
0.95796
0.84056
0.50084
0.18235
0.00125
-0.05495
-0.05121
-0.04122
-0.04496
-0.04996
-0.04996
-0.04496
-0.04996
-0.05495
-0.05495
-0.05495
-0.05995
-0.06495
-0.06495
-0.06994
-0.07869
-0.08493
-0.08993
-0.09492
-0.10366
-0.11865
-0.12864
-0.13864
-0.14863
-0.15862
-0.17361
-0.17985
-0.18859
-0.19859
-0.20483
-0.20483
-0.20483
-0.20483
-0.20483
-0.20108
-0.19984
-0.19984
-0.19109
-0.17236
-0.15737
-0.14238
-0.12739
-0.11241
-0.08368
-0.06620
-0.05121
-0.03622
-0.02123
-0.01499
-0.01499
-0.00999
-0.00125
-0.00500
-0.00999
-0.00999
-0.00624
-0.00500
-0.00500
-0.00500
-0.00500
-0.00125
-0.00375
-0.02248
-0.03747
-0.05745
-0.06869
-0.06994
-0.06620
-0.04746
-0.03247
-0.02123
-0.00250
0.02123
0.04246
0.04996
0.04621
0.04496
0.04496
0.04496
0.04496
0.04496
0.03622
0.03122
0.02623
0.02123
-0.00999
-0.10117
-0.22232
-0.27852
-0.14238
0.22481
0.67569
0.92549
0.83431
0.51333
0.19859
0.01749
-0.04371
-0.04621
-0.04122
-0.03622
-0.03872
-0.03997
-0.04371
-0.04871
-0.04996
-0.05371
-0.05870
-0.05995
-0.05995
-0.06370
-0.07369
-0.07869
-0.07993
-0.07993
-0.09242
-0.10741
-0.11366
-0.11865
-0.12864
-0.13864
-0.15237
-0.15987
-0.16861
-0.17860
-0.18485
-0.18485
-0.18485
-0.19734
-0.19984
-0.19109
-0.18610
-0.18984
-0.18610
-0.18110
-0.16736
-0.15612
-0.14238
-0.11865
-0.10242
-0.09117
-0.07744
-0.05870
-0.04246
-0.02748
-0.02123
-0.01998
-0.01624
-0.00624
-0.00874
-0.00999
-0.00624
-0.00500
-0.00874
-0.00999
-0.00999
-0.00624
-0.00874
-0.02248
-0.03747
-0.04871
-0.06245
-0.08118
-0.08493
-0.08118
-0.06744
-0.04871
-0.03247
-0.01374
0.00624
0.02248
0.03372
0.03497
0.03122
0.02623
0.02498
0.02498
0.02498
0.02123
0.01624
0.01124
0.00125
-0.03247
-0.13114
-0.26103
-0.31349
-0.15113
0.25979
0.73939
0.98918
0.85679
0.49959
0.16736
-0.01374
-0.06869
-0.07119
-0.06120
-0.05995
-0.05620
-0.05870
-0.05995
-0.05995
-0.06370
-0.06869
-0.06994
-0.07369
-0.07869
-0.08368
-0.09367
-0.09492
-0.09867
-0.10866
-0.11865
-0.12864
-0.13364
-0.14738
-0.15862
-0.16861
-0.17860
-0.18859
-0.19859
-0.20858
-0.20983
-0.21357
-0.22357
-0.22481
-0.22481
-0.22481
-0.22481
-0.22481
-0.22107
-0.21232
-0.20233
-0.19234
-0.16611
-0.13988
-0.11865
-0.10242
-0.07993
-0.05870
-0.04746
-0.03747
-0.03122
-0.02248
-0.01624
-0.01124
-0.00624
-0.00500
-0.00500
-0.00500
-0.00500
-0.00500
-0.00500
-0.00500
-0.00500
-0.00874
-0.02248
-0.03747
-0.05995
-0.06869
-0.07369
-0.07119
-0.05870
-0.03497
-0.00999
0.00749
0.02623
0.04246
0.04871
0.04996
0.04996
0.04996
0.04621
0.04496
0.04496
0.04122
0.03622
0.03122
0.02248
-0.00749
-0.10491
-0.23606
-0.27228
-0.08993
0.32473
0.77061
0.95172
0.78685
0.45712
0.16486
0.00375
-0.04496
-0.04621
-0.03747
-0.03497
-0.03497
-0.03497
-0.03497
-0.04246
-0.04496
-0.04871
-0.04996
-0.05745
-0.06370
-0.06869
-0.06620
-0.06495
-0.06869
-0.07744
-0.08368
-0.09242
-0.10242
-0.10866
-0.11740
-0.12365
-0.13614
-0.14738
-0.15362
-0.15487
-0.15862
-0.16362
-0.16861
-0.16986
-0.16986
-0.17361
-0.17486
-0.16736
-0.16112
-0.15612
-0.14738
-0.12989
-0.11740
-0.10366
-0.08868
-0.06994
-0.04621
-0.03247
-0.02998
-0.02248
-0.01249
-0.00624
-0.00500
-0.00500
-0.00125
0.00375
0.00500
0.00500
0.00500
0.00500
0.00500
0.00500
-0.00250
-0.01249
-0.02998
-0.04621
-0.05745
-0.06744
-0.07369
-0.06744
-0.04621
-0.02123
-0.00375
0.01873
0.03622
0.05121
0.04746
0.04122
0.03622
0.03872
0.03997
0.03622
0.03497
0.03122
0.02248
0.01624
-0.00749
-0.08243
-0.20233
-0.27228
-0.17610
0.12864
0.55579
0.86803
0.86054
0.58951
0.27103
0.05246
-0.04371
-0.05995
-0.04871
-0.04122
-0.04371
-0.04496
-0.04496
-0.04496
-0.04871
-0.05371
-0.05495
-0.05870
-0.06744
-0.06994
-0.06994
-0.06994
-0.08118
-0.08868
-0.09367
-0.09867
-0.11116
-0.12240
-0.13239
-0.13864
-0.15113
-0.16237
-0.16861
-0.17361
-0.17860
-0.18360
-0.18485
-0.18859
-0.19359
-0.19484
-0.19109
-0.18610
-0.18485
-0.18110
-0.16861
-0.15362
-0.13864
-0.11990
-0.10366
-0.08493
-0.06869
-0.05371
-0.04246
-0.03247
-0.02248
-0.01624
-0.01499
-0.00749
-0.00125
-0.00375
-0.00500
-0.00500
-0.00125
-0.00375
-0.00500
-0.00500
-0.00125
-0.00749
-0.02498
-0.04496
-0.05745
-0.06744
-0.08118
-0.07744
-0.06120
-0.04122
-0.02373
-0.00250
0.02623
0.04246
0.04496
0.04496
0.04122
0.03622
0.03122
0.02623
0.02498
0.02873
0.02623
0.02123
0.01249
-0.02498
-0.12864
-0.25729
-0.27727
-0.07119
0.33972
0.76812
0.94297
0.77061
0.42465
0.13489
-0.01374
-0.05246
-0.04746
-0.03747
-0.03872
-0.03997
-0.04371
-0.04496
-0.04871
-0.05371
-0.05495
-0.05870
-0.06370
-0.06869
-0.06994
-0.07744
-0.08743
-0.09367
-0.09867
-0.10741
-0.11990
-0.13239
-0.13864
-0.14738
-0.15987
-0.17236
-0.18235
-0.18485
-0.19234
-0.20233
-0.20483
-0.20483
-0.20858
-0.20983
-0.20608
-0.20108
-0.19609
-0.19484
-0.18859
-0.17486
-0.15987
-0.14488
-0.12240
-0.09742
-0.07619
-0.05995
-0.04496
-0.02998
-0.01873
-0.00874
-0.00500
-0.00500
-0.00125
0.00000
0.00000
0.00375
0.00874
0.00624
0.00500
0.00874
0.01624
0.01374
0.00375
-0.00624
-0.01998
-0.03497
-0.05371
-0.06370
-0.05870
-0.04496
-0.02623
-0.00624
0.01374
0.03747
0.05121
0.05495
0.05495
0.05495
0.05121
0.04621
0.04496
0.04496
0.04122
0.03622
0.03497
0.03497
0.00125
-0.09242
-0.21732
-0.26353
-0.11116
0.25979
0.69318
0.92174
0.81433
0.49959
0.19984
0.02998
-0.02623
-0.03497
-0.03122
-0.02373
-0.01998
-0.02623
-0.03622
-0.04371
-0.04496
-0.04122
-0.04371
-0.04496
-0.05121
-0.05870
-0.06370
-0.06495
-0.06869
-0.07369
-0.08493
-0.09367
-0.10117
-0.11116
-0.12115
-0.13114
-0.13489
-0.13864
-0.14613
-0.15612
-0.15987
-0.16611
-0.17361
-0.17486
-0.17486
-0.17111
-0.16611
-0.16486
-0.15862
-0.14863
-0.13864
-0.12864
-0.11865
-0.09867
-0.07744
-0.06370
-0.04746
-0.02998
-0.01873
-0.01124
-0.00999
-0.00624
-0.00125
0.00000
0.00000
0.00375
0.00874
0.01624
0.01998
0.02623
0.03372
0.03122
0.02998
0.02998
0.02623
0.01873
0.00250
-0.01124
-0.02123
-0.02873
-0.01998
0.00375
0.03372
0.05745
0.07119
0.07869
0.07993
0.07744
0.07244
0.07369
0.06869
0.05495
0.04371
0.03997
0.03997
0.04621
0.05371
0.04246
-0.01499
-0.11740
-0.19484
-0.13614
0.13114
0.54330
0.88927
0.95671
0.73689
0.41216
0.16112
0.04122
0.01124
0.01624
0.01998
0.00999
-0.00125
-0.00500
-0.00500
-0.00500
-0.00874
-0.01374
-0.01873
-0.02373
-0.03122
-0.03497
-0.03497
-0.03872
-0.04621
-0.05620
-0.06620
-0.07619
-0.08618
-0.09617
-0.10616
-0.11615
-0.12615
-0.13364
-0.13864
-0.14613
-0.15612
-0.15987
-0.15987
-0.15987
-0.15987
-0.15987
-0.15362
-0.14738
-0.13864
-0.12864
-0.11865
-0.10616
-0.09367
-0.08118
-0.06869
-0.05870
-0.04871
-0.04496
-0.03872
-0.03247
-0.02373
-0.01998
-0.01749
-0.00874
-0.01124
-0.01749
-0.01998
-0.01998
-0.01749
-0.01499
-0.01749
-0.01749
-0.01749
-0.02873
-0.04371
-0.05870
-0.07369
-0.08868
-0.10117
-0.09617
-0.07494
-0.04996
-0.03122
-0.00999
0.00624
0.01624
0.01998
0.01998
0.01998
0.01749
0.00874
0.00500
0.00250
0.00000
-0.00250
-0.00749
-0.02248
-0.07494
-0.19109
-0.30974
-0.30850
-0.09867
0.29725
0.70442
0.88177
0.74064
0.41716
0.12240
-0.03622
-0.07744
-0.07369
-0.06744
-0.06744
-0.06744
-0.06744
-0.06994
-0.06994
-0.06994
-0.06994
-0.07244
-0.07744
-0.08243
-0.08493
-0.08743
-0.09242
-0.09492
-0.09742
-0.10866
-0.12115
-0.13114
-0.13739
-0.14613
-0.15612
-0.16237
-0.16736
-0.17610
-0.18610
-0.19234
-0.19734
-0.19984
-0.20608
-0.20983
-0.20733
-0.20233
-0.19984
-0.19734
-0.18984
-0.17610
-0.16112
-0.14613
-0.12864
-0.11116
-0.09617
-0.08368
-0.07119
-0.05620
-0.04746
-0.04246
-0.03997
-0.03747
-0.03497
-0.03497
-0.03497
-0.02873
-0.02498
-0.02748
-0.02748
-0.02248
-0.01998
-0.01998
-0.01998
-0.01998
-0.01749
-0.01499
-0.01749
-0.01749
-0.01499
-0.01749
-0.01998
-0.01749
-0.01749
-0.02248
-0.03622
-0.05121
-0.06370
-0.07619
-0.08868
-0.09242
-0.07869
-0.05870
-0.03872
-0.01624
0.00624
0.01749
0.01998
0.01998
0.01998
0.01749
0.01249
0.00749
0.00500
0.00500
0.00000
-0.00500
-0.01374
-0.05620
-0.15987
-0.29101
-0.32223
-0.11865
0.31599
0.76687
0.95296
0.79060
0.43964
0.12864
-0.03747
-0.07993
-0.07119
-0.06245
-0.05995
-0.06245
-0.06495
-0.06744
-0.06994
-0.06994
-0.06994
-0.07244
-0.07744
-0.08243
-0.08493
-0.08993
-0.09742
-0.10242
-0.10741
-0.11491
-0.12240
-0.12989
-0.13988
-0.14988
-0.15987
-0.16986
-0.17735
-0.18485
-0.19484
-0.20233
-0.20483
-0.20733
-0.21482
-0.21982
-0.21732
-0.21232
-0.20983
-0.20983
-0.20483
-0.19234
-0.18235
-0.17486
-0.15737
-0.12864
-0.10741
-0.09492
-0.08243
-0.06495
-0.04746
-0.03747
-0.02998
-0.02248
-0.01998
-0.01998
-0.01749
-0.00999
-0.00500
-0.00500
-0.00500
-0.00500
-0.00250
0.00250
0.00500
0.00500
0.00999
0.01249
0.00749
0.00500
0.00500
0.00500
0.00749
0.00999
0.00500
-0.00999
-0.02998
-0.04746
-0.05495
-0.05246
-0.04496
-0.03247
-0.01249
0.01249
0.03497
0.04746
0.05246
0.05246
0.04746
0.04496
0.04496
0.04246
0.03497
0.02748
0.02498
0.02498
0.01998
-0.01499
-0.10866
-0.22606
-0.26228
-0.10491
0.26103
0.68319
0.90051
0.77561
0.44838
0.15362
-0.00250
-0.04996
-0.04996
-0.04246
-0.03997
-0.04246
-0.04746
-0.04996
-0.04746
-0.04746
-0.05495
-0.05995
-0.06245
-0.06744
-0.06994
-0.07244
-0.07494
-0.07993
-0.08743
-0.09242
-0.09992
-0.10991
-0.11990
-0.12989
-0.13988
-0.14988
-0.15987
-0.16986
-0.17735
-0.18235
-0.18735
-0.19234
-0.19484
-0.19234
-0.18984
-0.18984
-0.18984
-0.18735
-0.17985
-0.17236
-0.16237
-0.14488
-0.12739
-0.11491
-0.09992
-0.08243
-0.06744
-0.05495
-0.04496
-0.03497
-0.02498
-0.01998
-0.01998
-0.01998
-0.01998
-0.01998
-0.01998
-0.01998
-0.01749
-0.01249
-0.01249
-0.01499
-0.01499
-0.01749
-0.01998
-0.01749
-0.01249
-0.00999
-0.01249
-0.01249
-0.00749
-0.00749
-0.01499
-0.02248
-0.02998
-0.04246
-0.05745
-0.07494
-0.08243
-0.07244
-0.05745
-0.04496
-0.03497
-0.01873
0.00500
0.01749
0.02248
0.02498
0.02248
0.01998
0.01998
0.01998
0.01749
0.00999
0.00250
0.00000
-0.00500
-0.03622
-0.12365
-0.24605
-0.29850
-0.14988
0.22981
0.68943
0.95296
0.84930
0.50209
0.16736
-0.01873
-0.07244
-0.07244
-0.06495
-0.05995
-0.06245
-0.06495
-0.06495
-0.06744
-0.07244
-0.07993
-0.08493
-0.08243
-0.07744
-0.07993
-0.08993
-0.09742
-0.10242
-0.10741
-0.11491
-0.11990
-0.12490
-0.13239
-0.13988
-0.14738
-0.15487
-0.16486
-0.17486
-0.18235
-0.18485
-0.18984
-0.19734
-0.20233
-0.20483
-0.20483
-0.20233
-0.19984
-0.19734
-0.19109
-0.18485
-0.18110
-0.16611
-0.14613
-0.12864
-0.11366
-0.09367
-0.07369
-0.05995
-0.04996
-0.03872
-0.02748
-0.02498
-0.02498
-0.02248
-0.01499
-0.00999
-0.01249
-0.01499
-0.01249
-0.00749
-0.00500
-0.00500
-0.00500
-0.00250
0.00250
0.00500
0.00500
0.00749
0.00749
0.00500
0.00500
0.00500
0.00500
0.00250
-0.00250
-0.00874
-0.02123
-0.03872
-0.05620
-0.06495
-0.06120
-0.05121
-0.04122
-0.03497
-0.02623
-0.00375
0.01624
0.02748
0.02998
0.02998
0.02998
0.02998
0.02748
0.02248
0.01749
0.01249
0.00999
0.00624
-0.01749
-0.08493
-0.19609
-0.27727
-0.21482
0.06744
0.48960
0.82057
0.84305
0.57952
0.25479
0.03872
-0.05620
-0.07744
-0.07119
-0.06245
-0.06245
-0.06744
-0.06994
-0.06994
-0.06994
-0.06994
-0.06994
-0.06994
-0.07369
-0.08368
-0.08993
-0.08993
-0.09242
-0.09867
-0.10866
-0.11740
-0.12365
-0.13239
-0.13739
-0.14363
-0.15362
-0.16611
-0.17735
-0.18235
-0.18735
-0.19359
-0.20233
-0.20483
-0.20483
-0.20733
-0.20983
-0.20858
-0.20358
-0.19859
-0.19109
-0.18110
-0.16736
-0.14863
-0.13364
-0.11740
-0.09742
-0.07869
-0.06370
-0.04871
-0.03622
-0.02623
-0.01998
-0.01998
-0.01998
-0.01998
-0.01998
-0.01998
-0.01998
-0.01998
-0.01998
-0.01749
-0.01249
-0.00999
-0.01249
-0.01499
-0.01249
-0.00749
-0.00500
-0.00500
-0.00500
-0.00749
-0.01624
-0.03122
-0.04746
-0.06620
-0.07869
-0.08118
-0.06744
-0.04871
-0.03747
-0.03122
-0.01749
0.00624
0.02873
0.03747
0.03747
0.03747
0.03997
0.03622
0.02623
0.01749
0.01499
0.01499
0.01124
-0.00250
-0.04122
-0.13864
-0.26853
-0.30725
-0.10866
0.33597
0.81183
1.00792
0.82682
0.45712
0.13739
-0.02623
-0.06869
-0.05995
-0.04871
-0.04871
-0.05495
-0.05495
-0.05745
-0.05995
-0.05620
-0.05246
-0.05870
-0.06744
-0.06994
-0.07244
-0.07869
-0.08743
-0.08993
-0.09242
-0.09867
-0.10866
-0.11740
-0.12365
-0.13364
-0.14363
-0.15362
-0.16237
-0.16736
-0.17361
-0.18235
-0.18485
-0.18485
-0.18485
-0.18485
-0.18485
-0.18360
-0.18235
-0.18485
-0.18360
-0.17486
-0.16112
-0.14988
-0.13114
-0.10741
-0.09117
-0.07993
-0.06495
-0.04996
-0.03872
-0.03122
-0.02373
-0.01998
-0.01873
-0.01124
-0.00500
-0.00125
0.00500
0.00500
0.00500
0.00500
0.00500
0.00500
0.00500
0.00624
0.01124
0.01124
0.00500
0.00375
0.00000
-0.00375
-0.01499
-0.03247
-0.05246
-0.06620
-0.06994
-0.06495
-0.04621
-0.02623
-0.01624
-0.00500
0.01249
0.02873
0.03372
0.02998
0.03122
0.03497
0.03372
0.02873
0.02498
0.02373
0.01873
0.01124
-0.00125
-0.03372
-0.11241
-0.23231
-0.28601
-0.14988
0.19984
0.62823
0.88177
0.81308
0.51208
0.19984
0.00874
-0.05870
-0.05995
-0.04871
-0.04621
-0.04996
-0.04871
-0.04871
-0.05620
-0.05995
-0.05995
-0.06120
-0.06620
-0.06994
-0.06994
-0.07369
-0.08118
-0.08618
-0.09117
-0.09617
-0.10491
-0.11615
-0.12115
-0.12864
-0.13864
-0.14988
-0.16112
-0.16611
-0.17361
-0.18110
-0.18610
-0.18984
-0.19109
-0.19484
-0.19484
-0.19359
-0.18859
-0.18485
-0.18360
-0.17486
-0.16237
-0.14988
-0.13364
-0.11366
-0.09742
-0.08743
-0.07494
-0.05870
-0.04122
-0.03122
-0.02373
-0.01873
-0.01374
-0.01374
-0.01998
-0.01873
-0.01499
-0.01624
-0.01998
-0.01998
-0.01749
-0.00874
-0.00500
-0.00500
-0.00500
-0.00500
-0.00500
-0.00749
-0.01749
-0.03122
-0.04996
-0.06495
-0.07619
-0.07869
-0.06994
-0.05371
-0.03497
-0.01873
0.00125
0.01998
0.03247
0.04122
0.04371
0.03747
0.02998
0.02998
0.02748
0.01998
0.01998
0.01998
0.01873
0.00250
-0.05995
-0.18360
-0.29850
-0.27103
0.00624
0.47960
0.89676
0.98544
0.72940
0.35970
0.08243
-0.04122
-0.06869
-0.06245
-0.05246
-0.04496
-0.04496
-0.04496
-0.04621
-0.05246
-0.06120
-0.06495
-0.06495
-0.06620
-0.07119
-0.07744
-0.08493
-0.08618
-0.09117
-0.09617
-0.10491
-0.11740
-0.12739
-0.13614
-0.14113
-0.14738
-0.15987
-0.17236
-0.18110
-0.18610
-0.19234
-0.20108
-0.20483
-0.20483
-0.20608
-0.20983
-0.20858
-0.20233
-0.19234
-0.18360
-0.17610
-0.16112
-0.14613
-0.13114
-0.11491
-0.09492
-0.07619
-0.06120
-0.04746
-0.03622
-0.02373
-0.01998
-0.01998
-0.01749
-0.00874
-0.00375
0.00000
0.00000
0.00125
0.00500
0.00500
0.00500
0.00500
0.00500
0.00500
0.00749
0.01624
0.01873
0.01249
0.00250
-0.00874
-0.02373
-0.03747
-0.04746
-0.05495
-0.05246
-0.04122
-0.02748
-0.01624
0.00250
0.02873
0.04246
0.04996
0.04871
0.04496
0.04371
0.04122
0.04246
0.03372
0.02748
0.01998
0.01998
0.01374
-0.02748
-0.12490
-0.24480
-0.27352
-0.10616
0.26728
0.68818
0.90301
0.79060
0.47586
0.17735
0.00125
-0.05495
-0.05246
-0.04246
-0.03622
-0.04122
-0.04496
-0.04496
-0.04496
-0.04621
-0.05246
-0.05995
-0.05870
-0.05620
-0.06120
-0.06620
-0.07119
-0.07494
-0.07744
-0.08743
-0.09617
-0.10242
-0.11241
-0.12115
-0.12739
-0.13614
-0.14238
-0.15113
-0.15612
-0.15987
-0.16237
-0.17111
-0.17610
-0.17985
-0.17985
-0.17860
-0.17361
-0.16736
-0.15862
-0.15362
-0.14738
-0.13489
-0.11615
-0.10117
-0.08618
-0.07119
-0.05620
-0.04246
-0.03247
-0.02123
-0.00874
-0.00500
-0.00500
-0.00500
-0.00500
-0.00624
-0.00999
-0.00999
-0.00874
-0.00624
-0.00999
-0.00999
-0.00874
-0.00375
0.00000
-0.00125
-0.00624
-0.01374
-0.02873
-0.04496
-0.06245
-0.07119
-0.07494
-0.07119
-0.05495
-0.03622
-0.01998
0.00000
0.01749
0.02748
0.03372
0.02998
0.02873
0.02498
0.02498
0.02373
0.01998
0.01998
0.01873
0.01124
-0.00874
-0.06495
-0.18485
-0.29476
-0.26603
-0.01124
0.42840
0.82057
0.90550
0.66445
0.32473
0.07619
-0.03872
-0.06744
-0.05745
-0.04996
-0.05121
-0.05495
-0.05371
-0.05246
-0.05995
-0.05995
-0.05995
-0.06120
-0.06620
-0.07119
-0.07494
-0.07744
-0.08618
-0.09117
-0.09617
-0.10117
-0.10741
-0.11740
-0.12739
-0.13739
-0.14863
-0.16237
-0.17111
-0.17610
-0.18110
-0.18610
-0.19109
-0.19484
-0.19609
-0.19984
-0.19984
-0.19859
-0.18859
-0.18485
-0.18360
-0.17735
-0.16237
-0.14738
-0.13114
-0.10991
-0.08743
-0.07244
-0.06245
-0.04746
-0.03747
-0.02373
-0.01998
-0.01873
-0.01374
-0.01124
-0.01624
-0.01873
-0.01249
-0.00500
-0.00624
-0.00999
-0.00999
-0.00874
-0.00500
-0.00500
-0.00500
-0.00500
-0.00500
-0.00500
-0.00375
-0.00125
-0.01374
-0.03372
-0.05246
-0.06744
-0.07494
-0.07369
-0.05995
-0.03747
-0.02373
-0.01249
0.00500
0.03247
0.04496
0.04371
0.03997
0.04122
0.04496
0.04371
0.03372
0.02873
0.02373
0.01873
0.01374
0.00125
-0.06245
-0.19609
-0.31974
-0.26978
0.05745
0.57578
0.97420
0.99543
0.69318
0.32099
0.06370
-0.04371
-0.05870
-0.04871
-0.03997
-0.03997
-0.03997
-0.03997
-0.04122
-0.04621
-0.04996
-0.05121
-0.05620
-0.06620
-0.06994
-0.06869
-0.06120
-0.07119
-0.08118
-0.08493
-0.08618
-0.09617
-0.10117
-0.11116
-0.12240
-0.13739
-0.14988
-0.15113
-0.15612
-0.16611
-0.17486
-0.17486
-0.17610
-0.18110
-0.18485
-0.18360
-0.17486
-0.17486
-0.17361
-0.16362
-0.15362
-0.14738
-0.13239
-0.11740
-0.09742
-0.07869
-0.06744
-0.05121
-0.02748
-0.01374
-0.00624
-0.01499
-0.01374
-0.00500
-0.00375
0.00125
0.00624
0.01499
0.01499
0.01499
0.01624
0.01873
0.00874
0.00375
0.00125
0.01124
0.01374
0.00874
-0.00125
-0.01249
-0.02748
-0.04746
-0.05995
-0.05745
-0.03747
-0.02248
-0.00749
0.00749
0.02748
0.04122
0.04496
0.04496
0.04371
0.03872
0.02998
0.03122
0.03497
0.03372
0.02873
0.02498
0.02248
0.00000
-0.07744
-0.20358
-0.28227
-0.19859
0.09367
0.52582
0.86803
0.89052
0.61449
0.27727
0.05121
-0.04246
-0.05995
-0.05495
-0.04996
-0.04496
-0.04496
-0.04496
-0.04621
-0.05121
-0.05620
-0.05995
-0.06120
-0.06620
-0.06994
-0.06994
-0.07119
-0.07619
-0.08618
-0.09492
-0.09617
-0.10117
-0.11241
-0.12615
-0.13614
-0.14113
-0.15113
-0.16112
-0.17111
-0.17610
-0.18110
-0.18485
-0.18485
-0.18485
-0.18485
-0.18485
-0.18485
-0.17985
-0.17361
-0.16486
-0.15862
-0.14363
-0.12864
-0.11366
-0.09742
-0.07869
-0.06245
-0.04496
-0.03997
-0.03372
-0.02498
-0.01873
-0.00999
-0.00500
-0.00500
-0.00624
-0.01499
-0.01998
-0.01873
-0.00999
-0.00999
-0.01499
-0.00999
-0.00500
-0.00500
-0.00500
-0.00624
-0.01624
-0.03247
-0.05620
-0.06994
-0.07494
-0.07369
-0.06245
-0.04371
-0.02873
-0.01249
0.01249
0.03122
0.04496
0.04996
0.04496
0.03997
0.03497
0.03497
0.02998
0.02998
0.02498
0.02498
0.01749
-0.00624
-0.07744
-0.20483
-0.30100
-0.23106
0.09617
0.58702
0.95296
0.95796
0.65071
0.28227
0.03997
-0.06120
-0.06869
-0.05870
-0.04621
-0.05495
-0.05995
-0.05995
-0.05995
-0.05995
-0.05995
-0.05995
-0.05995
-0.06120
-0.06994
-0.06994
-0.07494
-0.07993
-0.08618
-0.09492
-0.09617
-0.11116
-0.12115
-0.12989
-0.13614
-0.14613
-0.15612
-0.16611
-0.17486
-0.17610
-0.18485
-0.18485
-0.18485
-0.18485
-0.18984
-0.19484
-0.19484
-0.18984
-0.18485
-0.17985
-0.17361
-0.15362
-0.13864
-0.12365
-0.11366
-0.08868
-0.06869
-0.04871
-0.03872
-0.02873
-0.01998
-0.01998
-0.01873
-0.00999
-0.00500
-0.00500
-0.00500
-0.00500
-0.00500
-0.00500
0.00000
0.00500
0.00999
0.00500
0.00500
0.00500
0.00874
-0.00250
-0.03122
-0.04621
-0.06120
-0.06994
-0.06994
-0.05870
-0.03372
-0.00874
0.00624
0.02623
0.04621
0.05495
0.05995
0.05495
0.04496
0.04496
0.04496
0.03997
0.03997
0.03997
0.02998
0.02373
0.00000
-0.08743
-0.21982
-0.29850
-0.16362
0.23231
0.73065
0.99918
0.87678
0.52831
0.20483
0.01624
-0.04496
-0.04371
-0.02998
-0.02998
-0.03497
-0.03497
-0.03497
-0.03997
-0.03997
-0.04496
-0.04496
-0.04496
-0.05495
-0.05995
-0.05995
-0.06994
-0.06994
-0.07494
-0.07993
-0.08493
-0.09492
-0.10616
-0.11990
-0.12989
-0.13988
-0.14988
-0.15487
-0.15987
-0.16986
-0.17486
-0.17985
-0.17985
-0.18485
-0.18485
-0.18485
-0.18485
-0.17985
-0.17486
-0.16986
-0.15487
-0.13988
-0.12989
-0.11491
-0.09992
-0.07993
-0.05995
-0.03997
-0.02998
-0.01998
-0.01998
-0.01998
-0.01998
-0.00999
-0.00500
-0.00999
-0.00999
-0.00500
-0.00500
-0.00500
-0.00500
0.00000
0.00000
-0.00500
-0.00500
-0.00500
-0.01499
-0.03497
-0.05495
-0.06495
-0.06495
-0.06994
-0.05495
-0.02998
-0.00999
0.00500
0.02498
0.03997
0.04496
0.04496
0.03997
0.03497
0.03497
0.02998
0.01998
0.02498
0.02498
0.01998
0.01499
-0.01624
-0.10741
-0.24605
-0.30850
-0.15987
0.23106
0.70317
0.96420
0.85554
0.51582
0.18235
-0.00125
-0.05995
-0.05495
-0.04496
-0.04496
-0.04496
-0.04996
-0.04996
-0.05495
-0.05995
-0.05995
-0.05995
-0.06495
-0.06994
-0.07494
-0.07494
-0.07993
-0.08993
-0.09492
-0.09992
-0.10491
-0.11491
-0.12490
-0.13489
-0.13988
-0.15487
-0.16486
-0.16986
-0.17486
-0.17985
-0.18984
-0.19484
-0.19484
-0.19984
-0.20483
-0.19984
-0.19484
-0.18984
-0.18485
-0.17486
-0.16486
-0.14988
-0.13489
-0.11491
-0.09492
-0.07993
-0.06994
-0.05995
-0.04496
-0.03497
-0.02498
-0.01998
-0.01998
-0.01499
-0.01998
-0.01998
-0.01998
-0.01998
-0.01998
-0.01998
-0.01499
-0.00500
-0.00999
-0.01499
-0.01499
-0.01998
-0.02998
-0.04996
-0.06495
-0.07494
-0.08493
-0.08493
-0.06495
-0.03497
-0.01499
0.00500
0.02498
0.03997
0.04496
0.03997
0.02998
0.02998
0.02998
0.02498
0.02998
0.02998
0.03997
0.02998
0.01499
-0.02373
-0.14238
-0.28102
-0.28976
-0.04122
0.41341
0.87303
1.02665
0.80683
0.42090
0.12365
-0.02123
-0.05870
-0.04496
-0.03497
-0.03497
-0.04496
-0.04496
-0.04996
-0.04996
-0.05495
-0.05495
-0.05495
-0.05995
-0.06495
-0.06495
-0.06495
-0.06994
-0.07494
-0.07993
-0.07993
-0.08493
-0.09992
-0.10991
-0.11990
-0.12490
-0.13489
-0.13988
-0.14488
-0.15487
-0.16486
-0.16986
-0.16486
-0.16486
-0.16986
-0.17486
-0.17486
-0.16486
-0.15987
-0.15487
-0.14988
-0.13614
-0.12115
-0.10616
-0.09117
-0.06620
-0.05121
-0.03997
-0.02623
-0.01124
-0.00500
-0.00500
-0.00500
0.00000
0.00500
0.00999
0.00500
0.00500
0.01499
0.01499
0.00999
0.00999
0.01998
0.01499
0.00500
-0.00500
-0.00999
-0.02373
-0.03872
-0.05371
-0.05495
-0.04996
-0.03622
-0.01624
0.00375
0.02873
0.04371
0.04496
0.04496
0.04496
0.04496
0.03997
0.03997
0.03997
0.03122
0.02998
0.02998
0.02998
0.02123
-0.03122
-0.15612
-0.27228
-0.25604
-0.04496
0.33472
0.72940
0.89551
0.74688
0.42715
0.14863
-0.00999
-0.06245
-0.05995
-0.04621
-0.03997
-0.04496
-0.04496
-0.04996
-0.04996
-0.04996
-0.05870
-0.05995
-0.05995
-0.06495
-0.06994
-0.07494
-0.07494
-0.07494
-0.08368
-0.09367
-0.09992
-0.10491
-0.11366
-0.11990
-0.12490
-0.13364
-0.14363
-0.15362
-0.15987
-0.16486
-0.17361
-0.17985
-0.17985
-0.17985
-0.17985
-0.17486
-0.17486
-0.16611
-0.15987
-0.15113
-0.13114
-0.11615
-0.10117
-0.09117
-0.07619
-0.05620
-0.04122
-0.03497
-0.02623
-0.01998
-0.01124
-0.00999
-0.01499
-0.00999
-0.00500
-0.00999
-0.01499
-0.01499
-0.00999
-0.00500
-0.00500
-0.00500
-0.00500
-0.00999
-0.02373
-0.04371
-0.05371
-0.06869
-0.08368
-0.08493
-0.07993
-0.05745
-0.03747
-0.01749
0.00250
0.02248
0.02998
0.02998
0.02998
0.03497
0.02998
0.02123
0.01998
0.01998
0.01124
0.00500
0.00500
0.00000
-0.04871
-0.17610
-0.30600
-0.30600
-0.07619
0.35221
0.78061
0.94547
0.78560
0.44338
0.14113
-0.02373
-0.06245
-0.05995
-0.05121
-0.04996
-0.04996
-0.05495
-0.05995
-0.05995
-0.05995
-0.05995
-0.06869
-0.06994
-0.06994
-0.07494
-0.07993
-0.08493
-0.08493
-0.09367
-0.10366
-0.11366
-0.11491
-0.12365
-0.13364
-0.14863
-0.14988
-0.15487
-0.16362
-0.17860
-0.17985
-0.18485
-0.18485
-0.18485
-0.18485
-0.18485
-0.18485
-0.18485
-0.18485
-0.17610
-0.16611
-0.15612
-0.14238
-0.12240
-0.10741
-0.09242
-0.07744
-0.05745
-0.04621
-0.03622
-0.03122
-0.02123
-0.01124
-0.00999
-0.00999
-0.00999
-0.00624
-0.00500
-0.00500
-0.00500
-0.00125
-0.00375
-0.00500
-0.00500
-0.00125
0.00000
-0.00874
-0.02248
-0.03747
-0.04871
-0.06744
-0.08243
-0.07619
-0.06245
-0.03872
-0.01749
0.00624
0.03122
0.04371
0.04496
0.04496
0.04496
0.04122
0.03122
0.02998
0.02998
0.02623
0.02123
0.01998
0.01624
-0.00624
-0.09617
-0.25104
-0.33972
-0.20858
0.19984
0.71316
1.03290
0.96795
0.61699
0.23980
0.01499
-0.06245
-0.06620
-0.05246
-0.04621
-0.04496
-0.04496
-0.04871
-0.04996
-0.04996
-0.05371
-0.05870
-0.06370
-0.06120
-0.06370
-0.06869
-0.07369
-0.08368
-0.08868
-0.09367
-0.09492
-0.10366
-0.11366
-0.12739
-0.13364
-0.13864
-0.14863
-0.15862
-0.16362
-0.16861
-0.17361
-0.18360
-0.18485
-0.18485
-0.17610
-0.17860
-0.18360
-0.18485
-0.18110
-0.17111
-0.16112
-0.14363
-0.11865
-0.10242
-0.09617
-0.08243
-0.05870
-0.04246
-0.03622
-0.02623
-0.01624
-0.01124
-0.00624
-0.00500
-0.00500
0.00375
0.00500
0.00500
0.00500
0.00874
0.00999
0.00999
0.00999
0.00999
0.00125
-0.01249
-0.02748
-0.03872
-0.04871
-0.05870
-0.06370
-0.05620
-0.03872
-0.01873
0.00500
0.02998
0.04371
0.04496
0.04496
0.04496
0.04496
0.03622
0.03122
0.02998
0.02998
0.02123
0.01998
0.01624
-0.00125
-0.07494
-0.19984
-0.27852
-0.18859
0.08743
0.48710
0.81308
0.85804
0.62324
0.30100
0.07369
-0.02623
-0.04871
-0.04996
-0.04621
-0.04496
-0.04496
-0.04871
-0.05371
-0.05121
-0.04996
-0.05371
-0.05870
-0.05995
-0.05995
-0.06370
-0.06869
-0.06994
-0.06994
-0.07744
-0.08868
-0.09367
-0.09867
-0.10866
-0.12240
-0.13364
-0.14363
-0.14863
-0.15862
-0.15987
-0.16362
-0.16486
-0.17361
-0.17486
-0.17486
-0.17111
-0.16986
-0.16986
-0.16611
-0.15737
-0.14738
-0.13364
-0.11865
-0.10366
-0.08868
-0.06869
-0.05246
-0.04246
-0.02748
-0.02498
-0.02123
-0.01998
-0.01249
-0.01374
-0.01499
-0.01499
-0.00749
-0.01249
-0.01499
-0.01499
-0.01124
-0.01374
-0.01873
-0.01998
-0.02373
-0.03622
-0.05121
-0.06245
-0.06869
-0.07744
-0.08368
-0.07744
-0.05121
-0.02498
-0.00375
0.01998
0.03622
0.03997
0.03247
0.02998
0.02998
0.02998
0.02998
0.02623
0.02123
0.01998
0.01624
0.00375
-0.02748
-0.12115
-0.25354
-0.31599
-0.17735
0.19109
0.64572
0.92424
0.86304
0.56329
0.24105
0.03122
-0.05620
-0.06620
-0.05371
-0.04621
-0.04496
-0.04496
-0.05246
-0.05870
-0.06370
-0.06495
-0.06495
-0.06869
-0.06994
-0.07369
-0.07494
-0.08243
-0.09242
-0.09492
-0.09867
-0.10366
-0.11241
-0.12240
-0.13239
-0.14238
-0.15237
-0.16611
-0.17361
-0.17860
-0.18360
-0.19234
-0.19484
-0.19484
-0.19484
-0.19859
-0.19609
-0.19109
-0.18610
-0.18485
-0.17735
-0.16362
-0.14863
-0.13364
-0.11865
-0.10366
-0.08868
-0.07369
-0.05870
-0.04371
-0.02873
-0.02123
-0.01998
-0.01998
-0.01624
-0.01873
-0.01998
-0.01998
-0.01624
-0.01499
-0.01499
-0.01124
-0.00999
-0.01374
-0.01873
-0.01998
-0.02748
-0.04496
-0.06120
-0.07244
-0.08243
-0.08493
-0.08118
-0.06120
-0.03622
-0.00749
0.01499
0.02748
0.03372
0.03122
0.02998
0.02623
0.02498
0.02873
0.02248
0.01998
0.01998
0.01998
0.01249
-0.02748
-0.12864
-0.27103
-0.33597
-0.17111
0.25479
0.76437
1.02915
0.89801
0.53706
0.19484
0.00000
-0.06620
-0.06744
-0.05371
-0.04996
-0.05745
-0.05995
-0.05995
-0.05620
-0.05870
-0.05995
-0.06370
-0.06495
-0.06869
-0.06994
-0.07369
-0.08243
-0.08868
-0.09367
-0.09867
-0.10741
-0.11740
-0.12365
-0.13239
-0.13864
-0.15113
-0.16611
-0.18110
-0.18485
-0.18485
-0.18859
-0.19734
-0.20358
-0.20483
-0.20108
-0.19609
-0.18735
-0.18110
-0.17610
-0.17486
-0.16362
-0.14613
-0.12864
-0.11116
-0.08743
-0.06869
-0.05371
-0.04621
-0.03747
-0.02748
-0.02123
-0.01998
-0.01998
-0.01249
-0.00624
0.00250
0.00500
0.00500
0.00874
0.00999
0.01374
0.01499
0.01873
0.01249
0.00250
-0.01124
-0.02248
-0.03622
-0.04746
-0.05745
-0.05246
-0.03622
-0.01624
0.00375
0.02748
0.04246
0.04871
0.04996
0.04996
0.04621
0.04122
0.03622
0.03872
0.03622
0.02748
0.02498
0.02498
0.00749
-0.06620
-0.18610
-0.27103
-0.20608
0.05745
0.45463
0.79434
0.87428
0.67195
0.35221
0.09992
-0.02123
-0.05246
-0.05121
-0.04621
-0.04122
-0.03997
-0.04371
-0.04871
-0.04996
-0.04996
-0.05745
-0.05995
-0.05995
-0.05995
-0.06370
-0.06869
-0.07369
-0.07869
-0.08743
-0.09367
-0.09867
-0.10741
-0.11366
-0.12490
-0.13739
-0.14738
-0.15362
-0.15862
-0.16362
-0.16861
-0.17361
-0.18235
-0.18485
-0.18485
-0.18110
-0.17610
-0.17486
-0.17111
-0.16362
-0.15612
-0.14488
-0.12615
-0.10991
-0.09492
-0.07993
-0.06495
-0.04996
-0.03872
-0.03497
-0.03122
-0.02373
-0.01998
-0.01998
-0.01998
-0.01998
-0.01624
-0.01873
-0.01998
-0.01998
-0.01374
-0.00999
-0.00999
-0.00999
-0.01374
-0.02498
-0.03997
-0.05495
-0.06620
-0.07619
-0.08368
-0.07494
-0.05371
-0.03122
-0.00874
0.01624
0.03497
0.03997
0.03372
0.02623
0.02873
0.02623
0.02123
0.01998
0.01998
0.01624
0.00874
-0.00125
-0.03497
-0.12240
-0.24855
-0.30850
-0.16611
0.20608
0.66570
0.93673
0.86304
0.55204
0.22481
0.01873
-0.05745
-0.06370
-0.05371
-0.05371
-0.05495
-0.05495
-0.05495
-0.05870
-0.06370
-0.06495
-0.06495
-0.06869
-0.07619
-0.07619
-0.07869
-0.08618
-0.09617
-0.10366
-0.10866
-0.11366
-0.12115
-0.13114
-0.14113
-0.15113
-0.16112
-0.17111
-0.17486
-0.18110
-0.18859
-0.19359
-0.19484
-0.19859
-0.20358
-0.20483
-0.20233
-0.19359
-0.18735
-0.18485
-0.17486
-0.16362
-0.15362
-0.13988
-0.12240
-0.09867
-0.07993
-0.06869
-0.05495
-0.04371
-0.03622
-0.02873
-0.02123
-0.01998
-0.01998
-0.01998
-0.01998
-0.01998
-0.01624
-0.01499
-0.01124
-0.00624
-0.00500
-0.00500
-0.00500
-0.01124
-0.02123
-0.03497
-0.05620
-0.07119
-0.08118
-0.08493
-0.07869
-0.06245
-0.03872
-0.01124
0.01624
0.03497
0.04371
0.04496
0.04246
0.03747
0.03497
0.03247
0.02998
0.02748
0.02248
0.01998
0.01374
-0.00500
-0.06744
-0.19359
-0.30600
-0.24730
0.07993
0.57578
0.95296
0.97045
0.67444
0.30600
0.05620
-0.04621
-0.05870
-0.04871
-0.04496
-0.04496
-0.04746
-0.04996
-0.04996
-0.05620
-0.05995
-0.05995
-0.05995
-0.06245
-0.06744
-0.06994
-0.06994
-0.07869
-0.09117
-0.09867
-0.09992
-0.10616
-0.11615
-0.12615
-0.13614
-0.14613
-0.15862
-0.17111
-0.17486
-0.17860
-0.18360
-0.18485
-0.18485
-0.18485
-0.18485
-0.18485
-0.18235
-0.17735
-0.17486
-0.16861
-0.15237
-0.12989
-0.11366
-0.10366
-0.09117
-0.07244
-0.05620
-0.04122
-0.02623
-0.01374
-0.00749
-0.00749
-0.00999
-0.00749
-0.00500
-0.00500
-0.00500
-0.00250
0.00250
0.00500
0.00500
0.00749
0.00999
0.00749
-0.00125
-0.01124
-0.02123
-0.03622
-0.05371
-0.05995
-0.05371
-0.04122
-0.02373
0.00000
0.02498
0.04122
0.04496
0.04496
0.04496
0.04496
0.04496
0.04496
0.04246
0.03372
0.02998
0.02748
0.02748
0.02123
-0.02873
-0.13864
-0.24480
-0.23356
-0.03497
0.32348
0.69817
0.87053
0.74189
0.44089
0.16736
0.01249
-0.04122
-0.04746
-0.04246
-0.03997
-0.04246
-0.04746
-0.04996
-0.04996
-0.04996
-0.05246
-0.05495
-0.05246
-0.05620
-0.06620
-0.07244
-0.07494
-0.07744
-0.08618
-0.09617
-0.10616
-0.11241
-0.12115
-0.13114
-0.14113
-0.14738
-0.15612
-0.16611
-0.17236
-0.17486
-0.17486
-0.18110
-0.18485
-0.18485
-0.18235
-0.18235
-0.18235
-0.17486
-0.16486
-0.15737
-0.14613
-0.13114
-0.11615
-0.09867
-0.08118
-0.06370
-0.04996
-0.03997
-0.03247
-0.02498
-0.01998
-0.01499
-0.01249
-0.01499
-0.01249
-0.01249
-0.01749
-0.01998
-0.01749
-0.01499
-0.01749
-0.01998
-0.01749
-0.01749
-0.02873
-0.04371
-0.05495
-0.06495
-0.07494
-0.08243
-0.07993
-0.06370
-0.04122
-0.01873
0.00624
0.02498
0.02998
0.02998
0.02748
0.02498
0.02498
0.02248
0.01998
0.01998
0.01998
0.01124
0.00250
-0.01624
-0.08118
-0.20358
-0.30475
-0.25104
0.02873
0.46711
0.84181
0.91300
0.67569
0.33722
0.08243
-0.03997
-0.06994
-0.06495
-0.05995
-0.05995
-0.05745
-0.05745
-0.06245
-0.06495
-0.06495
-0.06744
-0.06994
-0.06994
-0.07244
-0.07744
-0.08243
-0.08993
-0.09492
-0.09742
-0.10242
-0.11241
-0.12490
-0.13489
-0.14488
-0.15487
-0.16486
-0.17236
-0.17985
-0.18735
-0.19234
-0.19484
-0.19734
-0.19984
-0.20233
-0.20233
-0.19984
-0.19984
-0.19484
-0.18485
-0.17486
-0.16237
-0.14738
-0.12739
-0.10491
-0.08743
-0.07244
-0.05745
-0.04246
-0.02998
-0.02498
-0.02248
-0.01749
-0.01749
-0.01998
-0.01998
-0.01749
-0.01249
-0.00999
-0.00999
-0.00749
-0.00500
-0.00500
-0.00500
-0.00749
-0.01749
-0.03247
-0.05246
-0.06744
-0.07494
-0.08243
-0.07993
-0.06495
-0.04246
-0.01499
0.01249
0.03247
0.04496
0.04746
0.03747
0.02998
0.03247
0.03497
0.03247
0.02998
0.02998
0.02748
0.01998
0.00500
-0.04496
-0.15987
-0.28477
-0.27727
-0.01374
0.46087
0.88552
0.98544
0.74688
0.38718
0.10741
-0.02748
-0.05745
-0.04496
-0.03747
-0.04246
-0.04496
-0.04496
-0.04496
-0.04746
-0.05246
-0.05495
-0.05745
-0.06245
-0.06495
-0.06245
-0.05995
-0.06495
-0.07494
-0.08493
-0.09242
-0.09742
-0.10491
-0.11491
-0.12240
-0.13239
-0.14488
-0.15237
-0.15737
-0.16237
-0.16986
-0.17735
-0.17735
-0.17486
-0.17486
-0.17486
-0.16986
-0.16486
-0.16486
-0.16486
-0.15737
-0.13988
-0.12240
-0.10741
-0.08993
-0.06994
-0.05495
-0.04496
-0.03247
-0.01998
-0.01249
-0.00999
-0.00749
-0.00250
0.00250
0.00500
0.00500
0.00500
0.00500
0.00500
0.00749
0.01249
0.01499
0.00999
0.00000
-0.01249
-0.02498
-0.03747
-0.05246
-0.06245
-0.06245
-0.04996
-0.02873
-0.00375
0.02123
0.03997
0.04496
0.04496
0.04496
0.04246
0.03497
0.02998
0.03247
0.03247
0.02498
0.01998
0.01998
0.01124
-0.04122
-0.14988
-0.25479
-0.24605
-0.03997
0.34347
0.73065
0.89301
0.75063
0.43839
0.15362
-0.00375
-0.05495
-0.05495
-0.04746
-0.04496
-0.04496
-0.04746
-0.05246
-0.05246
-0.05246
-0.05745
-0.06245
-0.06495
-0.06744
-0.07244
-0.07744
-0.08243
-0.08743
-0.09492
-0.10491
-0.11241
-0.11740
-0.12490
-0.13739
-0.14988
-0.15487
-0.15987
-0.16986
-0.17735
-0.17985
-0.18235
-0.18735
-0.19234
-0.19234
-0.18735
-0.18485
-0.18485
-0.18235
-0.17610
-0.16611
-0.15362
-0.13364
-0.11116
-0.09617
-0.08368
-0.06620
-0.04996
-0.03997
-0.03247
-0.02498
-0.01499
-0.01249
-0.01749
-0.01998
-0.01749
-0.01499
-0.01749
-0.01998
-0.01624
-0.00749
-0.00500
-0.00500
-0.00500
-0.00874
-0.02123
-0.03622
-0.04996
-0.06120
-0.07494
-0.07993
-0.07369
-0.05371
-0.03122
-0.01124
0.01124
0.03122
0.04246
0.04496
0.04246
0.03747
0.03247
0.02998
0.02998
0.02998
0.02748
0.02248
0.01624
-0.00874
-0.08868
-0.21732
-0.30100
-0.20983
0.12365
0.59451
0.93423
0.93923
0.65446
0.30225
0.05246
-0.05246
-0.06744
-0.06120
-0.05495
-0.05246
-0.04996
-0.05371
-0.06245
-0.06495
-0.06495
-0.06744
-0.07244
-0.07494
-0.07494
-0.07869
-0.08743
-0.09242
-0.09742
-0.10242
-0.10866
-0.11865
-0.12864
-0.13864
-0.14863
-0.16112
-0.17236
-0.17860
-0.18859
-0.19734
-0.20233
-0.20483
-0.20733
-0.20983
-0.20983
-0.20858
-0.20358
-0.19984
-0.19984
-0.19359
-0.17860
-0.16611
-0.15362
-0.13489
-0.11241
-0.09367
-0.07869
-0.06245
-0.04621
-0.03747
-0.03247
-0.02623
-0.01998
-0.01998
-0.01998
-0.01998
-0.01624
-0.00749
-0.00749
-0.00999
-0.00999
-0.00749
-0.00500
-0.00500
-0.00125
0.00500
0.00125
-0.01249
-0.03122
-0.04371
-0.05620
-0.06869
-0.07744
-0.07369
-0.05745
-0.03497
-0.00874
0.01998
0.03872
0.04746
0.04996
0.04996
0.04746
0.04246
0.03747
0.03497
0.03247
0.02748
0.02498
0.02248
0.00999
-0.04371
-0.16237
-0.27477
-0.23730
0.03747
0.49334
0.87678
0.94172
0.68319
0.32848
0.08493
-0.01998
-0.04496
-0.04371
-0.03997
-0.03997
-0.03997
-0.03997
-0.03997
-0.03997
-0.04246
-0.04871
-0.05745
-0.06245
-0.06495
-0.06744
-0.06994
-0.06994
-0.06994
-0.07619
-0.08743
-0.09367
-0.10616
-0.11865
-0.12864
-0.13739
-0.14363
-0.15362
-0.16237
-0.16486
-0.16486
-0.16736
-0.17236
-0.17735
-0.17985
-0.17985
-0.17860
-0.17361
-0.16611
-0.15862
-0.15113
-0.13988
-0.12240
-0.10491
-0.08993
-0.07494
-0.05620
-0.03622
-0.02623
-0.01998
-0.01624
-0.00874
-0.00500
-0.00500
-0.00500
-0.00500
-0.00500
-0.00500
-0.00500
-0.00500
-0.00500
-0.00500
-0.00500
-0.00375
0.00000
0.00000
-0.00125
-0.00874
-0.01998
-0.03497
-0.04871
-0.05870
-0.06495
-0.06120
-0.04996
-0.03122
-0.00624
0.01749
0.03372
0.04122
0.04496
0.04371
0.03872
0.03497
0.03497
0.03372
0.02873
0.02373
0.01998
0.01873
0.00125
-0.05995
-0.16986
-0.26853
-0.23481
0.01624
0.42715
0.79559
0.89426
0.68693
0.35471
0.09242
-0.03747
-0.06994
-0.06620
-0.05620
-0.05371
-0.05995
-0.06120
-0.06370
-0.06120
-0.06620
-0.06994
-0.06994
-0.06994
-0.07494
-0.08493
-0.08493
-0.08618
-0.09117
-0.09867
-0.10616
-0.11116
-0.11865
-0.12864
-0.13864
-0.14863
-0.15862
-0.16986
-0.17985
-0.17985
-0.18110
-0.18984
-0.19984
-0.19984
-0.19984
-0.19984
-0.19984
-0.19484
-0.18360
-0.17735
-0.16736
-0.15487
-0.13864
-0.11990
-0.10366
-0.08493
-0.07119
-0.05995
-0.04871
-0.04122
-0.03122
-0.02373
-0.01998
-0.01998
-0.01998
-0.01998
-0.02123
-0.02373
-0.01998
-0.01998
-0.01998
-0.01998
-0.01624
-0.00999
-0.01124
-0.01624
-0.02123
-0.02998
-0.04621
-0.06495
-0.07869
-0.08493
-0.08368
-0.07244
-0.04746
-0.02123
0.00624
0.02248
0.03372
0.04122
0.04371
0.03872
0.03497
0.03497
0.03372
0.02873
0.02373
0.01998
0.01873
0.00749
-0.03497
-0.13239
-0.26478
-0.32099
-0.15362
0.26728
0.76562
1.01541
0.87303
0.51333
0.18360
-0.00500
-0.06620
-0.06495
-0.05246
-0.04496
-0.04996
-0.05995
-0.05995
-0.06120
-0.06620
-0.06994
-0.06744
-0.05995
-0.06245
-0.07119
-0.07494
-0.07744
-0.08993
-0.10242
-0.10866
-0.10491
-0.10741
-0.11740
-0.12989
-0.14488
-0.15737
-0.16736
-0.17610
-0.18110
-0.18735
-0.19609
-0.19984
-0.19859
-0.19609
-0.19984
-0.19984
-0.19859
-0.19234
-0.18485
-0.18110
-0.16486
-0.14488
-0.12615
-0.11116
-0.09492
-0.07619
-0.06245
-0.05246
-0.04371
-0.03622
-0.02248
-0.01374
-0.00874
-0.00375
-0.00125
-0.00500
-0.00375
0.00000
0.00125
0.00500
0.00500
0.00749
0.01499
0.01499
0.01499
0.01499
0.01124
-0.00250
-0.01499
-0.03247
-0.04246
-0.05121
-0.05246
-0.03997
-0.01873
0.00500
0.02498
0.04246
0.05121
0.05495
0.05371
0.04871
0.04496
0.04371
0.03872
0.03497
0.03497
0.03372
0.02873
0.01749
-0.02623
-0.12115
-0.23855
-0.25729
-0.07494
0.28851
0.68069
0.88552
0.78310
0.47836
0.17985
0.00500
-0.04996
-0.04871
-0.04371
-0.03997
-0.04122
-0.04371
-0.04122
-0.04621
-0.05121
-0.05495
-0.05620
-0.05995
-0.06120
-0.06620
-0.07119
-0.07744
-0.08493
-0.08493
-0.08743
-0.09867
-0.11241
-0.12115
-0.12615
-0.13239
-0.14238
-0.15237
-0.16112
-0.16736
-0.17610
-0.17985
-0.17985
-0.17985
-0.18110
-0.18485
-0.18235
-0.17361
-0.16861
-0.16362
-0.15612
-0.14113
-0.12739
-0.11615
-0.09992
-0.08118
-0.06744
-0.05745
-0.04621
-0.03247
-0.02373
-0.01998
-0.01873
-0.01249
-0.00624
-0.01124
-0.01374
-0.00999
-0.00874
-0.00500
-0.00500
-0.00500
-0.00500
-0.00500
-0.00500
-0.00624
-0.01249
-0.02498
-0.04371
-0.05870
-0.07119
-0.07744
-0.08243
-0.06994
-0.04746
-0.01998
0.00000
0.01873
0.03247
0.03747
0.02998
0.02998
0.03122
0.03372
0.02873
0.02498
0.02498
0.02373
0.01624
0.00250
-0.01998
-0.10242
-0.24105
-0.31724
-0.20608
0.14488
0.61200
0.92424
0.89426
0.59951
0.25729
0.02998
-0.06370
-0.07119
-0.05246
-0.04496
-0.04621
-0.04996
-0.05246
-0.06120
-0.06495
-0.06495
-0.06620
-0.06994
-0.07119
-0.07369
-0.07244
-0.08118
-0.08743
-0.09617
-0.10242
-0.11116
-0.11615
-0.12240
-0.13364
-0.14738
-0.15612
-0.16237
-0.17236
-0.18235
-0.19234
-0.19984
-0.19859
-0.19609
-0.20108
-0.20483
-0.20358
-0.19984
-0.19984
-0.19734
-0.18735
-0.17735
-0.16237
-0.14988
-0.12739
-0.10991
-0.08743
-0.07244
-0.05745
-0.04246
-0.03372
-0.02873
-0.02373
-0.01998
-0.01998
-0.01998
-0.01998
-0.01873
-0.01624
-0.01998
-0.01873
-0.01249
-0.00500
-0.00624
-0.00999
-0.00874
-0.00624
-0.01249
-0.02873
-0.04746
-0.05745
-0.07244
-0.08618
-0.08868
-0.07494
-0.05246
-0.03622
-0.01374
0.01499
0.03747
0.04371
0.03872
0.03497
0.03372
0.02998
0.02998
0.02998
0.02998
0.02873
0.01998
0.01873
-0.00125
-0.07619
-0.21482
-0.31474
-0.20733
0.16362
0.65321
0.98294
0.93798
0.60950
0.24855
0.02373
-0.04996
-0.04871
-0.04496
-0.04496
-0.04371
-0.04122
-0.04621
-0.05495
-0.05371
-0.05121
-0.05620
-0.05995
-0.05995
-0.05995
-0.06120
-0.06495
-0.06620
-0.07119
-0.08118
-0.09117
-0.09617
-0.10616
-0.11615
-0.12615
-0.13614
-0.14113
-0.14613
-0.15612
-0.16611
-0.16861
-0.16611
-0.17610
-0.18485
-0.18360
-0.17985
-0.17860
-0.17486
-0.17236
-0.15862
-0.14863
-0.14238
-0.12615
-0.10117
-0.08368
-0.07119
-0.05246
-0.03872
-0.02873
-0.02373
-0.01873
-0.01374
-0.00500
-0.00500
-0.00375
0.00125
0.00500
0.00500
0.00500
0.00500
0.00500
0.00375
0.00000
0.00125
0.00375
-0.00250
-0.01749
-0.03247
-0.04621
-0.05745
-0.07119
-0.07244
-0.05121
-0.02748
-0.01249
0.00874
0.03122
0.04122
0.04371
0.03497
0.03622
0.03872
0.02873
0.02373
0.01998
0.01873
0.01374
0.00874
0.00000
-0.04496
-0.14988
-0.26978
-0.27602
-0.08118
0.29850
0.70941
0.89926
0.75937
0.44214
0.15362
-0.01374
-0.06620
-0.06869
-0.05870
-0.05371
-0.04996
-0.05121
-0.06120
-0.06495
-0.06495
-0.06620
-0.06994
-0.07119
-0.07494
-0.07619
-0.08618
-0.09117
-0.09492
-0.09617
-0.10616
-0.11615
-0.11990
-0.12115
-0.13239
-0.15113
-0.16112
-0.16611
-0.17111
-0.18110
-0.18610
-0.19109
-0.19609
-0.19984
-0.19984
-0.19859
-0.18984
-0.18485
-0.18485
-0.17860
-0.16486
-0.15862
-0.14863
-0.13239
-0.11241
-0.09367
-0.07869
-0.06370
-0.04871
-0.03997
-0.03497
-0.02873
-0.01998
-0.01998
-0.02498
-0.02498
-0.02498
-0.02498
-0.01998
-0.01998
-0.01873
-0.00999
-0.00999
-0.01499
-0.01499
-0.00999
-0.01749
-0.03747
-0.05620
-0.07119
-0.08118
-0.09492
-0.09242
-0.07119
-0.04246
-0.02248
0.00250
0.02623
0.03497
0.03997
0.03997
0.03997
0.03872
0.02873
0.01998
0.01998
0.01998
0.01374
0.00500
-0.00375
-0.05246
-0.16986
-0.29850
-0.30725
-0.06120
0.40716
0.87678
1.03914
0.81932
0.43089
0.11366
-0.03872
-0.06869
-0.05870
-0.04996
-0.05495
-0.05495
-0.05995
-0.06495
-0.06994
-0.06495
-0.06495
-0.06994
-0.07494
-0.07494
-0.07619
-0.08618
-0.09492
-0.10117
-0.10991
-0.11491
-0.12115
-0.12989
-0.13614
-0.15113
-0.16112
-0.16986
-0.17610
-0.18485
-0.19109
-0.20483
-0.20483
-0.20483
-0.20983
-0.20983
-0.20983
-0.20483
-0.19984
-0.20483
-0.19859
-0.18859
-0.17860
-0.16362
-0.14238
-0.11366
-0.09867
-0.08368
-0.06370
-0.04871
-0.03997
-0.03497
-0.02873
-0.01998
-0.01499
-0.00999
-0.00999
-0.00999
-0.00500
-0.00500
-0.00500
-0.00500
0.00000
0.00500
0.00500
0.00500
0.00375
-0.00749
-0.03122
-0.04122
-0.05121
-0.05995
-0.06495
-0.06370
-0.03872
-0.01873
0.00125
0.02123
0.04122
0.05495
0.05371
0.04496
0.04496
0.04496
0.04496
0.04371
0.03497
0.02998
0.02498
0.02373
0.01124
-0.04246
-0.16237
-0.27352
-0.24355
0.01749
0.43589
0.81308
0.91674
0.70317
0.36220
0.09742
-0.02623
-0.04996
-0.04496
-0.03497
-0.03997
-0.03997
-0.04496
-0.04996
-0.05495
-0.04996
-0.04996
-0.04996
-0.05995
-0.05995
-0.05995
-0.06495
-0.06994
-0.07993
-0.08493
-0.09492
-0.09992
-0.10491
-0.10991
-0.12115
-0.13614
-0.14488
-0.14988
-0.15487
-0.16112
-0.16986
-0.16986
-0.16986
-0.17486
-0.17985
-0.17985
-0.17486
-0.17486
-0.17486
-0.16986
-0.15487
-0.13988
-0.12490
-0.10991
-0.09492
-0.08493
-0.07494
-0.06495
-0.04996
-0.03997
-0.03497
-0.03497
-0.02498
-0.01998
-0.02498
-0.02998
-0.02498
-0.02498
-0.01998
-0.01998
-0.01998
-0.01998
-0.01998
-0.01998
-0.01998
-0.01998
-0.03622
-0.05495
-0.06994
-0.07993
-0.08493
-0.08493
-0.06370
-0.03872
-0.01374
0.00999
0.02498
0.02998
0.02998
0.02998
0.02498
0.02498
0.02498
0.01998
0.01998
0.01998
0.01499
0.00500
-0.00125
-0.04371
-0.16362
-0.29601
-0.30475
-0.08368
0.34097
0.78435
0.96046
0.77686
0.42340
0.13114
-0.02623
-0.06994
-0.06495
-0.04996
-0.04996
-0.05495
-0.05495
-0.05995
-0.05995
-0.06495
-0.06495
-0.06495
-0.06994
-0.06994
-0.07494
-0.07993
-0.08493
-0.09492
-0.09492
-0.09992
-0.10491
-0.11491
-0.12490
-0.13489
-0.14488
-0.15487
-0.16486
-0.16986
-0.17985
-0.18485
-0.19484
-0.19484
-0.19984
-0.19984
-0.20483
-0.19984
-0.19984
-0.19484
-0.18485
-0.17985
-0.16486
-0.14988
-0.13489
-0.11491
-0.09492
-0.07993
-0.06495
-0.04996
-0.03997
-0.02998
-0.02498
-0.02498
-0.01998
-0.01998
-0.01998
-0.01998
-0.01998
-0.01998
-0.01998
-0.01499
-0.00999
-0.00500
-0.00500
-0.00500
-0.01499
-0.02498
-0.04496
-0.06495
-0.07993
-0.08493
-0.08493
-0.07993
-0.05495
-0.02998
-0.01499
0.00999
0.02998
0.03997
0.04496
0.03997
0.02998
0.02998
0.02998
0.02998
0.02498
0.02498
0.01998
0.00999
-0.00500
-0.05870
-0.19359
-0.32848
-0.30475
0.00999
0.55204
1.00292
1.04414
0.73065
0.33098
0.04996
-0.06744
-0.07494
-0.05995
-0.04496
-0.04996
-0.04996
-0.04996
-0.04496
-0.04996
-0.05495
-0.05995
-0.06495
-0.06994
-0.07494
-0.07993
-0.07993
-0.08493
-0.09492
-0.09492
-0.10491
-0.10991
-0.11990
-0.12490
-0.13489
-0.14988
-0.16486
-0.16486
-0.16486
-0.17486
-0.18485
-0.18485
-0.18485
-0.18485
-0.19484
-0.19984
-0.19484
-0.18485
-0.18485
-0.17985
-0.17486
-0.15612
-0.13988
-0.12115
-0.10491
-0.08118
-0.06495
-0.04996
-0.03497
-0.01998
-0.00999
-0.00500
-0.00500
0.00000
0.00000
-0.00500
-0.00500
0.00000
0.00500
0.00999
0.00999
0.01499
0.01998
0.02498
0.01499
0.00125
-0.01374
-0.02873
-0.04871
-0.05495
-0.04996
-0.03997
-0.02123
-0.00125
0.02373
0.04871
0.05995
0.06495
0.05495
0.04996
0.04496
0.04496
0.04496
0.04496
0.03497
0.02998
0.02498
0.02498
0.00624
-0.07494
-0.19859
-0.27602
-0.18984
0.10366
0.52207
0.85180
0.87927
0.62449
0.29351
0.06245
-0.03997
-0.05870
-0.04621
-0.03997
-0.03997
-0.04496
-0.04996
-0.04996
-0.04996
-0.04996
-0.05495
-0.05495
-0.04996
-0.05995
-0.06994
-0.06994
-0.07494
-0.08493
-0.09492
-0.09992
-0.10491
-0.10991
-0.11990
-0.12490
-0.12989
-0.13988
-0.14988
-0.15987
-0.15987
-0.16986
-0.17985
-0.18485
-0.18485
-0.17985
-0.17985
-0.17486
-0.17486
-0.16986
-0.16112
-0.15113
-0.13614
-0.12115
-0.11116
-0.09117
-0.07119
-0.05121
-0.04122
-0.03497
-0.02623
-0.01624
-0.01499
-0.01998
-0.01998
-0.01124
-0.01499
-0.01998
-0.01998
-0.01998
-0.01499
-0.01998
-0.01998
-0.01998
-0.01124
-0.01873
-0.03372
-0.04871
-0.06370
-0.07369
-0.08368
-0.07993
-0.06620
-0.04246
-0.02623
-0.00624
0.02248
0.03372
0.02998
0.02498
0.02498
0.02498
0.01998
0.01998
0.02498
0.02498
0.01998
0.01998
0.01499
-0.00749
-0.09117
-0.23606
-0.32223
-0.20733
0.13614
0.60075
0.93923
0.92923
0.62199
0.26478
0.03122
-0.05371
-0.06495
-0.05995
-0.05495
-0.04996
-0.05495
-0.05995
-0.05995
-0.05995
-0.05995
-0.06869
-0.06994
-0.07494
-0.07494
-0.08368
-0.08993
-0.08993
-0.09492
-0.09992
-0.10866
-0.11865
-0.12490
-0.13364
-0.14863
-0.15862
-0.16486
-0.17361
-0.18360
-0.18485
-0.18984
-0.19484
-0.19984
-0.20483
-0.20108
-0.19984
-0.19984
-0.19984
-0.19984
-0.18610
-0.18110
-0.16611
-0.14738
-0.12739
-0.10741
-0.09117
-0.07619
-0.05745
-0.04122
-0.03497
-0.02623
-0.01998
-0.01998
-0.01998
-0.01998
-0.01998
-0.01124
-0.00500
-0.00500
-0.00500
-0.00500
-0.00500
-0.00500
-0.00500
-0.00500
-0.01374
-0.03747
-0.04871
-0.06370
-0.07869
-0.08493
-0.08118
-0.05870
-0.03372
-0.01249
0.01249
0.03747
0.04496
0.04496
0.04122
0.03997
0.03997
0.03122
0.02998
0.02998
0.02998
0.02623
0.02498
0.01624
-0.02373
-0.14238
-0.28601
-0.30974
-0.07119
0.40342
0.86054
1.00292
0.77686
0.40716
0.12115
-0.01873
-0.05620
-0.04746
-0.04122
-0.03622
-0.03497
-0.03497
-0.04371
-0.04496
-0.04496
-0.04496
-0.05371
-0.05870
-0.05620
-0.05870
-0.06370
-0.06869
-0.07369
-0.08368
-0.08868
-0.09367
-0.09867
-0.10866
-0.11865
-0.12864
-0.13489
-0.14363
-0.15362
-0.15987
-0.16486
-0.16486
-0.16486
-0.16986
-0.17486
-0.17111
-0.16611
-0.17361
-0.17486
-0.17111
-0.16112
-0.15113
-0.14113
-0.11865
-0.09867
-0.08243
-0.06744
-0.05246
-0.04122
-0.03122
-0.02123
-0.01998
-0.01624
-0.00624
-0.00500
-0.00500
-0.00500
-0.00125
0.00000
0.00000
0.00375
0.00874
0.00624
0.00500
0.00125
-0.00874
-0.02623
-0.04621
-0.05870
-0.06370
-0.06869
-0.06620
-0.04871
-0.02373
0.00125
0.01749
0.02873
0.03872
0.03997
0.03122
0.02998
0.02998
0.03372
0.03122
0.02123
0.01998
0.01998
0.01124
-0.01124
-0.08118
-0.20733
-0.29601
-0.23106
0.05371
0.48710
0.82557
0.86803
0.63323
0.31224
0.06869
-0.04371
-0.06869
-0.05745
-0.05121
-0.05371
-0.05870
-0.05995
-0.05995
-0.06370
-0.06495
-0.06495
-0.06869
-0.07369
-0.08368
-0.08493
-0.08493
-0.08868
-0.09367
-0.09492
-0.10366
-0.11366
-0.12739
-0.13864
-0.14363
-0.15362
-0.15862
-0.16362
-0.17361
-0.17860
-0.18360
-0.18859
-0.18984
-0.19359
-0.19859
-0.19984
-0.19609
-0.18735
-0.18110
-0.17610
-0.16237
-0.14738
-0.13239
-0.11740
-0.10242
-0.07993
-0.06245
-0.05246
-0.04246
-0.03247
-0.02248
-0.01998
-0.01998
-0.01624
-0.01124
-0.01374
-0.01873
-0.01249
-0.01374
-0.01873
-0.01624
-0.01124
-0.00624
-0.00500
-0.01249
-0.02248
-0.03747
-0.05246
-0.07119
-0.07869
-0.07993
-0.06744
-0.04496
-0.02373
-0.00375
0.01998
0.03747
0.04371
0.04496
0.04871
0.04621
0.04496
0.04122
0.03622
0.03122
0.02623
0.02498
0.02498
0.01374
-0.05371
-0.18485
-0.30600
-0.27477
0.00000
0.47586
0.90800
1.00667
0.76187
0.39218
0.10491
-0.03622
-0.07119
-0.05870
-0.04746
-0.04496
-0.04496
-0.04871
-0.04996
-0.04996
-0.05745
-0.06370
-0.06120
-0.05995
-0.06744
-0.07369
-0.07869
-0.08368
-0.08493
-0.09242
-0.09867
-0.10741
-0.12115
-0.13614
-0.14738
-0.15737
-0.16362
-0.16861
-0.17361
-0.18235
-0.18485
-0.19234
-0.19859
-0.20358
-0.20483
-0.20483
-0.20108
-0.19609
-0.19109
-0.18610
-0.18485
-0.17361
-0.15487
-0.13489
-0.11116
-0.09367
-0.07494
-0.05495
-0.04246
-0.02873
-0.02123
-0.01998
-0.01998
-0.01249
-0.00624
0.00250
0.00500
0.00125
0.00375
0.01249
0.01499
0.01499
0.01873
0.01998
0.01249
0.00250
-0.00749
-0.02123
-0.03622
-0.05121
-0.05870
-0.05246
-0.04246
-0.02873
-0.00624
0.01873
0.03997
0.05246
0.05495
0.05495
0.05121
0.04996
0.04996
0.04996
0.04621
0.03747
0.03122
0.02998
0.02998
0.01499
-0.04996
-0.17111
-0.26478
-0.21357
0.04246
0.44214
0.79684
0.87678
0.66195
0.33972
0.09492
-0.02373
-0.05620
-0.04496
-0.03247
-0.03372
-0.04246
-0.04496
-0.04496
-0.04496
-0.04871
-0.04996
-0.04996
-0.05371
-0.05870
-0.05995
-0.05995
-0.06370
-0.06869
-0.08118
-0.08868
-0.09367
-0.10242
-0.10866
-0.11366
-0.12240
-0.13239
-0.14613
-0.14988
-0.15362
-0.15862
-0.16736
-0.17361
-0.17486
-0.17486
-0.17486
-0.17486
-0.17111
-0.16237
-0.15612
-0.14363
-0.12864
-0.11740
-0.10366
-0.08868
-0.07369
-0.05495
-0.04246
-0.03622
-0.02748
-0.02123
-0.01249
-0.01374
-0.01499
-0.01499
-0.01499
-0.01499
-0.01124
-0.00999
-0.00624
-0.00874
-0.00999
-0.00624
-0.00874
-0.01749
-0.03122
-0.04246
-0.05620
-0.06744
-0.07369
-0.07494
-0.06120
-0.04122
-0.02123
-0.00125
0.02623
0.04246
0.03747
0.03122
0.02998
0.02998
0.02998
0.02998
0.02998
0.02623
0.01749
0.01124
0.00999
-0.00375
-0.07744
-0.20483
-0.29850
-0.22731
0.05121
0.47336
0.82807
0.89551
0.66195
0.33348
0.08618
-0.03122
-0.06245
-0.05745
-0.04746
-0.04496
-0.04496
-0.04871
-0.04996
-0.04996
-0.04996
-0.05371
-0.05870
-0.05995
-0.05995
-0.06744
-0.07369
-0.07494
-0.07869
-0.08743
-0.09367
-0.09867
-0.10741
-0.11740
-0.12739
-0.13739
-0.14738
-0.15362
-0.15862
-0.16362
-0.16486
-0.17236
-0.18235
-0.18485
-0.17860
-0.17486
-0.17486
-0.17486
-0.16861
-0.16112
-0.15362
-0.14363
-0.12615
-0.10616
-0.09367
-0.07619
-0.05995
-0.04496
-0.03372
-0.02623
-0.02123
-0.01624
-0.01499
-0.01499
-0.01499
-0.00874
-0.00500
-0.00500
-0.00500
-0.00500
-0.00125
-0.00375
-0.00500
-0.00500
-0.00500
-0.00874
-0.01998
-0.03497
-0.05745
-0.07869
-0.09117
-0.08868
-0.07119
-0.04746
-0.02623
0.00000
0.02998
0.04996
0.05121
0.04621
0.04496
0.04496
0.04496
0.04122
0.04371
0.03872
0.03122
0.02623
0.02498
0.00874
-0.07369
-0.21108
-0.30350
-0.22107
0.09117
0.53456
0.88052
0.92424
0.67944
0.33597
0.07619
-0.03872
-0.05620
-0.04496
-0.03622
-0.03497
-0.03497
-0.03872
-0.04371
-0.04496
-0.04496
-0.04871
-0.05371
-0.05121
-0.04996
-0.05620
-0.05995
-0.06370
-0.06869
-0.07369
-0.08118
-0.08493
-0.09117
-0.09867
-0.10616
-0.11615
-0.12365
-0.13114
-0.14113
-0.14488
-0.14863
-0.15362
-0.15862
-0.15987
-0.15987
-0.15987
-0.15987
-0.15987
-0.15987
-0.15362
-0.14363
-0.13364
-0.11740
-0.09992
-0.08868
-0.07494
-0.05995
-0.04871
-0.03872
-0.03497
-0.02873
-0.02123
-0.01998
-0.01998
-0.01624
-0.00874
-0.01124
-0.01499
-0.01499
-0.00874
-0.00500
-0.00500
-0.00500
-0.00125
-0.00624
-0.02248
-0.03997
-0.05495
-0.06620
-0.07619
-0.08368
-0.07494
-0.05121
-0.02998
-0.01249
0.01124
0.02623
0.03372
0.03122
0.02998
0.02998
0.02623
0.02123
0.01998
0.02373
0.02123
0.01624
0.01124
-0.00250
-0.06120
-0.18485
-0.29351
-0.25854
0.00125
0.42965
0.81308
0.93173
0.74439
0.40841
0.12115
-0.02623
-0.06370
-0.05870
-0.05246
-0.04996
-0.04996
-0.05371
-0.05870
-0.06370
-0.06495
-0.06869
-0.06994
-0.06994
-0.06994
-0.06994
-0.07993
-0.08868
-0.09367
-0.09867
-0.10616
-0.11615
-0.11990
-0.12615
-0.13614
-0.14988
-0.16112
-0.17111
-0.17860
-0.18360
-0.18859
-0.18984
-0.19609
-0.20358
-0.20483
-0.20483
-0.20233
-0.19734
-0.18859
-0.18485
-0.17860
-0.16611
-0.15362
-0.13739
-0.12115
-0.10616
-0.08743
-0.06744
-0.05121
-0.03872
-0.03497
-0.03247
-0.02373
-0.01998
-0.01998
-0.01998
-0.01749
-0.01249
-0.00999
-0.00999
-0.00749
-0.00500
-0.00500
-0.00500
-0.00500
-0.00749
-0.02248
-0.04246
-0.05620
-0.06245
-0.07119
-0.07494
-0.06869
-0.04996
-0.02498
0.00000
0.02498
0.04371
0.04746
0.03872
0.03247
0.03622
0.03997
0.03372
0.02748
0.02498
0.02498
0.02248
0.01749
0.00000
-0.07244
-0.20108
-0.28601
-0.20733
0.07619
0.48835
0.82057
0.87178
0.64072
0.31974
0.08118
-0.02748
-0.04996
-0.04371
-0.03747
-0.03747
-0.03997
-0.04246
-0.04496
-0.04496
-0.04496
-0.04496
-0.05121
-0.05745
-0.05995
-0.06245
-0.06744
-0.07244
-0.07744
-0.08243
-0.09117
-0.09492
-0.10117
-0.11116
-0.12115
-0.13114
-0.13739
-0.14238
-0.15113
-0.16362
-0.16986
-0.16986
-0.17236
-0.17486
-0.17735
-0.17985
-0.17985
-0.17985
-0.17735
-0.16611
-0.15113
-0.13988
-0.12615
-0.11116
-0.09367
-0.07619
-0.06120
-0.04871
-0.03872
-0.02873
-0.02248
-0.01998
-0.01374
-0.01249
-0.01749
-0.01998
-0.01374
-0.00999
-0.01249
-0.01249
-0.00749
-0.00250
0.00250
0.00500
-0.00125
-0.01124
-0.02873
-0.04871
-0.06120
-0.06744
-0.07244
-0.06994
-0.05121
-0.02623
-0.00125
0.02123
0.03872
0.04746
0.04746
0.03622
0.02998
0.02998
0.02998
0.02998
0.02748
0.02498
0.02248
0.01499
-0.00624
-0.07244
-0.19484
-0.30475
-0.26603
0.00999
0.46836
0.87303
0.96795
0.74064
0.39218
0.11366
-0.03122
-0.06994
-0.06120
-0.04996
-0.04746
-0.04996
-0.04996
-0.05246
-0.05745
-0.06245
-0.06495
-0.06744
-0.07244
-0.07993
-0.08243
-0.08243
-0.08743
-0.09242
-0.09742
-0.10491
-0.11491
-0.12490
-0.13239
-0.13739
-0.14863
-0.15987
-0.16986
-0.17735
-0.18485
-0.19859
-0.20483
-0.20233
-0.19984
-0.20233
-0.20733
-0.20983
-0.20983
-0.20983
-0.20733
-0.19734
-0.17985
-0.16237
-0.14488
-0.12115
-0.09617
-0.07744
-0.06495
-0.05495
-0.04496
-0.03747
-0.03497
-0.02998
-0.01998
-0.01499
-0.01499
-0.01249
-0.00749
-0.00500
-0.00500
-0.00500
-0.00250
-0.00250
-0.00500
-0.00250
-0.00500
-0.01749
-0.03247
-0.04996
-0.06495
-0.06994
-0.06744
-0.05246
-0.02748
0.00375
0.02998
0.04246
0.04496
0.04746
0.04996
0.04746
0.03997
0.03497
0.03247
0.02998
0.02998
0.02998
0.02748
0.01499
-0.03622
-0.14113
-0.24855
-0.24855
-0.04621
0.34596
0.74688
0.92299
0.78435
0.46587
0.17486
0.00874
-0.04996
-0.05246
-0.03997
-0.03497
-0.03997
-0.04496
-0.04246
-0.04246
-0.04496
-0.04496
-0.04496
-0.04496
-0.04996
-0.05745
-0.05995
-0.06245
-0.06994
-0.07993
-0.08493
-0.08993
-0.09992
-0.10991
-0.11491
-0.11990
-0.12989
-0.13988
-0.14738
-0.15237
-0.15737
-0.15987
-0.15987
-0.16237
-0.16736
-0.17236
-0.17486
-0.17236
-0.16736
-0.16237
-0.15737
-0.14738
-0.13239
-0.11740
-0.09992
-0.08243
-0.06744
-0.05495
-0.04496
-0.03247
-0.02248
-0.01749
-0.01499
-0.01499
-0.00999
-0.00749
-0.01249
-0.01499
-0.01249
-0.00749
-0.00500
-0.00500
-0.00500
-0.00500
-0.00749
-0.01749
-0.03247
-0.04746
-0.06495
-0.07993
-0.08743
-0.08493
-0.06744
-0.04496
-0.02248
0.00500
0.02498
0.03497
0.03997
0.03747
0.03247
0.02748
0.02498
0.02748
0.02748
0.02248
0.01749
0.01249
0.00250
-0.03872
-0.14113
-0.26978
-0.30100
-0.11865
0.28352
0.73439
0.96670
0.85055
0.51333
0.18485
-0.00624
-0.07244
-0.07494
-0.06744
-0.06245
-0.06245
-0.06495
-0.06495
-0.06495
-0.06744
-0.07244
-0.07744
-0.07993
-0.08243
-0.08743
-0.09242
-0.09492
-0.09742
-0.10491
-0.11241
-0.11740
-0.12490
-0.13739
-0.15237
-0.16486
-0.17236
-0.17985
-0.18984
-0.19734
-0.19984
-0.20483
-0.20983
-0.20983
-0.20483
-0.20233
-0.20733
-0.20983
-0.20483
-0.19484
-0.18735
-0.17860
-0.15862
-0.13614
-0.11865
-0.10117
-0.08118
-0.06370
-0.04996
-0.04496
-0.03997
-0.02998
-0.02248
-0.01998
-0.01499
-0.00749
-0.00749
-0.00999
-0.00749
-0.00500
-0.00250
0.00250
0.00500
0.00500
0.00500
0.00000
-0.00749
-0.01624
-0.03122
-0.04871
-0.06245
-0.06495
-0.06245
-0.05121
-0.02873
-0.00375
0.02123
0.03997
0.04496
0.04496
0.04746
0.04746
0.04496
0.04246
0.03997
0.03622
0.02748
0.02498
0.02248
0.01374
-0.02998
-0.13114
-0.24355
-0.25979
-0.08993
0.26103
0.66071
0.88427
0.79559
0.50084
0.20858
0.02998
-0.03872
-0.04746
-0.04246
-0.03747
-0.03747
-0.04246
-0.04246
-0.03997
-0.04246
-0.04496
-0.04746
-0.04996
-0.05246
-0.05745
-0.06370
-0.06994
-0.07369
-0.08618
-0.09492
-0.09492
-0.09867
-0.10866
-0.11865
-0.12864
-0.13864
-0.14863
-0.15862
-0.16486
-0.16736
-0.17236
-0.17735
-0.17985
-0.17985
-0.17985
-0.17985
-0.17985
-0.17735
-0.17236
-0.16611
-0.15362
-0.13614
-0.12115
-0.10866
-0.09117
-0.07119
-0.05371
-0.04246
-0.03747
-0.03122
-0.02248
-0.01998
-0.01749
-0.01499
-0.01499
-0.01499
-0.01749
-0.01749
-0.01124
-0.00250
0.00250
0.00500
0.00250
-0.00250
-0.00874
-0.02248
-0.04122
-0.05620
-0.07119
-0.08368
-0.08743
-0.07744
-0.05745
-0.03747
-0.01249
0.01249
0.02873
0.03747
0.03747
0.03247
0.02998
0.02748
0.02498
0.02498
0.02248
0.01749
0.01249
0.00749
-0.00874
-0.07744
-0.20733
-0.31224
-0.26353
0.03622
0.52082
0.93173
1.00417
0.74064
0.36720
0.08993
-0.03622
-0.05995
-0.05371
-0.04496
-0.04746
-0.05371
-0.05995
-0.05995
-0.05745
-0.05745
-0.05995
-0.05995
-0.06245
-0.06744
-0.07369
-0.08243
-0.08493
-0.08743
-0.09242
-0.09742
-0.10366
-0.11241
-0.12115
-0.13364
-0.14238
-0.14863
-0.15862
-0.16861
-0.17735
-0.17985
-0.17985
-0.18235
-0.18360
-0.17985
-0.17985
-0.17985
-0.17860
-0.17111
-0.16362
-0.15987
-0.15862
-0.14613
-0.12115
-0.09617
-0.07244
-0.05495
-0.03997
-0.02623
-0.01998
-0.01624
-0.00999
-0.00999
-0.00874
-0.00375
0.00125
0.00500
0.00500
0.00500
0.00874
0.01374
0.00999
0.01124
0.01499
0.01124
0.00000
-0.01749
-0.03372
-0.04371
-0.05495
-0.06495
-0.05745
-0.03372
-0.00999
0.00874
0.03247
0.04871
0.05121
0.04496
0.04371
0.04122
0.04371
0.03872
0.03497
0.03497
0.03372
0.02873
0.02373
0.00874
-0.04746
-0.16112
-0.25729
-0.22107
0.01374
0.40092
0.76187
0.89176
0.73065
0.41716
0.14113
-0.00749
-0.04996
-0.04621
-0.03872
-0.03622
-0.03997
-0.04371
-0.05121
-0.05495
-0.05371
-0.05121
-0.05620
-0.06120
-0.06495
-0.06620
-0.06994
-0.07119
-0.07619
-0.08368
-0.09367
-0.10366
-0.11116
-0.11865
-0.12864
-0.13988
-0.15113
-0.15612
-0.16112
-0.16861
-0.17486
-0.17486
-0.17860
-0.18485
-0.18485
-0.18360
-0.17985
-0.17985
-0.17860
-0.17111
-0.16112
-0.15113
-0.13988
-0.12115
-0.09992
-0.08493
-0.07119
-0.05995
-0.04621
-0.03872
-0.03497
-0.03372
-0.02623
-0.01998
-0.01998
-0.01998
-0.01998
-0.01998
-0.01998
-0.01998
-0.01624
-0.00999
-0.00999
-0.00999
-0.00999
-0.01499
-0.03122
-0.04996
-0.06370
-0.07369
-0.08118
-0.08368
-0.07244
-0.04746
-0.01998
0.00500
0.01998
0.03122
0.03372
0.02998
0.02998
0.03122
0.03372
0.02998
0.02873
0.02498
0.02373
0.01873
0.01124
-0.01749
-0.11241
-0.25104
-0.30475
-0.14863
0.22232
0.67944
0.96296
0.89801
0.57578
0.23356
0.02248
-0.05495
-0.05995
-0.04871
-0.04496
-0.04496
-0.04621
-0.05121
-0.05620
-0.05995
-0.05995
-0.05995
-0.06120
-0.06495
-0.06495
-0.06620
-0.07119
-0.07744
-0.08493
-0.08743
-0.09742
-0.10866
-0.11615
-0.12365
-0.13364
-0.14488
-0.15612
-0.16112
-0.16861
-0.17610
-0.18110
-0.18485
-0.18610
-0.18984
-0.18984
-0.18859
-0.18485
-0.18485
-0.18360
-0.17735
-0.16736
-0.15737
-0.14363
-0.12240
-0.10117
-0.08618
-0.06869
-0.05121
-0.03872
-0.03372
-0.02873
-0.02373
-0.01998
-0.01998
-0.01998
-0.01998
-0.01749
-0.00999
-0.00999
-0.00874
-0.00375
0.00125
0.00375
0.00000
-0.00125
-0.00749
-0.02248
-0.04371
-0.05745
-0.06744
-0.07619
-0.07744
-0.06245
-0.03622
-0.00749
0.01749
0.03747
0.04621
0.04871
0.04496
0.04496
0.04371
0.03747
0.02873
0.02498
0.02623
0.02748
0.01749
0.00624
-0.02623
-0.11990
-0.25229
-0.29975
-0.13988
0.24480
0.69568
0.94672
0.85804
0.54205
0.21357
0.00999
-0.05620
-0.05620
-0.04496
-0.04496
-0.04496
-0.04621
-0.05246
-0.05995
-0.05995
-0.05995
-0.06120
-0.06495
-0.06495
-0.06495
-0.06620
-0.07369
-0.08618
-0.08993
-0.09117
-0.09867
-0.11116
-0.11491
-0.11615
-0.12365
-0.13614
-0.13988
-0.14363
-0.15737
-0.16611
-0.16986
-0.17111
-0.17610
-0.18110
-0.18485
-0.18235
-0.17486
-0.17486
-0.17361
-0.16611
-0.15237
-0.14238
-0.12989
-0.10866
-0.08618
-0.07244
-0.06120
-0.04746
-0.03747
-0.02873
-0.02498
-0.02373
-0.01873
-0.01374
-0.00999
-0.00999
-0.00874
-0.00500
-0.00500
-0.00500
-0.00375
0.00000
-0.00125
-0.00500
-0.00749
-0.01998
-0.03872
-0.05246
-0.06120
-0.06620
-0.06994
-0.06620
-0.04871
-0.02123
0.00999
0.02873
0.04122
0.04496
0.04246
0.03372
0.02998
0.02873
0.02373
0.01998
0.02123
0.02373
0.01749
0.00500
-0.02873
-0.11990
-0.23606
-0.28601
-0.14863
0.21232
0.65696
0.92674
0.85929
0.54830
0.22357
0.01624
-0.06370
-0.06994
-0.05246
-0.04496
-0.04621
-0.05121
-0.05620
-0.06245
-0.06994
-0.06994
-0.06994
-0.07119
-0.07744
-0.08493
-0.08493
-0.08618
-0.09117
-0.09742
-0.10616
-0.11241
-0.12115
-0.12739
-0.13739
-0.14738
-0.15737
-0.16861
-0.18110
-0.18485
-0.18735
-0.19609
-0.19984
-0.20108
-0.20608
-0.20983
-0.20858
-0.20358
-0.19859
-0.19234
-0.18360
-0.17735
-0.16237
-0.14613
-0.12490
-0.09992
-0.07619
-0.06120
-0.04746
-0.03747
-0.02748
-0.01998
-0.01998
-0.01998
-0.01873
-0.01499
-0.01624
-0.01873
-0.01249
-0.00500
-0.00500
-0.00500
-0.00500
-0.00500
-0.00500
-0.00500
-0.00749
-0.01873
-0.03872
-0.05870
-0.07119
-0.07494
-0.07244
-0.05995
-0.03497
-0.00999
0.01374
0.03247
0.04621
0.04996
0.04871
0.04371
0.03997
0.03872
0.03372
0.02873
0.02498
0.02498
0.02248
0.01124
-0.02123
-0.11740
-0.24730
-0.28601
-0.09117
0.33472
0.79809
0.99668
0.82682
0.45962
0.14863
-0.01624
-0.05870
-0.05246
-0.03872
-0.03497
-0.03622
-0.03997
-0.03997
-0.04122
-0.04621
-0.04871
-0.04496
-0.04746
-0.05620
-0.06120
-0.06495
-0.06620
-0.07244
-0.08493
-0.08618
-0.09242
-0.10366
-0.12115
-0.12490
-0.12615
-0.13239
-0.14238
-0.15113
-0.15612
-0.16237
-0.17111
-0.17486
-0.17486
-0.17610
-0.17985
-0.17985
-0.17860
-0.17361
-0.16861
-0.16362
-0.15113
-0.13239
-0.11740
-0.10117
-0.08118
-0.06370
-0.05371
-0.04371
-0.03247
-0.01873
-0.00874
-0.00500
-0.00500
-0.00375
-0.00125
-0.00500
-0.00375
0.00125
0.00500
0.00500
0.00500
0.00624
0.01374
0.00874
0.00375
-0.00624
-0.01249
-0.02873
-0.04621
-0.05620
-0.05995
-0.05620
-0.03622
-0.01124
0.01374
0.03622
0.04496
0.04496
0.04496
0.04371
0.03872
0.03622
0.03997
0.03872
0.02873
0.02498
0.02373
0.01749
-0.00500
-0.07993
-0.19984
-0.27103
-0.18360
0.10866
0.53831
0.86429
0.87678
0.61200
0.28726
0.06245
-0.03747
-0.05371
-0.04371
-0.03622
-0.04122
-0.04621
-0.04996
-0.04996
-0.05121
-0.05620
-0.05870
-0.05620
-0.06120
-0.06620
-0.06994
-0.06994
-0.07119
-0.08243
-0.09617
-0.10117
-0.10616
-0.11615
-0.12615
-0.13614
-0.14113
-0.15113
-0.16112
-0.16611
-0.17111
-0.17610
-0.18110
-0.18485
-0.18485
-0.18485
-0.18485
-0.17985
-0.17985
-0.17361
-0.16486
-0.15737
-0.14238
-0.12739
-0.11241
-0.09742
-0.07744
-0.05745
-0.04371
-0.03372
-0.02373
-0.01873
-0.01624
-0.01998
-0.01873
-0.01374
-0.00874
-0.00500
-0.00500
-0.00500
-0.00500
-0.00500
-0.00500
-0.00375
-0.00125
-0.00624
-0.01249
-0.02748
-0.04746
-0.06245
-0.07619
-0.08493
-0.08243
-0.06245
-0.04246
-0.01749
0.00749
0.02623
0.03622
0.04122
0.04371
0.03497
0.02998
0.02498
0.02498
0.02498
0.01998
0.01998
0.01499
0.00624
-0.03747
-0.14738
-0.28227
-0.32099
-0.12490
0.31099
0.80933
1.05038
0.89052
0.50833
0.16736
-0.01124
-0.06495
-0.06370
-0.05371
-0.04496
-0.04496
-0.05121
-0.05995
-0.05995
-0.05995
-0.06495
-0.06994
-0.06994
-0.06994
-0.07119
-0.07993
-0.08493
-0.09117
-0.10117
-0.11116
-0.11615
-0.12115
-0.13114
-0.14613
-0.15612
-0.16112
-0.16611
-0.17610
-0.18110
-0.18610
-0.19109
-0.20108
-0.20483
-0.20608
-0.20983
-0.20983
-0.20983
-0.20858
-0.19984
-0.19484
-0.18859
-0.16736
-0.14363
-0.12864
-0.10866
-0.08868
-0.07369
-0.05870
-0.04871
-0.03872
-0.02998
-0.02498
-0.01998
-0.01873
-0.00999
-0.00500
-0.00999
-0.00999
-0.00500
-0.00500
-0.00500
-0.00375
0.00624
0.01374
0.00375
-0.01124
-0.02623
-0.04122
-0.05620
-0.06994
-0.06994
-0.06245
-0.03872
-0.02248
0.00250
0.03122
0.04996
0.05495
0.05495
0.05495
0.04996
0.04496
0.03997
0.04371
0.03497
0.02998
0.02998
0.03372
0.01998
-0.04996
-0.17860
-0.27602
-0.20358
0.08493
0.52457
0.88052
0.92923
0.65821
0.30600
0.06245
-0.03622
-0.04871
-0.03872
-0.02998
-0.02998
-0.03497
-0.03997
-0.03997
-0.03497
-0.03997
-0.04496
-0.04996
-0.04996
-0.04996
-0.05495
-0.05995
-0.06495
-0.06620
-0.07619
-0.08493
-0.08993
-0.09492
-0.10117
-0.11491
-0.12115
-0.12989
-0.13614
-0.14988
-0.15487
-0.15487
-0.16112
-0.16986
-0.16986
-0.16986
-0.16486
-0.16986
-0.16986
-0.16986
-0.15987
-0.15362
-0.13864
-0.11366
-0.09992
-0.08868
-0.07369
-0.05371
-0.03997
-0.03497
-0.02998
-0.01998
-0.01499
-0.00500
-0.00500
-0.00500
-0.00500
-0.00999
-0.00999
-0.00999
-0.00500
0.00000
-0.00500
-0.00500
-0.00500
-0.00500
-0.01124
-0.02998
-0.03997
-0.05121
-0.06495
-0.07494
-0.07369
-0.05371
-0.02873
-0.00874
0.01624
0.03997
0.04496
0.03497
0.03497
0.03997
0.03997
0.02998
0.02498
0.02498
0.01998
0.01998
0.01998
0.00874
-0.02998
-0.14488
-0.27602
-0.28726
-0.08493
0.32723
0.77311
0.97420
0.81183
0.45837
0.14863
-0.01124
-0.05995
-0.05995
-0.04996
-0.04496
-0.04496
-0.04996
-0.05995
-0.05995
-0.05995
-0.05995
-0.05995
-0.06495
-0.06495
-0.06495
-0.06994
-0.07494
-0.07993
-0.08493
-0.09492
-0.10491
-0.10991
-0.11491
-0.12490
-0.13489
-0.13988
-0.14488
-0.15487
-0.16986
-0.17486
-0.17985
-0.18485
-0.18984
-0.18984
-0.18984
-0.18485
-0.18485
-0.18485
-0.18485
-0.17486
-0.16486
-0.15487
-0.13489
-0.11491
-0.09492
-0.07993
-0.06495
-0.04496
-0.03497
-0.03497
-0.03497
-0.02498
-0.01998
-0.01998
-0.01998
-0.01499
-0.00999
-0.00999
-0.00999
-0.00500
-0.00500
-0.00500
-0.00500
0.00500
0.00000
-0.01499
-0.03997
-0.04996
-0.06495
-0.07494
-0.08493
-0.07993
-0.05995
-0.03497
-0.01499
0.01998
0.04496
0.05495
0.04496
0.04496
0.03997
0.03997
0.03497
0.02998
0.02498
0.01998
0.01998
0.01998
0.00999
-0.02998
-0.15487
-0.30974
-0.32973
-0.07993
0.42340
0.92923
1.08411
0.84056
0.42715
0.10117
-0.04496
-0.06994
-0.05495
-0.04496
-0.04496
-0.04496
-0.04996
-0.05495
-0.05995
-0.05995
-0.05995
-0.06495
-0.06994
-0.06994
-0.06994
-0.07993
-0.08493
-0.08493
-0.08493
-0.09492
-0.10991
-0.11491
-0.11990
-0.12989
-0.14488
-0.14988
-0.15987
-0.16986
-0.17985
-0.18485
-0.18984
-0.19484
-0.19984
-0.19984
-0.19984
-0.19984
-0.19984
-0.19984
-0.18984
-0.17985
-0.16986
-0.15487
-0.13489
-0.11491
-0.09492
-0.07993
-0.06495
-0.04996
-0.03997
-0.03497
-0.02998
-0.01998
-0.01998
-0.01499
-0.00999
-0.00500
0.00000
0.00500
0.00500
0.00500
0.00999
0.00500
0.00500
0.00500
0.00999
0.00000
-0.01499
-0.03497
-0.04496
-0.04996
-0.05995
-0.05995
-0.04122
-0.02498
-0.00624
0.02373
0.04371
0.04996
0.03997
0.03997
0.03997
0.04496
0.03497
0.02998
0.02998
0.02998
0.02998
0.02498
0.01998
-0.00375
-0.10117
-0.23481
-0.27852
-0.13114
0.20983
0.63697
0.90425
0.83306
0.51458
0.19359
0.00749
-0.05246
-0.05995
-0.04996
-0.04496
-0.04496
-0.04996
-0.05995
-0.05995
-0.05995
-0.05995
-0.05995
-0.06495
-0.06495
-0.06994
-0.07494
-0.07993
-0.08493
-0.08993
-0.09992
-0.10991
-0.10991
-0.11491
-0.12864
-0.14363
-0.14988
-0.15487
-0.15987
-0.17361
-0.17985
-0.17985
-0.17985
-0.18485
-0.18485
-0.18485
-0.18485
-0.18485
-0.18485
-0.18485
-0.17610
-0.16112
-0.14613
-0.12615
-0.10616
-0.09117
-0.07619
-0.06120
-0.04621
-0.03622
-0.02998
-0.02498
-0.01998
-0.01998
-0.01998
-0.01998
-0.01499
-0.00999
-0.01499
-0.01499
-0.00999
-0.00500
-0.00500
-0.00500
-0.00500
-0.00500
-0.00999
-0.02873
-0.04371
-0.05870
-0.06869
-0.07869
-0.07993
-0.06120
-0.04122
-0.02623
-0.00125
0.02748
0.04371
0.04496
0.04496
0.04496
0.03997
0.03122
0.02998
0.02998
0.02998
0.02498
0.01998
0.01499
-0.00749
-0.09742
-0.24355
-0.32348
-0.21482
0.14363
0.64822
0.99793
0.97045
0.64447
0.27103
0.03372
-0.05870
-0.06994
-0.06120
-0.05495
-0.04996
-0.05495
-0.05995
-0.06495
-0.06495
-0.06495
-0.06495
-0.06994
-0.06994
-0.07869
-0.08493
-0.09367
-0.09492
-0.09492
-0.10366
-0.11366
-0.12365
-0.13364
-0.14363
-0.14988
-0.15487
-0.15987
-0.16861
-0.18360
-0.18485
-0.18485
-0.19359
-0.19984
-0.20483
-0.20483
-0.20108
-0.20858
-0.20983
-0.20108
-0.19109
-0.18110
-0.17111
-0.15237
-0.13239
-0.11615
-0.09742
-0.08118
-0.06245
-0.04621
-0.04496
-0.03997
-0.03122
-0.02123
-0.01998
-0.01998
-0.01124
-0.01499
-0.01998
-0.01998
-0.01124
-0.00500
-0.00500
-0.00500
-0.00500
0.00000
-0.00874
-0.01873
-0.03372
-0.04871
-0.06370
-0.06994
-0.06994
-0.06120
-0.04621
-0.03122
-0.00375
0.02623
0.04371
0.03997
0.04496
0.04496
0.03997
0.03122
0.02998
0.03497
0.03497
0.02998
0.02498
0.01998
0.00624
-0.06495
-0.19359
-0.27977
-0.19359
0.10616
0.52707
0.85180
0.87678
0.62074
0.29101
0.06120
-0.03497
-0.05371
-0.04621
-0.04122
-0.03997
-0.04496
-0.04996
-0.04996
-0.04996
-0.04996
-0.05870
-0.06495
-0.06495
-0.06495
-0.06994
-0.07494
-0.07993
-0.08493
-0.09367
-0.10366
-0.10991
-0.11491
-0.11990
-0.12490
-0.13364
-0.13988
-0.14863
-0.15862
-0.16486
-0.16486
-0.17361
-0.17985
-0.17985
-0.17985
-0.17985
-0.17985
-0.17985
-0.17610
-0.16611
-0.16112
-0.15113
-0.13239
-0.11241
-0.10117
-0.09117
-0.06869
-0.04746
-0.03622
-0.03122
-0.02623
-0.02123
-0.01998
-0.01998
-0.01998
-0.01624
-0.01499
-0.01873
-0.01998
-0.01624
-0.00624
-0.00500
-0.00500
-0.00500
-0.01374
-0.02748
-0.04246
-0.05371
-0.05870
-0.07244
-0.08368
-0.07619
-0.05745
-0.04246
-0.02248
-0.00250
0.02123
0.03372
0.03122
0.02998
0.02623
0.02498
0.02123
0.01998
0.02373
0.02123
0.01624
0.01124
0.00624
-0.01998
-0.10866
-0.24730
-0.31599
-0.19109
0.15737
0.62199
0.92674
0.88177
0.58077
0.24855
0.03622
-0.04996
-0.05995
-0.05121
-0.04621
-0.04496
-0.04871
-0.05371
-0.05870
-0.05620
-0.05870
-0.06370
-0.06869
-0.06994
-0.06994
-0.07369
-0.08368
-0.08493
-0.08493
-0.09367
-0.10741
-0.11366
-0.11491
-0.12365
-0.13739
-0.14863
-0.14988
-0.15862
-0.16861
-0.17361
-0.17486
-0.18360
-0.19359
-0.19484
-0.19109
-0.19359
-0.19859
-0.19984
-0.18735
-0.17735
-0.16736
-0.16112
-0.14363
-0.11990
-0.09867
-0.08243
-0.06744
-0.04871
-0.04122
-0.03622
-0.03122
-0.02123
-0.01998
-0.01998
-0.01998
-0.01624
-0.01499
-0.01499
-0.01499
-0.01124
-0.00624
-0.00874
-0.00624
-0.00500
-0.00125
-0.00375
-0.01749
-0.03622
-0.05246
-0.06744
-0.08243
-0.08493
-0.06869
-0.05246
-0.03372
-0.01374
0.01374
0.03622
0.04371
0.04496
0.04496
0.04122
0.03622
0.03872
0.03997
0.03622
0.02748
0.02123
0.01624
0.00749
-0.03872
-0.15862
-0.29351
-0.29975
-0.03497
0.46587
0.93048
1.05163
0.79310
0.39842
0.09992
-0.03497
-0.05870
-0.04746
-0.04122
-0.03997
-0.04371
-0.05745
-0.05995
-0.05620
-0.05870
-0.06370
-0.06869
-0.06994
-0.06994
-0.06994
-0.07369
-0.07494
-0.08243
-0.09242
-0.10242
-0.10866
-0.11366
-0.12240
-0.13739
-0.14738
-0.15737
-0.16736
-0.17735
-0.18360
-0.18859
-0.19734
-0.20358
-0.20483
-0.20108
-0.19984
-0.20358
-0.20483
-0.20108
-0.19609
-0.18735
-0.18110
-0.16112
-0.14363
-0.12490
-0.10866
-0.08493
-0.06869
-0.05371
-0.04621
-0.03747
-0.03122
-0.02248
-0.01998
-0.01998
-0.01249
-0.00624
-0.00500
-0.00125
0.00375
0.00500
0.00500
0.00500
0.00500
0.00125
-0.00749
-0.02123
-0.03247
-0.04246
-0.05620
-0.06370
-0.06495
-0.05745
-0.03997
-0.01998
0.00375
0.02123
0.03622
0.04371
0.04871
0.04621
0.04496
0.04496
0.04496
0.04122
0.03247
0.02998
0.02623
0.02123
0.00500
-0.05745
-0.17361
-0.26228
-0.20733
0.05371
0.46462
0.82057
0.89301
0.66320
0.33597
0.09617
-0.02248
-0.05246
-0.04746
-0.04122
-0.03997
-0.04371
-0.04496
-0.04871
-0.04996
-0.04996
-0.05745
-0.05995
-0.05995
-0.06370
-0.06869
-0.06994
-0.06994
-0.07369
-0.08243
-0.09242
-0.09867
-0.10741
-0.11740
-0.13114
-0.13864
-0.14363
-0.14863
-0.15737
-0.16362
-0.16861
-0.17361
-0.17860
-0.17985
-0.17610
-0.17486
-0.17486
-0.17486
-0.17486
-0.16736
-0.16112
-0.14863
-0.13364
-0.11491
-0.09867
-0.08368
-0.06869
-0.05371
-0.04621
-0.04122
-0.03247
-0.02248
-0.01998
-0.01998
-0.01998
-0.01624
-0.01499
-0.01873
-0.01998
-0.01624
-0.01124
-0.01374
-0.01499
-0.00749
-0.00874
-0.02123
-0.03622
-0.05121
-0.06620
-0.07744
-0.08368
-0.08118
-0.06120
-0.04371
-0.02873
-0.00624
0.01873
0.02873
0.02998
0.02998
0.03372
0.03122
0.02248
0.01998
0.01998
0.01998
0.01249
0.00624
0.00500
-0.02748
-0.12615
-0.25729
-0.30600
-0.15487
0.21482
0.66570
0.93173
0.85929
0.55204
0.22731
0.02123
-0.05745
-0.06245
-0.05620
-0.05121
-0.04996
-0.05371
-0.05870
-0.05995
-0.05995
-0.05995
-0.05995
-0.06370
-0.06495
-0.06869
-0.07744
-0.08368
-0.08493
-0.08868
-0.09367
-0.10242
-0.10866
-0.11740
-0.13114
-0.14238
-0.14863
-0.15737
-0.16362
-0.17236
-0.17860
-0.17985
-0.18360
-0.18859
-0.19734
-0.19984
-0.19609
-0.19484
-0.19484
-0.18859
-0.18110
-0.17361
-0.15987
-0.14488
-0.12240
-0.10491
-0.08618
-0.06994
-0.05121
-0.04122
-0.03622
-0.03122
-0.02248
-0.01998
-0.01998
-0.01998
-0.01624
-0.01873
-0.01998
-0.01998
-0.01249
-0.00624
-0.00500
-0.00500
-0.00500
-0.00500
-0.01873
-0.03872
-0.05495
-0.06744
-0.07993
-0.08868
-0.08368
-0.06245
-0.04122
-0.02123
0.00250
0.02748
0.04246
0.04122
0.03622
0.03872
0.03372
0.02998
0.02623
0.02498
0.02123
0.01624
0.01124
0.00375
-0.04122
-0.15237
-0.28726
-0.30974
-0.08243
0.38343
0.86054
1.04289
0.83931
0.45712
0.13489
-0.03247
-0.07993
-0.07119
-0.05870
-0.04871
-0.04871
-0.05620
-0.06370
-0.06495
-0.06495
-0.06869
-0.06994
-0.06994
-0.07369
-0.07869
-0.08368
-0.08868
-0.09367
-0.09492
-0.10117
-0.11116
-0.11865
-0.12615
-0.14363
-0.15612
-0.16362
-0.16861
-0.17610
-0.18360
-0.18859
-0.19359
-0.19859
-0.20358
-0.20483
-0.20108
-0.19984
-0.19984
-0.19609
-0.18859
-0.17860
-0.16861
-0.15862
-0.13864
-0.11366
-0.09492
-0.07993
-0.06120
-0.04871
-0.03872
-0.03497
-0.02498
-0.01374
-0.00624
-0.00500
-0.00500
-0.00125
0.00375
0.00500
0.00500
0.00500
0.00500
0.00500
0.00500
0.00500
-0.00125
-0.01749
-0.03497
-0.04371
-0.05121
-0.05870
-0.05371
-0.03747
-0.01749
0.00250
0.02248
0.03997
0.05121
0.05121
0.04621
0.04496
0.04496
0.04496
0.04122
0.03372
0.03372
0.03122
0.02623
0.01873
-0.01749
-0.11491
-0.23106
-0.24105
-0.04871
0.32598
0.72940
0.92424
0.79809
0.48335
0.18610
0.01624
-0.03747
-0.04122
-0.03622
-0.03497
-0.03497
-0.03497
-0.03872
-0.04371
-0.04496
-0.04496
-0.04496
-0.05121
-0.05870
-0.05995
-0.06370
-0.07119
-0.08118
-0.08868
-0.08993
-0.09367
-0.10117
-0.11116
-0.11865
-0.12615
-0.13614
-0.14613
-0.15612
-0.16362
-0.16861
-0.16736
-0.16486
-0.17111
-0.17860
-0.17985
-0.17985
-0.17985
-0.17985
-0.17735
-0.16237
-0.14613
-0.13364
-0.12115
-0.09992
-0.07494
-0.05620
-0.04371
-0.03372
-0.02373
-0.01749
-0.01249
-0.00749
-0.00250
-0.00250
-0.00500
-0.00500
-0.00500
-0.00500
-0.00500
-0.00500
-0.00250
0.00250
0.00250
-0.00250
-0.01124
-0.02123
-0.03747
-0.05371
-0.06245
-0.06495
-0.05870
-0.04621
-0.02498
0.00000
0.01873
0.03122
0.04122
0.04746
0.04746
0.03872
0.03747
0.03997
0.03997
0.03372
0.02748
0.02498
0.02498
0.01249
-0.03997
-0.14863
-0.25979
-0.25479
-0.04746
0.33722
0.73190
0.89052
0.73439
0.42465
0.15237
-0.00624
-0.05620
-0.05371
-0.04371
-0.03997
-0.04246
-0.04496
-0.04496
-0.04746
-0.05246
-0.05745
-0.05995
-0.05995
-0.06620
-0.06994
-0.06994
-0.07244
-0.08118
-0.09117
-0.09492
-0.10117
-0.11116
-0.11740
-0.12864
-0.14113
-0.15362
-0.15987
-0.16237
-0.16736
-0.17236
-0.18110
-0.18485
-0.18485
-0.18485
-0.18485
-0.18485
-0.18485
-0.18235
-0.17735
-0.16861
-0.15612
-0.14113
-0.12615
-0.10866
-0.08868
-0.06869
-0.05121
-0.03872
-0.02623
-0.01374
-0.00999
-0.01249
-0.01499
-0.01749
-0.01998
-0.01998
-0.01998
-0.01124
-0.00500
-0.00500
-0.00250
0.00250
0.00500
0.00250
-0.00624
-0.02123
-0.04122
-0.06120
-0.07244
-0.07494
-0.06370
-0.04122
-0.01873
0.00125
0.02373
0.04371
0.05246
0.05495
0.05246
0.04746
0.04496
0.04496
0.04496
0.04246
0.03372
0.02998
0.02998
0.02123
-0.02998
-0.14113
-0.25604
-0.25729
-0.04246
0.36720
0.77436
0.93048
0.77061
0.44838
0.16611
0.01124
-0.03872
-0.04246
-0.03497
-0.02748
-0.02998
-0.03747
-0.03997
-0.03747
-0.03747
-0.03997
-0.04246
-0.04496
-0.04496
-0.04996
-0.05745
-0.06245
-0.06495
-0.06744
-0.07494
-0.08493
-0.09242
-0.09992
-0.10991
-0.11491
-0.11740
-0.12864
-0.13739
-0.13988
-0.14488
-0.15862
-0.16986
-0.17486
-0.16986
-0.16486
-0.16736
-0.16736
-0.16237
-0.15737
-0.15237
-0.14488
-0.12864
-0.11241
-0.09992
-0.08743
-0.06620
-0.04996
-0.03997
-0.03497
-0.02748
-0.01998
-0.01998
-0.01749
-0.01249
-0.00749
-0.00500
-0.00500
-0.00500
-0.00500
-0.00500
-0.00500
-0.00500
-0.00500
-0.01249
-0.03122
-0.05121
-0.06495
-0.07494
-0.07993
-0.07244
-0.05121
-0.02998
-0.00999
0.00999
0.02498
0.03247
0.03247
0.02998
0.02998
0.02998
0.02998
0.02748
0.02248
0.01998
0.01499
0.00749
-0.00250
-0.04371
-0.15113
-0.27727
-0.29601
-0.09992
0.30100
0.72565
0.92299
0.79934
0.48460
0.17985
-0.00500
-0.06744
-0.06744
-0.05495
-0.05246
-0.05495
-0.05495
-0.05745
-0.06245
-0.06495
-0.06495
-0.06744
-0.06994
-0.07244
-0.07244
-0.07244
-0.07993
-0.08743
-0.08993
-0.09492
-0.10741
-0.11740
-0.12240
-0.13239
-0.14738
-0.15987
-0.16486
-0.16986
-0.17985
-0.18984
-0.19734
-0.19984
-0.20483
-0.20983
-0.20983
-0.20733
-0.20233
-0.19984
-0.19484
-0.17985
-0.16486
-0.15487
-0.13988
-0.11740
-0.09492
-0.07744
-0.06495
-0.05246
-0.03997
-0.02998
-0.02498
-0.02248
-0.01998
-0.01998
-0.01998
-0.01749
-0.00999
-0.00500
-0.00500
-0.00500
-0.00250
0.00000
-0.00250
-0.01249
-0.02998
-0.04746
-0.06495
-0.07993
-0.08493
-0.07494
-0.05495
-0.03497
-0.01249
0.01249
0.03247
0.04246
0.04496
0.04496
0.04246
0.03497
0.03247
0.03497
0.03247
0.02748
0.02498
0.02498
0.01749
-0.02123
-0.11615
-0.23606
-0.27852
-0.13114
0.22232
0.64822
0.90301
0.84430
0.55329
0.23730
0.03497
-0.04496
-0.05495
-0.04496
-0.03747
-0.03747
-0.04246
-0.04496
-0.04496
-0.04496
-0.04496
-0.04496
-0.04746
-0.05495
-0.06245
-0.06495
-0.06495
-0.06994
-0.07993
-0.08743
-0.08993
-0.09242
-0.09992
-0.11241
-0.12490
-0.13239
-0.14238
-0.15487
-0.15987
-0.15987
-0.16486
-0.17486
-0.17985
-0.17985
-0.18235
-0.18485
-0.18235
-0.17735
-0.17236
-0.16486
-0.15487
-0.14113
-0.12365
-0.10741
-0.09492
-0.07869
-0.05745
-0.04496
-0.03497
-0.02498
-0.01499
-0.00999
-0.00999
-0.00999
-0.00749
-0.00749
-0.00999
-0.00749
-0.00250
0.00250
0.00500
0.00500
0.00000
-0.00999
-0.02623
-0.04871
-0.06495
-0.07244
-0.07494
-0.06869
-0.04871
-0.02623
-0.00375
0.02123
0.03997
0.04496
0.04496
0.04496
0.04496
0.04246
0.03997
0.03747
0.03497
0.02998
0.02248
0.01499
0.00375
-0.04246
-0.15237
-0.26853
-0.26103
-0.01624
0.43714
0.86554
1.00043
0.79684
0.44713
0.15487
0.00125
-0.03997
-0.03372
-0.02248
-0.01998
-0.01998
-0.01998
-0.02498
-0.02998
-0.02998
-0.02998
-0.03247
-0.03497
-0.03497
-0.03997
-0.04496
-0.04996
-0.05745
-0.06245
-0.06994
-0.08118
-0.09242
-0.09742
-0.10491
-0.11491
-0.12240
-0.12739
-0.13489
-0.14488
-0.14988
-0.14988
-0.14988
-0.15487
-0.15987
-0.15737
-0.15113
-0.14738
-0.14988
-0.14613
-0.13364
-0.11865
-0.10616
-0.09117
-0.06994
-0.04871
-0.03372
-0.01873
-0.00375
0.00500
0.00749
0.01249
0.01749
0.02248
0.02748
0.02998
0.02998
0.03247
0.03247
0.02998
0.03247
0.03747
0.03622
0.02373
0.00874
-0.00624
-0.02123
-0.03622
-0.04496
-0.03872
-0.02123
-0.00125
0.01873
0.03997
0.06120
0.06994
0.06994
0.06994
0.06744
0.06245
0.05745
0.05745
0.05745
0.05246
0.04746
0.04246
0.03372
-0.00125
-0.09117
-0.20983
-0.25479
-0.11366
0.23356
0.66195
0.92674
0.85929
0.55954
0.24230
0.04371
-0.03247
-0.04246
-0.03622
-0.02623
-0.02373
-0.03247
-0.03747
-0.03997
-0.04246
-0.04496
-0.04746
-0.04996
-0.05371
-0.06245
-0.06744
-0.06994
-0.07244
-0.07869
-0.08868
-0.09742
-0.10366
-0.11366
-0.12365
-0.13614
-0.14738
-0.15362
-0.16362
-0.17361
-0.17985
-0.18235
-0.18859
-0.19734
-0.19859
-0.19359
-0.18859
-0.18485
-0.18485
-0.18360
-0.17610
-0.16611
-0.15237
-0.13239
-0.11241
-0.09242
-0.06994
-0.05121
-0.04122
-0.03247
-0.02623
-0.01374
-0.00500
-0.00749
-0.01249
-0.01249
-0.00749
-0.00500
-0.00500
-0.00500
-0.00250
0.00250
0.00250
-0.00250
-0.01124
-0.02748
-0.04621
-0.05870
-0.06869
-0.07494
-0.06994
-0.04871
-0.01873
0.01124
0.03622
0.04871
0.05745
0.05870
0.05121
0.04496
0.04496
0.04496
0.04122
0.03372
0.02998
0.02998
0.02873
0.00999
-0.05246
-0.16362
-0.25854
-0.20858
0.07494
0.52332
0.88552
0.92049
0.65071
0.31349
0.07869
-0.02248
-0.04122
-0.03122
-0.02623
-0.03122
-0.03497
-0.03497
-0.03497
-0.03622
-0.03997
-0.03997
-0.04122
-0.04621
-0.05121
-0.05620
-0.06370
-0.07119
-0.07869
-0.08493
-0.08618
-0.09367
-0.10366
-0.11366
-0.12240
-0.12739
-0.13364
-0.14363
-0.15362
-0.16237
-0.16736
-0.16986
-0.16986
-0.17236
-0.17860
-0.18360
-0.17860
-0.17111
-0.16362
-0.15987
-0.15487
-0.13739
-0.12115
-0.10991
-0.09242
-0.07244
-0.05620
-0.04871
-0.04122
-0.03122
-0.02373
-0.01998
-0.01998
-0.01873
-0.01374
-0.00999
-0.00999
-0.00874
-0.00375
0.00000
0.00000
0.00000
-0.00375
-0.01624
-0.03497
-0.04871
-0.05870
-0.06620
-0.06869
-0.05870
-0.03872
-0.01873
0.00375
0.02623
0.04122
0.04496
0.04122
0.03372
0.03122
0.03372
0.02998
0.02873
0.02498
0.02373
0.01499
0.00375
-0.01124
-0.06994
-0.18485
-0.27977
-0.21732
0.06620
0.48960
0.84305
0.89926
0.65696
0.31849
0.07244
-0.03622
-0.05995
-0.05620
-0.04871
-0.04496
-0.04621
-0.05121
-0.05620
-0.06120
-0.06495
-0.06620
-0.06994
-0.07119
-0.07494
-0.07869
-0.08868
-0.09617
-0.10117
-0.10866
-0.11615
-0.12490
-0.13864
-0.14863
-0.15612
-0.16486
-0.17610
-0.18110
-0.18859
-0.19984
-0.20983
-0.20983
-0.20983
-0.20983
-0.20983
-0.20983
-0.20983
-0.20983
-0.20733
-0.19734
-0.18485
-0.16986
-0.15487
-0.13739
-0.11366
-0.09492
-0.07993
-0.06370
-0.04746
-0.03872
-0.03497
-0.03372
-0.02748
-0.01998
-0.01998
-0.01998
-0.01873
-0.01374
-0.01124
-0.01374
-0.00874
-0.00500
-0.00749
-0.01998
-0.03497
-0.04996
-0.06620
-0.08243
-0.08868
-0.07869
-0.05870
-0.03997
-0.01998
0.01374
0.03747
0.04496
0.04496
0.04496
0.04371
0.03747
0.02873
0.02498
0.02373
0.01873
0.01499
0.01499
0.00749
-0.03497
-0.13864
-0.26853
-0.28227
-0.06120
0.37969
0.82932
0.99918
0.79809
0.42340
0.12115
-0.02498
-0.05745
-0.04871
-0.04371
-0.04122
-0.04621
-0.05121
-0.05495
-0.05371
-0.05121
-0.05745
-0.06620
-0.06994
-0.06994
-0.06994
-0.07119
-0.07619
-0.08243
-0.09367
-0.10616
-0.10991
-0.11241
-0.12365
-0.13864
-0.15113
-0.15612
-0.16112
-0.16611
-0.17111
-0.17610
-0.18110
-0.18485
-0.18485
-0.18610
-0.19109
-0.19484
-0.19359
-0.18735
-0.17860
-0.17236
-0.16112
-0.14488
-0.12490
-0.10491
-0.08618
-0.07119
-0.05620
-0.04371
-0.03747
-0.02748
-0.01749
-0.00999
-0.00999
-0.00874
-0.00375
0.00125
0.00500
0.00500
0.00624
0.00874
0.00500
0.00250
-0.00624
-0.01374
-0.02998
-0.04746
-0.05620
-0.06120
-0.06370
-0.05495
-0.03372
-0.00874
0.01499
0.03247
0.04122
0.04496
0.04496
0.04496
0.04496
0.04371
0.03747
0.02998
0.02873
0.02498
0.02373
0.01499
-0.01873
-0.10741
-0.22357
-0.25604
-0.10242
0.25354
0.67070
0.90425
0.81058
0.50458
0.19609
0.01249
-0.05620
-0.05620
-0.04371
-0.04122
-0.04621
-0.04996
-0.04871
-0.04746
-0.05620
-0.06120
-0.06495
-0.06620
-0.07119
-0.07494
-0.07494
-0.07744
-0.08743
-0.09742
-0.10616
-0.11116
-0.11865
-0.13239
-0.14238
-0.15113
-0.15737
-0.16736
-0.17486
-0.17610
-0.18235
-0.19234
-0.19984
-0.19984
-0.19984
-0.20108
-0.20358
-0.19859
-0.19234
-0.18485
-0.18235
-0.16986
-0.15113
-0.13614
-0.11990
-0.10117
-0.08493
-0.06620
-0.05121
-0.03747
-0.02748
-0.01998
-0.01998
-0.01998
-0.01998
-0.01998
-0.01998
-0.01998
-0.01749
-0.00999
-0.01124
-0.01374
-0.00999
-0.01374
-0.02873
-0.04371
-0.05745
-0.06744
-0.07744
-0.08493
-0.07993
-0.05870
-0.02998
-0.00999
0.01499
0.03872
0.04871
0.04246
0.03497
0.03372
0.02998
0.02998
0.02998
0.02998
0.02873
0.02373
0.01873
0.00874
-0.03622
-0.14738
-0.27602
-0.27352
-0.01998
0.45962
0.90925
1.03290
0.78810
0.39467
0.09617
-0.03747
-0.06245
-0.04746
-0.04122
-0.04496
-0.04621
-0.05121
-0.05620
-0.05995
-0.05995
-0.06245
-0.06994
-0.07119
-0.07369
-0.07244
-0.08118
-0.08743
-0.09617
-0.10242
-0.11366
-0.12739
-0.13614
-0.14238
-0.15237
-0.16362
-0.17486
-0.17735
-0.18610
-0.19234
-0.19984
-0.20108
-0.20608
-0.20983
-0.20983
-0.20983
-0.20983
-0.20983
-0.20858
-0.20358
-0.19234
-0.17860
-0.16486
-0.13864
-0.11241
-0.09867
-0.08493
-0.06245
-0.04871
-0.04246
-0.03372
-0.02748
-0.01873
-0.01374
-0.00999
-0.00999
-0.00874
-0.00500
-0.00500
-0.00250
0.00749
0.01499
0.01374
0.00375
-0.00624
-0.01749
-0.03372
-0.05246
-0.06620
-0.06869
-0.05995
-0.03622
-0.01499
0.00999
0.03747
0.05121
0.05495
0.05371
0.04996
0.04871
0.04371
0.03872
0.03372
0.02998
0.02998
0.02998
0.02873
0.01749
-0.03872
-0.14738
-0.25229
-0.21732
0.06370
0.50958
0.87927
0.92923
0.67195
0.32223
0.07369
-0.03372
-0.05371
-0.04371
-0.03997
-0.04122
-0.04621
-0.04996
-0.04871
-0.04496
-0.04621
-0.04996
-0.05121
-0.05620
-0.06120
-0.06994
-0.07119
-0.07619
-0.08618
-0.09117
-0.09617
-0.10117
-0.11116
-0.12115
-0.13114
-0.13614
-0.14113
-0.15113
-0.15987
-0.16237
-0.17610
-0.17985
-0.17985
-0.17985
-0.18110
-0.18485
-0.18360
-0.17860
-0.17361
-0.16861
-0.16362
-0.15113
-0.12739
-0.11241
-0.09742
-0.07744
-0.05745
-0.04371
-0.03872
-0.02873
-0.01873
-0.01124
-0.01624
-0.01873
-0.01374
-0.00999
-0.00999
-0.00874
-0.00500
-0.00500
-0.00624
-0.00999
-0.00874
-0.00624
-0.01249
-0.02748
-0.04122
-0.05246
-0.06744
-0.07993
-0.07744
-0.06245
-0.04246
-0.02623
-0.00125
0.02748
0.03997
0.03872
0.03497
0.03497
0.03372
0.02873
0.02498
0.02498
0.02373
0.01998
0.01873
0.01249
-0.01499
-0.09867
-0.23106
-0.28601
-0.14863
0.21232
0.65196
0.91550
0.84305
0.52831
0.19609
0.00125
-0.06120
-0.06869
-0.05995
-0.05995
-0.05495
-0.05121
-0.05995
-0.05995
-0.05995
-0.05620
-0.06120
-0.06994
-0.06994
-0.07119
-0.08118
-0.08493
-0.08493
-0.08618
-0.09742
-0.11116
-0.12115
-0.12615
-0.13614
-0.14613
-0.15612
-0.16112
-0.16736
-0.18110
-0.18485
-0.18610
-0.19109
-0.20108
-0.20483
-0.20483
-0.19984
-0.19984
-0.19859
-0.18485
-0.17860
-0.16861
-0.15362
-0.13739
-0.11241
-0.09367
-0.07744
-0.05870
-0.04496
-0.03997
-0.03372
-0.01873
-0.00999
-0.00999
-0.01499
-0.01998
-0.01374
-0.00500
-0.00500
-0.00500
-0.00500
-0.00500
-0.00500
-0.00500
-0.00500
-0.01124
-0.02748
-0.04621
-0.06120
-0.07119
-0.07993
-0.08243
-0.06245
-0.03747
-0.01249
0.01249
0.03622
0.04496
0.04996
0.04496
0.04496
0.03997
0.03497
0.02998
0.02498
0.02498
0.02498
0.02498
0.01749
-0.01873
-0.11990
-0.26728
-0.31849
-0.12365
0.32099
0.82057
1.04539
0.86179
0.46836
0.14363
-0.02373
-0.06370
-0.05371
-0.04496
-0.04496
-0.04496
-0.04496
-0.04496
-0.04996
-0.05495
-0.05495
-0.06120
-0.06994
-0.06994
-0.06994
-0.07119
-0.08118
-0.08993
-0.09617
-0.10616
-0.11615
-0.12490
-0.12989
-0.13614
-0.15113
-0.16112
-0.17486
-0.18110
-0.19109
-0.19984
-0.20483
-0.20483
-0.20483
-0.20983
-0.20983
-0.20983
-0.20983
-0.20483
-0.19984
-0.18984
-0.18360
-0.17361
-0.15362
-0.12864
-0.10366
-0.08368
-0.07369
-0.05870
-0.04371
-0.03497
-0.02873
-0.01998
-0.01499
-0.00999
-0.00999
-0.00500
0.00000
0.00500
0.00500
0.00500
0.01124
0.01873
0.00999
0.00375
-0.00624
-0.02123
-0.03622
-0.05121
-0.06495
-0.06994
-0.06994
-0.05870
-0.03247
0.00250
0.03122
0.04621
0.05495
0.05495
0.05495
0.04996
0.04496
0.04496
0.03997
0.02998
0.02998
0.03497
0.02873
0.01124
-0.04621
-0.16112
-0.26853
-0.23481
0.03622
0.50333
0.89926
0.94547
0.66945
0.31599
0.07369
-0.03622
-0.05870
-0.04496
-0.03497
-0.03497
-0.04496
-0.04496
-0.04496
-0.04496
-0.04996
-0.05495
-0.05495
-0.05495
-0.05995
-0.06994
-0.06994
-0.07494
-0.08493
-0.09492
-0.09492
-0.09992
-0.10991
-0.11990
-0.12490
-0.12989
-0.13988
-0.14988
-0.15487
-0.15987
-0.16486
-0.17486
-0.17985
-0.18485
-0.18485
-0.18485
-0.18485
-0.17985
-0.17486
-0.16986
-0.15987
-0.14488
-0.12989
-0.11491
-0.09867
-0.07869
-0.05995
-0.04496
-0.03997
-0.03497
-0.02498
-0.01998
-0.01998
-0.01998
-0.01499
-0.00500
-0.00500
-0.00500
-0.00500
-0.00500
-0.00500
-0.00500
-0.00500
-0.00500
-0.01499
-0.02998
-0.03997
-0.04996
-0.06495
-0.07494
-0.07494
-0.05995
-0.03997
-0.01873
0.00500
0.02498
0.02998
0.03497
0.03997
0.03997
0.02998
0.02498
0.01998
0.01998
0.01998
0.01499
0.01499
0.00874
-0.03247
-0.14238
-0.27103
-0.29601
-0.10741
0.29850
0.74314
0.94297
0.78435
0.43464
0.13739
-0.02123
-0.06495
-0.05995
-0.05495
-0.04496
-0.04496
-0.04996
-0.05995
-0.06495
-0.06495
-0.06495
-0.06994
-0.06994
-0.06994
-0.06994
-0.07993
-0.08493
-0.08993
-0.09492
-0.09992
-0.10991
-0.11990
-0.12490
-0.13988
-0.15487
-0.15987
-0.16486
-0.17486
-0.18485
-0.18485
-0.18485
-0.18984
-0.19984
-0.19984
-0.19984
-0.19984
-0.19984
-0.19984
-0.18984
-0.17985
-0.16486
-0.15487
-0.13489
-0.11491
-0.09492
-0.07494
-0.05495
-0.03997
-0.03497
-0.02998
-0.02498
-0.01998
-0.01998
-0.01998
-0.01998
-0.01998
-0.01499
-0.01998
-0.01499
-0.00999
-0.00500
-0.00500
-0.00500
-0.00500
-0.00500
-0.02498
-0.03997
-0.05995
-0.07494
-0.08493
-0.08493
-0.06495
-0.03997
-0.01499
0.00999
0.03497
0.04996
0.04996
0.04496
0.04496
0.04496
0.03997
0.02998
0.02498
0.02498
0.02498
0.01998
0.00999
-0.02373
-0.13739
-0.29226
-0.33472
-0.11990
0.35970
0.87803
1.06537
0.84555
0.44963
0.12240
-0.03622
-0.06869
-0.05995
-0.04996
-0.04996
-0.04996
-0.04496
-0.04996
-0.05995
-0.06495
-0.06495
-0.06495
-0.06994
-0.06994
-0.07494
-0.07993
-0.08493
-0.09492
-0.09492
-0.09992
-0.11491
-0.11990
-0.12490
-0.13489
-0.14488
-0.15987
-0.16986
-0.17486
-0.18485
-0.19484
-0.19484
-0.18984
-0.19984
-0.19984
-0.19984
-0.19484
-0.18984
-0.18984
-0.18485
-0.17486
-0.16486
-0.15487
-0.14113
-0.11615
-0.09117
-0.07619
-0.06495
-0.05121
-0.03622
-0.02998
-0.02498
-0.01499
-0.00500
-0.00500
-0.00500
-0.00500
-0.00500
-0.00500
-0.00500
0.00500
0.01499
0.01499
0.00999
0.00999
0.00500
-0.00500
-0.02373
-0.04371
-0.05495
-0.05995
-0.05995
-0.04996
-0.03122
-0.00125
0.01873
0.03372
0.04496
0.04996
0.04996
0.04496
0.04496
0.04996
0.03997
0.02998
0.02498
0.02998
0.02998
0.01998
-0.01249
-0.11366
-0.23231
-0.27727
-0.13489
0.23606
0.67319
0.91550
0.82682
0.51083
0.19484
0.00125
-0.06620
-0.06495
-0.04621
-0.04496
-0.04996
-0.05495
-0.04996
-0.04996
-0.05995
-0.05995
-0.05495
-0.05995
-0.06495
-0.06994
-0.07494
-0.07993
-0.08493
-0.09367
-0.09492
-0.09992
-0.11366
-0.12490
-0.13489
-0.13988
-0.14988
-0.15987
-0.16486
-0.16986
-0.17985
-0.18485
-0.18485
-0.18485
-0.18485
-0.18984
-0.18984
-0.18485
-0.17985
-0.17486
-0.16986
-0.15612
-0.14113
-0.12615
-0.10616
-0.08243
-0.06620
-0.05620
-0.04621
-0.03122
-0.02123
-0.01499
-0.01998
-0.01499
-0.00624
-0.00500
-0.00500
-0.00500
-0.00500
-0.00500
-0.00500
-0.00500
0.00000
0.00500
0.00500
0.00000
-0.00874
-0.02373
-0.04371
-0.06370
-0.06994
-0.07494
-0.07494
-0.05745
-0.03247
-0.00250
0.02248
0.03872
0.04496
0.04496
0.04496
0.04496
0.04496
0.03997
0.03497
0.02998
0.02498
0.02498
0.02498
0.01124
-0.03497
-0.15737
-0.28726
-0.28601
-0.03747
0.41716
0.86928
1.01416
0.77811
0.39967
0.10866
-0.02748
-0.05745
-0.05121
-0.04122
-0.04496
-0.04496
-0.04996
-0.04996
-0.05495
-0.05995
-0.06495
-0.06495
-0.06495
-0.06994
-0.07494
-0.07494
-0.07993
-0.08868
-0.09492
-0.10366
-0.11366
-0.11990
-0.13364
-0.13988
-0.14863
-0.15862
-0.16861
-0.17860
-0.18485
-0.19359
-0.20858
-0.20983
-0.20608
-0.20983
-0.20983
-0.20983
-0.20108
-0.19609
-0.19109
-0.18610
-0.18110
-0.15737
-0.14238
-0.11740
-0.09242
-0.06744
-0.05121
-0.04621
-0.03622
-0.02123
-0.01124
-0.00500
-0.00500
0.00000
-0.00500
-0.00500
-0.00125
0.00500
0.00500
0.00500
0.00500
0.01374
0.01998
0.01624
0.01124
0.00125
-0.01249
-0.03247
-0.04746
-0.04996
-0.05495
-0.05121
-0.03247
-0.00874
0.01249
0.02748
0.04246
0.04871
0.05371
0.05495
0.05121
0.04996
0.04621
0.04496
0.04496
0.04122
0.03622
0.03122
0.01249
-0.05495
-0.17735
-0.27228
-0.22481
0.05620
0.49584
0.85679
0.89676
0.64572
0.32598
0.08743
-0.02623
-0.04871
-0.03747
-0.02623
-0.03372
-0.03497
-0.03497
-0.03497
-0.03497
-0.03872
-0.03997
-0.03997
-0.04371
-0.04871
-0.05870
-0.06370
-0.06869
-0.07869
-0.08368
-0.08868
-0.09367
-0.10366
-0.11366
-0.11865
-0.12864
-0.13864
-0.15237
-0.15862
-0.16362
-0.17361
-0.17860
-0.18485
-0.18110
-0.18360
-0.18485
-0.18485
-0.18110
-0.17610
-0.17486
-0.16611
-0.14863
-0.12864
-0.11615
-0.10242
-0.08368
-0.06744
-0.05246
-0.03747
-0.02623
-0.01624
-0.01499
-0.01499
-0.01499
-0.01499
-0.01873
-0.01998
-0.01998
-0.01124
-0.00999
-0.01374
-0.01124
-0.00624
-0.00500
-0.01374
-0.02373
-0.03747
-0.04871
-0.06245
-0.07369
-0.07494
-0.06620
-0.04871
-0.02873
-0.00874
0.01624
0.02873
0.03872
0.04371
0.04496
0.04496
0.04122
0.03122
0.02998
0.02998
0.02123
0.01998
0.01998
0.00749
-0.04871
-0.16736
-0.27977
-0.25854
-0.01249
0.43339
0.85180
0.96545
0.74189
0.38343
0.09867
-0.03622
-0.06744
-0.06245
-0.05246
-0.04621
-0.05371
-0.05870
-0.05995
-0.05995
-0.06370
-0.06869
-0.06994
-0.06994
-0.06994
-0.07369
-0.07869
-0.08368
-0.08868
-0.09867
-0.10866
-0.10991
-0.11865
-0.12864
-0.13864
-0.14863
-0.15862
-0.16861
-0.18235
-0.18485
-0.18859
-0.19859
-0.19984
-0.19984
-0.19984
-0.19984
-0.20858
-0.20983
-0.20233
-0.19234
-0.18610
-0.17735
-0.15862
-0.13864
-0.11865
-0.09867
-0.08243
-0.06370
-0.04746
-0.04122
-0.03247
-0.02248
-0.01998
-0.01998
-0.01998
-0.01998
-0.01624
-0.01873
-0.01624
-0.01124
-0.00624
-0.00500
-0.00500
-0.00500
-0.00500
-0.00500
-0.01249
-0.02748
-0.04246
-0.06120
-0.07744
-0.08368
-0.08493
-0.06869
-0.04871
-0.02873
-0.00500
0.01998
0.03247
0.04246
0.04496
0.03372
0.02998
0.02998
0.02998
0.02623
0.02123
0.01998
0.01998
0.01624
-0.01249
-0.09867
-0.23356
-0.32348
-0.20358
0.18610
0.70192
1.01167
0.90925
0.54955
0.20733
0.00999
-0.05995
-0.06620
-0.05371
-0.04621
-0.04496
-0.05246
-0.05495
-0.05121
-0.05371
-0.05870
-0.06370
-0.06495
-0.06869
-0.06994
-0.07369
-0.07494
-0.08243
-0.09242
-0.09492
-0.09867
-0.11116
-0.12240
-0.13239
-0.13489
-0.14238
-0.15612
-0.17111
-0.17860
-0.17985
-0.18360
-0.18485
-0.18485
-0.18859
-0.19734
-0.19984
-0.19984
-0.19234
-0.18610
-0.18110
-0.16861
-0.14988
-0.13364
-0.11865
-0.10366
-0.08493
-0.06495
-0.04871
-0.04122
-0.02873
-0.02123
-0.01998
-0.01624
-0.01124
-0.00250
0.00375
0.00500
0.00500
0.00874
0.00624
0.00500
0.00500
0.01249
0.01499
0.01124
0.00250
-0.00749
-0.02123
-0.03622
-0.04746
-0.05371
-0.05870
-0.05246
-0.03497
-0.01499
0.00500
0.02498
0.03747
0.04371
0.04496
0.04496
0.04122
0.03622
0.03872
0.03622
0.03122
0.02623
0.02498
0.02123
0.00500
-0.05246
-0.16237
-0.25854
-0.22481
0.01749
0.42090
0.79434
0.89926
0.70567
0.38718
0.12240
-0.02123
-0.05745
-0.04496
-0.03622
-0.03872
-0.04371
-0.04496
-0.04496
-0.04871
-0.05371
-0.05495
-0.05121
-0.05745
-0.06744
-0.07369
-0.07494
-0.07869
-0.08743
-0.09367
-0.09492
-0.10242
-0.11241
-0.12615
-0.13739
-0.14738
-0.15362
-0.16237
-0.17236
-0.17860
-0.18360
-0.18485
-0.18859
-0.19359
-0.19484
-0.19859
-0.19984
-0.19234
-0.18610
-0.18485
-0.17735
-0.16112
-0.14363
-0.12615
-0.10866
-0.08743
-0.06869
-0.05745
-0.04746
-0.03372
-0.02248
-0.01998
-0.01998
-0.01998
-0.01249
-0.00999
-0.01374
-0.01124
-0.00624
-0.00500
-0.00500
-0.00500
-0.00500
-0.00125
0.00000
-0.00375
-0.00874
-0.02123
-0.03872
-0.05870
-0.06869
-0.06994
-0.06994
-0.05620
-0.03247
-0.00749
0.01749
0.03622
0.04371
0.04122
0.03622
0.03122
0.02998
0.03372
0.03122
0.02623
0.02498
0.02123
0.01624
0.00500
-0.04246
-0.15113
-0.27727
-0.28726
-0.06495
0.37844
0.83057
0.99543
0.78935
0.42590
0.12864
-0.01998
-0.05995
-0.05495
-0.04621
-0.04871
-0.05371
-0.05121
-0.04996
-0.05745
-0.05995
-0.05995
-0.05995
-0.06744
-0.06994
-0.07744
-0.07993
-0.08368
-0.09242
-0.09867
-0.10741
-0.11366
-0.12240
-0.13489
-0.14363
-0.15237
-0.16237
-0.17486
-0.18360
-0.18859
-0.19734
-0.20358
-0.20483
-0.20483
-0.20858
-0.20983
-0.20983
-0.20983
-0.20983
-0.20608
-0.20108
-0.18610
-0.16986
-0.15113
-0.13114
-0.10741
-0.08618
-0.07369
-0.06370
-0.04996
-0.03872
-0.03122
-0.02623
-0.02123
-0.01624
-0.01124
-0.00999
-0.00999
-0.00624
-0.00500
-0.00500
-0.00500
-0.00125
0.00375
0.00500
0.00500
0.00500
-0.00125
-0.02123
-0.03997
-0.05495
-0.06620
-0.07993
-0.07869
-0.05870
-0.03372
-0.01499
0.00375
0.02623
0.04122
0.04496
0.04496
0.04496
0.04122
0.03622
0.03122
0.02998
0.03372
0.03122
0.02623
0.01873
-0.00500
-0.08118
-0.21482
-0.30475
-0.18235
0.21357
0.71691
1.00542
0.91300
0.56828
0.21982
0.01124
-0.05995
-0.06370
-0.05371
-0.04621
-0.04496
-0.04496
-0.04871
-0.05620
-0.05995
-0.05995
-0.05995
-0.06620
-0.07369
-0.07494
-0.07494
-0.08118
-0.08868
-0.08993
-0.09367
-0.10117
-0.11491
-0.12365
-0.12864
-0.13614
-0.14988
-0.15862
-0.16362
-0.17111
-0.18110
-0.19109
-0.19859
-0.19984
-0.20358
-0.20233
-0.19984
-0.19984
-0.19984
-0.19734
-0.18485
-0.16986
-0.15862
-0.14488
-0.12365
-0.09867
-0.07744
-0.06370
-0.04996
-0.03872
-0.03122
-0.02623
-0.01873
-0.00874
-0.00500
-0.00500
-0.00500
-0.00125
0.00375
0.00500
0.00500
0.00500
0.00500
0.00500
0.00500
0.01124
0.00874
-0.00125
-0.01124
-0.02498
-0.04246
-0.05995
-0.06869
-0.05995
-0.03872
-0.01998
-0.00500
0.01873
0.03997
0.04496
0.04496
0.04496
0.04496
0.04246
0.03747
0.03497
0.03497
0.03247
0.02373
0.01998
0.01374
-0.02748
-0.12490
-0.23481
-0.24979
-0.08243
0.27103
0.67195
0.87553
0.76812
0.46961
0.17610
0.00375
-0.05870
-0.06744
-0.06245
-0.05371
-0.04746
-0.05121
-0.05745
-0.05995
-0.05745
-0.05745
-0.06245
-0.06744
-0.06994
-0.07244
-0.08118
-0.08493
-0.08868
-0.09617
-0.10616
-0.11615
-0.11990
-0.12615
-0.13614
-0.14863
-0.15862
-0.16611
-0.17610
-0.18610
-0.18984
-0.18984
-0.19609
-0.19984
-0.19984
-0.19734
-0.19859
-0.19984
-0.19734
-0.18859
-0.17860
-0.16861
-0.15612
-0.13739
-0.11740
-0.09742
-0.08118
-0.06620
-0.05121
-0.04246
-0.03747
-0.03247
-0.02373
-0.01998
-0.01998
-0.01998
-0.01998
-0.01998
-0.01998
-0.01998
-0.01749
-0.01249
-0.00999
-0.00999
-0.00749
-0.00749
-0.01624
-0.02623
-0.03622
-0.04871
-0.06620
-0.08118
-0.08493
-0.07369
-0.05620
-0.04122
-0.01998
0.00749
0.02623
0.03622
0.03997
0.04246
0.04246
0.03372
0.02998
0.02998
0.02998
0.02748
0.02498
0.02498
0.01624
-0.03122
-0.14113
-0.26728
-0.28352
-0.06869
0.36845
0.82307
1.00043
0.81683
0.45463
0.14238
-0.01749
-0.06120
-0.05870
-0.04871
-0.04496
-0.05121
-0.05745
-0.05995
-0.05995
-0.06245
-0.06744
-0.07244
-0.07494
-0.07744
-0.08243
-0.08743
-0.08993
-0.09242
-0.09742
-0.10616
-0.11615
-0.12240
-0.13364
-0.14863
-0.15737
-0.16611
-0.17860
-0.19109
-0.19734
-0.20233
-0.20733
-0.21607
-0.21982
-0.21982
-0.22232
-0.22481
-0.22481
-0.21982
-0.21232
-0.20483
-0.19484
-0.18110
-0.16362
-0.14363
-0.12365
-0.09867
-0.07369
-0.05620
-0.04746
-0.03997
-0.02998
-0.02248
-0.01998
-0.01998
-0.01749
-0.00999
-0.00500
-0.00500
-0.00500
-0.00250
0.00250
0.00500
0.00500
0.00500
0.00500
0.00500
0.00000
-0.00999
-0.02873
-0.05121
-0.06495
-0.06994
-0.06495
-0.04871
-0.02623
-0.00125
0.02373
0.03997
0.04746
0.05246
0.05246
0.04996
0.04746
0.04496
0.03997
0.03247
0.02998
0.02998
0.02998
0.01873
-0.03122
-0.13489
-0.25229
-0.25354
-0.02873
0.40342
0.81558
0.93798
0.72940
0.38968
0.11740
-0.01998
-0.05745
-0.05246
-0.04246
-0.03997
-0.04246
-0.04746
-0.04996
-0.05246
-0.05745
-0.05995
-0.05995
-0.06245
-0.06744
-0.07244
-0.07494
-0.07744
-0.08243
-0.08993
-0.09492
-0.09992
-0.10991
-0.11990
-0.12989
-0.13988
-0.14988
-0.15987
-0.16986
-0.17735
-0.18235
-0.18485
-0.18485
-0.18235
-0.18235
-0.18485
-0.18485
-0.18485
-0.18235
-0.17985
-0.17486
-0.16237
-0.14738
-0.13239
-0.11491
-0.09242
-0.07244
-0.06245
-0.05246
-0.03997
-0.02998
-0.02248
-0.01998
-0.01998
-0.01499
-0.01249
-0.01749
-0.01749
-0.00999
-0.00500
-0.00500
-0.00500
-0.00250
0.00250
0.00250
-0.00250
-0.00749
-0.01749
-0.03247
-0.04746
-0.05995
-0.06744
-0.06994
-0.06245
-0.04496
-0.02248
0.00000
0.02248
0.03997
0.04496
0.03997
0.03247
0.02998
0.03247
0.03247
0.02748
0.02248
0.02248
0.02248
0.01249
-0.00500
-0.05745
-0.16986
-0.26978
-0.22232
0.04996
0.47461
0.83431
0.90800
0.67319
0.33098
0.07494
-0.03997
-0.05995
-0.04996
-0.04746
-0.05495
-0.05995
-0.05745
-0.05495
-0.05745
-0.05995
-0.05995
-0.06245
-0.06744
-0.06994
-0.07244
-0.07993
-0.08743
-0.09242
-0.09742
-0.10491
-0.11491
-0.12739
-0.13739
-0.14488
-0.15737
-0.16986
-0.17735
-0.18235
-0.18984
-0.19734
-0.19984
-0.19984
-0.20483
-0.20983
-0.20983
-0.20733
-0.20233
-0.19984
-0.19484
-0.18485
-0.17236
-0.15737
-0.13988
-0.11740
-0.09492
-0.07494
-0.05745
-0.04246
-0.02998
-0.02248
-0.01998
-0.01998
-0.01499
-0.01249
-0.01749
-0.01998
-0.01499
-0.00749
-0.00500
-0.00500
-0.00500
-0.00250
0.00250
0.00500
0.00500
0.00000
-0.00999
-0.02498
-0.04246
-0.05995
-0.07494
-0.07993
-0.07119
-0.04621
-0.02123
-0.00125
0.02123
0.04246
0.05246
0.04996
0.04496
0.04496
0.04496
0.04496
0.04246
0.03747
0.02998
0.02248
0.01998
0.00375
-0.06869
-0.20108
-0.30850
-0.23356
0.11491
0.62449
0.98044
0.95546
0.63448
0.27352
0.03872
-0.05121
-0.05870
-0.04496
-0.04246
-0.04496
-0.04496
-0.04746
-0.05495
-0.05995
-0.05995
-0.05995
-0.06245
-0.06744
-0.06994
-0.06994
-0.07494
-0.08243
-0.08743
-0.09492
-0.10616
-0.11740
-0.12490
-0.13489
-0.14488
-0.15487
-0.16486
-0.17486
-0.18485
-0.19484
-0.19984
-0.19984
-0.19984
-0.20233
-0.20483
-0.20483
-0.20483
-0.20483
-0.20233
-0.19609
-0.18360
-0.17111
-0.15612
-0.13614
-0.11366
-0.09117
-0.07369
-0.05620
-0.04122
-0.03122
-0.02248
-0.01749
-0.01124
-0.00500
-0.00500
-0.00250
0.00250
0.00500
0.00500
0.00749
0.01249
0.01499
0.01499
0.01499
0.01749
0.01624
0.00375
-0.01374
-0.03122
-0.04371
-0.05371
-0.05995
-0.05121
-0.02873
-0.00874
0.00624
0.02623
0.04371
0.05246
0.05246
0.04746
0.04496
0.04246
0.03747
0.03747
0.04246
0.04246
0.03622
0.02748
0.01249
-0.04746
-0.15737
-0.24730
-0.20108
0.05495
0.45587
0.79684
0.87428
0.66695
0.34347
0.09117
-0.02623
-0.05121
-0.04246
-0.03747
-0.03747
-0.03997
-0.04246
-0.04496
-0.04746
-0.04996
-0.05246
-0.05745
-0.06245
-0.06744
-0.06994
-0.07369
-0.07993
-0.07993
-0.08243
-0.08868
-0.10117
-0.11241
-0.11740
-0.12615
-0.13864
-0.14738
-0.15362
-0.16237
-0.16861
-0.17735
-0.17985
-0.18235
-0.18485
-0.18485
-0.18485
-0.18485
-0.18485
-0.18360
-0.17361
-0.16237
-0.15612
-0.14238
-0.11990
-0.09867
-0.08368
-0.06869
-0.05371
-0.03872
-0.02748
-0.02248
-0.01998
-0.01624
-0.01249
-0.01499
-0.01499
-0.01249
-0.00999
-0.00999
-0.00999
-0.00749
-0.00500
-0.00500
-0.00500
-0.00500
-0.00749
-0.01624
-0.03122
-0.04371
-0.05620
-0.06869
-0.07494
-0.06869
-0.04996
-0.02873
-0.00999
0.01624
0.03872
0.04496
0.04496
0.04246
0.04246
0.04122
0.03247
0.02998
0.02748
0.02248
0.01998
0.01749
0.00500
-0.04246
-0.14988
-0.27228
-0.27727
-0.05745
0.36470
0.79684
0.96795
0.79185
0.44214
0.14613
-0.01124
-0.05745
-0.05620
-0.04871
-0.04496
-0.04746
-0.05246
-0.05745
-0.05995
-0.05995
-0.06245
-0.06744
-0.06994
-0.06994
-0.07369
-0.08243
-0.08868
-0.09492
-0.09867
-0.10866
-0.11740
-0.12365
-0.13364
-0.14613
-0.15862
-0.16736
-0.17236
-0.17860
-0.18859
-0.19484
-0.19734
-0.20233
-0.20733
-0.20983
-0.20858
-0.20733
-0.20983
-0.20983
-0.20608
-0.19609
-0.18485
-0.16736
-0.14738
-0.12739
-0.10991
-0.09242
-0.07494
-0.05745
-0.04371
-0.03872
-0.03122
-0.02373
-0.01998
-0.01998
-0.01998
-0.01624
-0.00874
-0.00500
-0.00500
-0.00375
0.00125
0.00500
0.00500
0.00624
0.00999
0.00500
-0.01249
-0.02998
-0.04496
-0.06245
-0.07869
-0.07744
-0.05745
-0.03747
-0.01749
0.00500
0.03372
0.05121
0.05371
0.04871
0.04371
0.03997
0.03622
0.02998
0.02998
0.02873
0.02373
0.01998
0.01873
0.00125
-0.06620
-0.19609
-0.29476
-0.19609
0.17236
0.66820
0.99043
0.93923
0.61075
0.25479
0.03122
-0.04871
-0.05121
-0.04122
-0.03497
-0.03497
-0.03622
-0.04122
-0.04496
-0.04496
-0.04496
-0.04621
-0.05121
-0.05620
-0.06120
-0.06620
-0.07119
-0.07619
-0.08368
-0.09367
-0.10366
-0.11116
-0.11615
-0.12115
-0.12989
-0.14363
-0.15362
-0.15987
-0.16112
-0.16611
-0.16986
-0.17111
-0.17610
-0.17985
-0.17860
-0.17610
-0.17985
-0.17985
-0.17735
-0.16736
-0.15987
-0.15487
-0.13739
-0.11366
-0.09367
-0.07494
-0.05995
-0.04621
-0.03622
-0.02623
-0.01624
-0.00874
-0.00500
-0.00500
-0.00375
0.00125
0.00500
0.00500
0.00624
0.01124
0.01124
0.00500
0.00500
0.00624
0.00749
-0.00375
-0.01499
-0.02998
-0.04496
-0.05995
-0.06869
-0.05870
-0.03747
-0.01374
0.00624
0.02623
0.04246
0.04996
0.04871
0.04496
0.04371
0.03872
0.03372
0.02998
0.02998
0.02998
0.02873
0.02373
0.01124
-0.03872
-0.14488
-0.24979
-0.24230
-0.04246
0.32598
0.71316
0.88427
0.74064
0.42465
0.14363
-0.00999
-0.05620
-0.05745
-0.04871
-0.04496
-0.04746
-0.05620
-0.06120
-0.06370
-0.05995
-0.06120
-0.06620
-0.06994
-0.06994
-0.07119
-0.07619
-0.08118
-0.08618
-0.09117
-0.09992
-0.11241
-0.11990
-0.12115
-0.12989
-0.14238
-0.15237
-0.16112
-0.16736
-0.17735
-0.18485
-0.18485
-0.18735
-0.19609
-0.19984
-0.19859
-0.19359
-0.18984
-0.18859
-0.18235
-0.17111
-0.15862
-0.15113
-0.13239
-0.10991
-0.09117
-0.07619
-0.05995
-0.04371
-0.03872
-0.03247
-0.02373
-0.01873
-0.01499
-0.01499
-0.01374
-0.00874
-0.00624
-0.00999
-0.00874
-0.00375
0.00000
-0.00125
-0.00500
-0.00500
-0.00874
-0.02498
-0.04371
-0.05745
-0.06744
-0.07744
-0.08243
-0.06869
-0.04246
-0.01499
0.00500
0.02498
0.04122
0.04371
0.03872
0.03497
0.03622
0.03872
0.03372
0.02998
0.02873
0.02373
0.01873
0.01249
-0.00624
-0.07369
-0.20858
-0.31474
-0.24855
0.06744
0.54955
0.93798
0.98169
0.69817
0.32973
0.06245
-0.05121
-0.06620
-0.05246
-0.04496
-0.04496
-0.04496
-0.04746
-0.05620
-0.05995
-0.05995
-0.06120
-0.06620
-0.06994
-0.06994
-0.07119
-0.07744
-0.08743
-0.09492
-0.09617
-0.10242
-0.11241
-0.12115
-0.12864
-0.14363
-0.15612
-0.16237
-0.17236
-0.18110
-0.18735
-0.19484
-0.19609
-0.20108
-0.20483
-0.20483
-0.20358
-0.19984
-0.19984
-0.19984
-0.19734
-0.18859
-0.18235
-0.16986
-0.14863
-0.12490
-0.10491
-0.08618
-0.07119
-0.05620
-0.04496
-0.04371
-0.03747
-0.02748
-0.01998
-0.01998
-0.01998
-0.01749
-0.00874
-0.00500
-0.00500
-0.00375
0.00125
0.00500
0.00500
0.00500
0.00000
-0.02123
-0.04371
-0.05870
-0.07244
-0.07869
-0.06994
-0.04871
-0.02498
-0.00500
0.01624
0.03997
0.05495
0.05495
0.05371
0.04996
0.04871
0.04246
0.03372
0.02873
0.02623
0.02873
0.02373
0.01499
-0.01749
-0.11116
-0.23980
-0.28102
-0.08618
0.35721
0.83181
1.02041
0.83057
0.45338
0.14238
-0.02248
-0.06370
-0.05620
-0.04371
-0.03997
-0.03997
-0.03997
-0.04122
-0.04496
-0.04621
-0.04996
-0.04996
-0.05246
-0.05995
-0.06120
-0.06620
-0.07244
-0.08118
-0.08493
-0.08618
-0.09242
-0.10366
-0.11740
-0.12739
-0.13739
-0.14738
-0.15487
-0.15612
-0.16237
-0.17111
-0.17486
-0.17486
-0.17735
-0.18610
-0.18984
-0.18859
-0.18485
-0.18485
-0.18235
-0.16736
-0.15737
-0.14738
-0.13489
-0.10991
-0.08743
-0.07244
-0.06245
-0.04746
-0.03247
-0.02373
-0.01998
-0.01749
-0.00874
-0.00500
-0.00375
0.00125
0.00500
0.00500
0.00500
0.00500
0.00749
0.01249
0.00375
-0.00250
-0.01249
-0.02748
-0.04246
-0.05246
-0.06120
-0.06370
-0.04996
-0.02623
-0.00749
0.00874
0.02748
0.04122
0.04496
0.04496
0.04371
0.03872
0.03497
0.03497
0.03372
0.02873
0.02498
0.02498
0.02248
0.00125
-0.05495
-0.16112
-0.25729
-0.22856
0.00749
0.40716
0.78310
0.90425
0.70192
0.36720
0.09742
-0.03247
-0.06370
-0.05745
-0.04371
-0.04122
-0.04621
-0.04996
-0.04996
-0.05121
-0.06120
-0.06495
-0.06495
-0.06620
-0.07119
-0.07619
-0.08493
-0.08618
-0.09117
-0.09492
-0.09617
-0.10117
-0.11116
-0.12240
-0.13614
-0.14113
-0.15113
-0.16112
-0.16986
-0.17111
-0.17610
-0.18110
-0.18610
-0.18984
-0.19109
-0.19609
-0.19859
-0.19359
-0.18485
-0.18360
-0.17735
-0.16112
-0.14238
-0.12615
-0.10616
-0.08618
-0.06744
-0.05371
-0.04371
-0.03247
-0.01873
-0.01374
-0.00999
-0.00874
-0.00500
-0.00500
-0.00500
-0.00500
-0.00500
-0.00375
-0.00125
-0.00375
0.00000
-0.00125
-0.00624
-0.01749
-0.03747
-0.05246
-0.06620
-0.07494
-0.07369
-0.06245
-0.04122
-0.01749
0.00500
0.03747
0.05121
0.05495
0.05371
0.04871
0.04371
0.03872
0.03497
0.03497
0.03372
0.02873
0.02498
0.02373
0.00749
-0.05371
-0.17985
-0.29476
-0.25854
0.02623
0.49334
0.92174
1.01416
0.73814
0.35221
0.07619
-0.03872
-0.05870
-0.05371
-0.04496
-0.04496
-0.04496
-0.04496
-0.04496
-0.04621
-0.05121
-0.06120
-0.06495
-0.06495
-0.06620
-0.07619
-0.08493
-0.08493
-0.08618
-0.09617
-0.10117
-0.11116
-0.12115
-0.13114
-0.14238
-0.15612
-0.16112
-0.17111
-0.18110
-0.18610
-0.19609
-0.20108
-0.20483
-0.20483
-0.20483
-0.20608
-0.20983
-0.20983
-0.20858
-0.19984
-0.19359
-0.18235
-0.16237
-0.14238
-0.12365
-0.10741
-0.08743
-0.06869
-0.05371
-0.04496
-0.04371
-0.03372
-0.02498
-0.01998
-0.01998
-0.01499
-0.00999
-0.01499
-0.01374
-0.00500
0.00000
0.00500
0.00500
0.00375
-0.00624
-0.02248
-0.04122
-0.05121
-0.06620
-0.07494
-0.07369
-0.06120
-0.03247
-0.00749
0.01249
0.03747
0.05495
0.05495
0.04996
0.04996
0.04996
0.04996
0.04496
0.04496
0.03997
0.04496
0.03872
0.02873
0.01249
-0.05995
-0.19734
-0.29850
-0.20983
0.14863
0.64946
0.98794
0.93048
0.58702
0.23606
0.02123
-0.05495
-0.04871
-0.03997
-0.03497
-0.03997
-0.03997
-0.04496
-0.04996
-0.05495
-0.04996
-0.05495
-0.05995
-0.06495
-0.06495
-0.06495
-0.07119
-0.07993
-0.08493
-0.08993
-0.09617
-0.10616
-0.11615
-0.12615
-0.13614
-0.14988
-0.15487
-0.16112
-0.17111
-0.17985
-0.18485
-0.18485
-0.17985
-0.18610
-0.19984
-0.19984
-0.19484
-0.19484
-0.19859
-0.18360
-0.16362
-0.15362
-0.13739
-0.11366
-0.09867
-0.08368
-0.06869
-0.05371
-0.03872
-0.02498
-0.01998
-0.01998
-0.01374
-0.00500
-0.00500
0.00000
0.00500
0.00500
0.00500
0.00500
0.00999
0.00999
0.00375
-0.00500
-0.01124
-0.02123
-0.03622
-0.05121
-0.05995
-0.05870
-0.04871
-0.02873
-0.00874
0.01124
0.03122
0.04496
0.04496
0.04996
0.04496
0.03997
0.03997
0.03997
0.03497
0.02998
0.02998
0.02873
0.01873
-0.00500
-0.07244
-0.18610
-0.27727
-0.21732
0.05371
0.48960
0.85305
0.88802
0.62823
0.29476
0.06744
-0.03622
-0.05995
-0.04996
-0.03997
-0.04496
-0.04996
-0.04996
-0.05121
-0.05995
-0.05995
-0.06495
-0.06495
-0.06495
-0.06994
-0.06994
-0.06994
-0.07619
-0.08618
-0.09492
-0.10117
-0.11116
-0.12115
-0.13114
-0.13988
-0.14613
-0.15612
-0.16611
-0.17486
-0.17985
-0.18610
-0.19484
-0.19484
-0.18984
-0.18984
-0.19484
-0.19484
-0.18485
-0.18485
-0.17985
-0.17361
-0.15487
-0.13864
-0.11865
-0.09867
-0.07993
-0.06495
-0.04996
-0.03997
-0.02998
-0.01998
-0.01499
-0.01499
-0.01499
-0.00999
-0.00999
-0.01499
-0.01499
-0.00999
-0.00500
-0.00999
-0.00999
-0.00500
-0.00500
-0.01624
-0.03997
-0.05495
-0.06994
-0.07993
-0.08493
-0.07869
-0.05495
-0.03872
-0.01873
0.00624
0.03497
0.04496
0.04496
0.04496
0.03997
0.03497
0.02998
0.02498
0.02998
0.02998
0.02498
0.01998
0.00874
-0.02748
-0.13864
-0.28102
-0.31474
-0.10242
0.36345
0.86054
1.04414
0.83057
0.44214
0.13114
-0.02623
-0.05995
-0.04996
-0.04496
-0.04496
-0.04496
-0.04496
-0.04496
-0.04496
-0.04496
-0.04996
-0.05995
-0.05995
-0.05995
-0.06495
-0.06994
-0.07993
-0.08493
-0.08993
-0.09992
-0.10991
-0.11990
-0.12490
-0.13988
-0.15487
-0.15987
-0.16986
-0.17985
-0.19484
-0.19984
-0.19484
-0.19984
-0.19984
-0.20483
-0.19984
-0.19984
-0.19984
-0.20483
-0.19984
-0.19484
-0.18485
-0.17486
-0.15487
-0.12989
-0.10991
-0.08993
-0.06495
-0.04996
-0.03997
-0.03497
-0.02998
-0.01998
-0.01499
-0.01499
-0.00999
-0.00500
0.00000
0.00000
0.00000
0.00500
0.00500
0.00500
0.00000
0.00000
-0.00999
-0.02998
-0.04996
-0.05995
-0.06994
-0.06994
-0.05495
-0.02998
0.00000
0.02498
0.03997
0.05495
0.05495
0.05495
0.04996
0.04996
0.04996
0.04496
0.03497
0.02998
0.02998
0.02498
0.01998
0.00500
-0.06869
-0.20358
-0.28851
-0.17610
0.19984
0.68818
0.96670
0.86679
0.53456
0.21482
0.01749
-0.04871
-0.04996
-0.03997
-0.03497
-0.03997
-0.04496
-0.04496
-0.03997
-0.03997
-0.03997
-0.03997
-0.04996
-0.05995
-0.06495
-0.06495
-0.06495
-0.06994
-0.07993
-0.08493
-0.08993
-0.09992
-0.10991
-0.11990
-0.12490
-0.13489
-0.14488
-0.15987
-0.15987
-0.16486
-0.17486
-0.17486
-0.17486
-0.17486
-0.17985
-0.17985
-0.17985
-0.17985
-0.17985
-0.16986
-0.15487
-0.13988
-0.12989
-0.11491
-0.09117
-0.06620
-0.05495
-0.04496
-0.02998
-0.01998
-0.00999
-0.00999
-0.00999
-0.00500
-0.00500
-0.00500
-0.00500
-0.00500
-0.00500
-0.00500
-0.00500
-0.00500
-0.00500
-0.01499
-0.03372
-0.04496
-0.05995
-0.07494
-0.07494
-0.06495
-0.04621
-0.02623
-0.01124
0.00874
0.03372
0.04496
0.04496
0.04496
0.04496
0.03497
0.02498
0.02498
0.02498
0.01998
0.01998
0.01998
0.00999
-0.02748
-0.13864
-0.26853
-0.29351
-0.09617
0.31849
0.77186
0.95546
0.77561
0.42840
0.13114
-0.02248
-0.06370
-0.05995
-0.05995
-0.05495
-0.04996
-0.05995
-0.06495
-0.06495
-0.06495
-0.06495
-0.06994
-0.06994
-0.07494
-0.07993
-0.08993
-0.09492
-0.09492
-0.09992
-0.10991
-0.11990
-0.12490
-0.13489
-0.14488
-0.15487
-0.15987
-0.16986
-0.18360
-0.19484
-0.19484
-0.19984
-0.20483
-0.20983
-0.20983
-0.20983
-0.20983
-0.20983
-0.20983
-0.20108
-0.19109
-0.18485
-0.17111
-0.14738
-0.13114
-0.10741
-0.09117
-0.06620
-0.05121
-0.04496
-0.03622
-0.02623
-0.01998
-0.01998
-0.01998
-0.01998
-0.01998
-0.01998
-0.01998
-0.01499
-0.00624
-0.00500
-0.00500
-0.00500
-0.01374
-0.02873
-0.05246
-0.06869
-0.08368
-0.08493
-0.08493
-0.06620
-0.04246
-0.01749
0.01249
0.03372
0.04371
0.04996
0.04496
0.03622
0.03497
0.03997
0.03497
0.02998
0.02998
0.02498
0.01998
0.01124
-0.02623
-0.12615
-0.27103
-0.32598
-0.12989
0.33972
0.85804
1.05038
0.83306
0.44713
0.13364
-0.02623
-0.06744
-0.05620
-0.04621
-0.04496
-0.04496
-0.04996
-0.04996
-0.05870
-0.06495
-0.06495
-0.06495
-0.06994
-0.06994
-0.07494
-0.08368
-0.08993
-0.09492
-0.10366
-0.10991
-0.11491
-0.12365
-0.13364
-0.14363
-0.15362
-0.16362
-0.17860
-0.18485
-0.18485
-0.19359
-0.20358
-0.20983
-0.21482
-0.21108
-0.21482
-0.21982
-0.21607
-0.21108
-0.20983
-0.20608
-0.18735
-0.17111
-0.15612
-0.14113
-0.11366
-0.09242
-0.07619
-0.06620
-0.05121
-0.04122
-0.03122
-0.02498
-0.01998
-0.01499
-0.00624
-0.00500
-0.00500
0.00000
0.00500
0.00500
0.00500
0.01374
0.00624
-0.00874
-0.02373
-0.03872
-0.05371
-0.06869
-0.06994
-0.06120
-0.04246
-0.02623
-0.00250
0.02623
0.04746
0.05495
0.05121
0.04996
0.04996
0.04621
0.04496
0.04496
0.04496
0.03622
0.02623
0.02498
0.02123
-0.02373
-0.13864
-0.25104
-0.23481
0.00500
0.44089
0.83931
0.93298
0.70067
0.35596
0.09242
-0.02623
-0.05246
-0.04621
-0.03622
-0.03497
-0.03497
-0.03872
-0.04371
-0.04496
-0.04496
-0.05371
-0.05870
-0.05995
-0.05995
-0.06370
-0.06869
-0.07369
-0.07869
-0.08868
-0.09492
-0.10366
-0.10991
-0.11865
-0.12864
-0.14238
-0.14988
-0.15487
-0.16362
-0.17361
-0.17486
-0.17486
-0.17985
-0.18485
-0.18485
-0.18485
-0.18485
-0.18485
-0.18485
-0.17236
-0.16112
-0.15113
-0.13239
-0.11740
-0.09367
-0.07744
-0.06620
-0.04746
-0.03622
-0.03122
-0.02623
-0.02123
-0.01624
-0.01499
-0.01499
-0.01124
-0.00624
-0.00500
-0.00500
-0.00125
0.00375
0.00500
-0.00375
-0.00500
-0.01374
-0.02748
-0.04746
-0.06245
-0.06869
-0.06994
-0.06620
-0.04371
-0.01873
0.00624
0.02623
0.04246
0.04871
0.04996
0.04122
0.03622
0.03497
0.03872
0.03622
0.03122
0.02623
0.02498
0.02123
0.00375
-0.06245
-0.18360
-0.27977
-0.22481
0.07244
0.52457
0.87927
0.89301
0.62324
0.29601
0.06620
-0.03997
-0.05870
-0.04746
-0.04122
-0.04371
-0.04496
-0.04496
-0.04496
-0.04496
-0.04496
-0.04496
-0.04871
-0.05371
-0.05870
-0.06370
