0.00604
0.01664
0.02710
0.03424
0.03369
0.02466
0.01008
-0.00669
-0.02279
-0.03449
-0.03838
-0.03451
-0.02637
-0.01752
-0.01020
-0.00581
-0.00396
-0.00099
0.00722
0.02028
0.03341
0.04259
0.04724
0.04786
0.04417
0.03704
0.02928
0.02250
0.01448
0.00163
-0.01668
-0.03783
-0.05941
-0.08002
-0.09702
-0.10874
-0.12037
-0.13844
-0.15277
-0.13412
-0.06212
0.05174
0.18048
0.30776
0.41568
0.45818
0.38441
0.20071
-0.01663
-0.18822
-0.29391
-0.35545
-0.38222
-0.36170
-0.29048
-0.18533
-0.06627
0.05027
0.14441
0.19863
0.21253
0.20066
0.17594
0.14283
0.10358
0.06234
0.02270
-0.01314
-0.04173
-0.05893
-0.06455
-0.06404
-0.06347
-0.06409
-0.06314
-0.05789
-0.04725
-0.03149
-0.01284
0.00461
0.01722
0.02394
0.02605
0.02584
0.02563
0.02683
0.02893
0.02938
0.02556
0.01741
0.00760
-0.00142
-0.00886
-0.01345
-0.01299
-0.00807
-0.00361
-0.00406
-0.00859
-0.01297
-0.01440
-0.01280
-0.00884
-0.00332
0.00204
0.00526
0.00564
0.00402
0.00163
-0.00037
-0.00060
0.00210
0.00711
0.01132
0.01105
0.00554
-0.00188
-0.00671
-0.00694
-0.00362
0.00084
0.00415
0.00473
0.00209
-0.00301
-0.00819
-0.00980
-0.00570
0.00161
0.00654
0.00630
0.00323
0.00047
-0.00188
-0.00446
-0.00558
-0.00306
0.00215
0.00647
0.00707
0.00356
-0.00227
-0.00710
-0.00787
-0.00430
0.00088
0.00502
0.00729
0.00698
0.00307
-0.00256
-0.00522
-0.00304
0.00058
0.00233
0.00288
0.00310
0.00116
-0.00350
-0.00721
-0.00648
-0.00242
0.00148
0.00361
0.00414
0.00274
-0.00103
-0.00560
-0.00747
-0.00433
0.00229
0.00813
0.00966
0.00656
0.00109
-0.00379
-0.00604
-0.00503
-0.00133
0.00350
0.00696
0.00660
0.00240
-0.00253
-0.00506
-0.00501
-0.00387
-0.00205
0.00073
0.00315
0.00287
-0.00064
-0.00523
-0.00789
-0.00694
-0.00302
0.00156
0.00464
0.00535
0.00365
0.00031
-0.00209
-0.00058
0.00469
0.01000
0.01205
0.01041
0.00588
-0.00054
-0.00628
-0.00793
-0.00517
-0.00182
-0.00173
-0.00511
-0.00974
-0.01368
-0.01575
-0.01510
-0.01140
-0.00474
0.00414
0.01256
0.01645
0.01465
0.01159
0.01294
0.01937
0.02649
0.02942
0.02533
0.01327
-0.00510
-0.02469
-0.03893
-0.04376
-0.04023
-0.03315
-0.02685
-0.02217
-0.01752
-0.01171
-0.00455
0.00428
0.01545
0.02876
0.04208
0.05198
0.05568
0.05267
0.04488
0.03566
0.02815
0.02313
0.01762
0.00674
-0.01227
-0.03783
-0.06551
-0.09025
-0.10731
-0.11533
-0.12086
-0.13340
-0.14820
-0.13920
-0.08026
0.02818
0.16280
0.30015
0.41671
0.46949
0.40848
0.23066
0.00692
-0.17131
-0.27039
-0.32115
-0.35482
-0.36211
-0.32027
-0.23115
-0.11736
0.00035
0.10603
0.18257
0.21921
0.22087
0.20076
0.16738
0.12417
0.07654
0.03215
-0.00403
-0.03084
-0.04889
-0.06025
-0.06825
-0.07457
-0.07714
-0.07296
-0.06248
-0.04874
-0.03291
-0.01448
0.00388
0.01583
0.01824
0.01614
0.01765
0.02472
0.03199
0.03450
0.03284
0.02942
0.02336
0.01294
0.00136
-0.00504
-0.00475
-0.00336
-0.00617
-0.01190
-0.01623
-0.01812
-0.01910
-0.01848
-0.01368
-0.00505
0.00298
0.00637
0.00511
0.00196
-0.00078
-0.00176
0.00041
0.00588
0.01163
0.01348
0.01023
0.00395
-0.00303
-0.00870
-0.01033
-0.00605
0.00228
0.00993
0.01261
0.00849
-0.00078
-0.01006
-0.01388
-0.01074
-0.00358
0.00360
0.00799
0.00776
0.00274
-0.00416
-0.00831
-0.00737
-0.00310
0.00131
0.00434
0.00557
0.00412
-0.00008
-0.00422
-0.00436
0.00013
0.00548
0.00745
0.00546
0.00213
-0.00055
-0.00296
-0.00516
-0.00503
-0.00105
0.00423
0.00650
0.00431
-0.00079
-0.00673
-0.01121
-0.01106
-0.00510
0.00304
0.00777
0.00712
0.00336
-0.00081
-0.00381
-0.00402
-0.00055
0.00486
0.00882
0.00925
0.00605
0.00050
-0.00500
-0.00791
-0.00755
-0.00527
-0.00208
0.00189
0.00515
0.00489
0.00089
-0.00284
-0.00292
-0.00053
0.00144
0.00236
0.00216
-0.00045
-0.00489
-0.00729
-0.00533
-0.00105
0.00281
0.00559
0.00646
0.00366
-0.00214
-0.00674
-0.00660
-0.00223
0.00318
0.00728
0.00963
0.01024
0.00844
0.00405
-0.00114
-0.00481
-0.00616
-0.00564
-0.00378
-0.00208
-0.00322
-0.00794
-0.01288
-0.01398
-0.01095
-0.00596
0.00008
0.00666
0.01101
0.01055
0.00773
0.00830
0.01418
0.02145
0.02595
0.02651
0.02159
0.00819
-0.01204
-0.02995
-0.03726
-0.03556
-0.03235
-0.03065
-0.02788
-0.02276
-0.01694
-0.01038
-0.00074
0.01226
0.02589
0.03747
0.04527
0.04764
0.04458
0.03929
0.03540
0.03345
0.03137
0.02654
0.01641
-0.00054
-0.02256
-0.04552
-0.06678
-0.08556
-0.09986
-0.10901
-0.12033
-0.14213
-0.16267
-0.14783
-0.07295
0.05180
0.19900
0.34876
0.47130
0.50387
0.39236
0.16529
-0.07046
-0.22650
-0.30163
-0.34276
-0.36963
-0.36364
-0.30836
-0.20999
-0.08585
0.04335
0.15183
0.21763
0.23705
0.22328
0.19129
0.14941
0.10280
0.05750
0.01849
-0.01276
-0.03684
-0.05430
-0.06625
-0.07499
-0.08127
-0.08192
-0.07301
-0.05543
-0.03532
-0.01860
-0.00658
0.00285
0.01117
0.01787
0.02250
0.02645
0.03100
0.03456
0.03383
0.02783
0.01933
0.01194
0.00702
0.00361
0.00049
-0.00242
-0.00487
-0.00763
-0.01170
-0.01658
-0.02032
-0.02094
-0.01742
-0.01036
-0.00247
0.00285
0.00454
0.00399
0.00248
0.00059
-0.00014
0.00212
0.00669
0.01052
0.01118
0.00822
0.00272
-0.00241
-0.00359
-0.00042
0.00318
0.00376
0.00188
-0.00063
-0.00388
-0.00782
-0.00999
-0.00822
-0.00366
0.00098
0.00407
0.00469
0.00226
-0.00148
-0.00275
0.00019
0.00449
0.00610
0.00432
0.00166
-0.00029
-0.00257
-0.00575
-0.00724
-0.00423
0.00161
0.00540
0.00495
0.00254
0.00060
-0.00110
-0.00302
-0.00367
-0.00164
0.00216
0.00546
0.00640
0.00400
-0.00097
-0.00528
-0.00560
-0.00232
0.00074
0.00089
-0.00107
-0.00312
-0.00457
-0.00531
-0.00421
-0.00018
0.00547
0.00932
0.00878
0.00446
-0.00060
-0.00363
-0.00385
-0.00222
0.00001
0.00224
0.00397
0.00401
0.00138
-0.00279
-0.00544
-0.00453
-0.00108
0.00222
0.00372
0.00317
0.00057
-0.00341
-0.00635
-0.00602
-0.00329
-0.00063
0.00125
0.00271
0.00244
-0.00080
-0.00457
-0.00466
-0.00041
0.00470
0.00786
0.00926
0.00939
0.00721
0.00241
-0.00214
-0.00292
-0.00015
0.00232
0.00173
-0.00132
-0.00522
-0.00944
-0.01321
-0.01426
-0.01099
-0.00533
-0.00154
-0.00159
-0.00269
-0.00105
0.00310
0.00674
0.00956
0.01450
0.02236
0.02933
0.03066
0.02455
0.01231
-0.00237
-0.01488
-0.02285
-0.02763
-0.03153
-0.03493
-0.03709
-0.03739
-0.03422
-0.02504
-0.00976
0.00768
0.02269
0.03368
0.04139
0.04609
0.04759
0.04709
0.04665
0.04643
0.04366
0.03517
0.02014
0.00039
-0.02075
-0.04015
-0.05688
-0.07229
-0.08707
-0.10036
-0.11415
-0.13429
-0.15865
-0.16522
-0.12366
-0.02453
0.11216
0.25939
0.39580
0.48530
0.47102
0.32434
0.09512
-0.11817
-0.25433
-0.32512
-0.36696
-0.38616
-0.36302
-0.28689
-0.16905
-0.03230
0.09668
0.19124
0.23604
0.23626
0.20990
0.17142
0.12691
0.08127
0.04127
0.01000
-0.01567
-0.03946
-0.06065
-0.07574
-0.08226
-0.08014
-0.07138
-0.05867
-0.04409
-0.02968
-0.01813
-0.01029
-0.00317
0.00660
0.01811
0.02784
0.03432
0.03783
0.03733
0.03139
0.02208
0.01441
0.01095
0.00937
0.00621
0.00100
-0.00463
-0.00983
-0.01472
-0.01875
-0.02070
-0.01954
-0.01483
-0.00745
-0.00066
0.00171
-0.00055
-0.00325
-0.00274
0.00040
0.00383
0.00702
0.00994
0.01080
0.00793
0.00272
-0.00144
-0.00243
-0.00068
0.00212
0.00429
0.00437
0.00129
-0.00401
-0.00773
-0.00641
-0.00128
0.00302
0.00426
0.00374
0.00199
-0.00233
-0.00807
-0.01076
-0.00801
-0.00227
0.00309
0.00678
0.00801
0.00563
0.00066
-0.00316
-0.00303
0.00020
0.00373
0.00558
0.00504
0.00199
-0.00286
-0.00738
-0.00875
-0.00568
0.00029
0.00597
0.00893
0.00825
0.00386
-0.00287
-0.00841
-0.00924
-0.00542
-0.00038
0.00284
0.00341
0.00149
-0.00224
-0.00530
-0.00438
0.00101
0.00728
0.01004
0.00799
0.00312
-0.00189
-0.00539
-0.00642
-0.00436
-0.00001
0.00379
0.00411
0.00072
-0.00349
-0.00540
-0.00446
-0.00213
0.00085
0.00460
0.00765
0.00690
0.00158
-0.00470
-0.00740
-0.00545
-0.00109
0.00325
0.00602
0.00581
0.00195
-0.00385
-0.00808
-0.00853
-0.00574
-0.00168
0.00188
0.00368
0.00339
0.00221
0.00181
0.00249
0.00351
0.00499
0.00753
0.00992
0.00904
0.00346
-0.00416
-0.00961
-0.01122
-0.01019
-0.00789
-0.00500
-0.00302
-0.00422
-0.00886
-0.01341
-0.01278
-0.00487
0.00687
0.01587
0.01853
0.01736
0.01727
0.01960
0.02166
0.02090
0.01698
0.00977
-0.00164
-0.01677
-0.03222
-0.04341
-0.04740
-0.04384
-0.03412
-0.02069
-0.00688
0.00387
0.00991
0.01271
0.01591
0.02273
0.03387
0.04668
0.05626
0.05865
0.05350
0.04299
0.02894
0.01271
-0.00334
-0.01752
-0.03127
-0.04736
-0.06625
-0.08558
-0.10250
-0.11674
-0.13168
-0.14749
-0.14993
-0.11421
-0.02880
0.09169
0.22439
0.35352
0.45152
0.46376
0.34913
0.13857
-0.07702
-0.22813
-0.31467
-0.36822
-0.39525
-0.37548
-0.29706
-0.17310
-0.03215
0.09432
0.18169
0.22197
0.22457
0.20465
0.17265
0.13415
0.09346
0.05383
0.01657
-0.01764
-0.04653
-0.06648
-0.07539
-0.07532
-0.07084
-0.06497
-0.05805
-0.04985
-0.04044
-0.02916
-0.01519
0.00036
0.01450
0.02471
0.03033
0.03192
0.03066
0.02843
0.02720
0.02731
0.02684
0.02329
0.01552
0.00414
-0.00861
-0.01877
-0.02243
-0.01889
-0.01165
-0.00549
-0.00345
-0.00600
-0.01116
-0.01503
-0.01433
-0.00915
-0.00204
0.00497
0.01060
0.01264
0.00937
0.00311
-0.00097
-0.00028
0.00321
0.00663
0.00881
0.00868
0.00499
-0.00113
-0.00613
-0.00773
-0.00632
-0.00293
0.00117
0.00357
0.00258
-0.00038
-0.00294
-0.00479
-0.00609
-0.00503
-0.00040
0.00480
0.00600
0.00224
-0.00319
-0.00638
-0.00557
-0.00141
0.00398
0.00834
0.00983
0.00716
0.00076
-0.00594
-0.00828
-0.00470
0.00162
0.00592
0.00612
0.00342
-0.00018
-0.00358
-0.00586
-0.00551
-0.00227
0.00134
0.00243
0.00090
-0.00146
-0.00395
-0.00641
-0.00686
-0.00307
0.00377
0.00951
0.01114
0.00880
0.00421
-0.00088
-0.00461
-0.00526
-0.00239
0.00239
0.00576
0.00461
-0.00117
-0.00799
-0.01144
-0.00977
-0.00437
0.00195
0.00621
0.00658
0.00358
-0.00033
-0.00255
-0.00159
0.00250
0.00770
0.01043
0.00825
0.00192
-0.00562
-0.01129
-0.01267
-0.00920
-0.00342
0.00119
0.00379
0.00524
0.00433
-0.00067
-0.00692
-0.00814
-0.00202
0.00717
0.01373
0.01499
0.01087
0.00303
-0.00482
-0.00843
-0.00643
-0.00140
0.00258
0.00295
-0.00025
-0.00524
-0.00991
-0.01267
-0.01254
-0.00938
-0.00456
-0.00038
0.00196
0.00313
0.00423
0.00591
0.00938
0.01597
0.02449
0.03069
0.03029
0.02158
0.00592
-0.01225
-0.02675
-0.03360
-0.03385
-0.03154
-0.02969
-0.02872
-0.02718
-0.02264
-0.01348
-0.00075
0.01248
0.02397
0.03349
0.04104
0.04564
0.04684
0.04571
0.04352
0.04048
0.03613
0.02945
0.01800
-0.00084
-0.02613
-0.05246
-0.07423
-0.08952
-0.09947
-0.10730
-0.11939
-0.14011
-0.15836
-0.14554
-0.07803
0.04090
0.18892
0.34247
0.46725
0.50353
0.40069
0.18166
-0.05432
-0.21600
-0.29323
-0.33244
-0.36152
-0.36508
-0.32035
-0.22762
-0.10496
0.02477
0.13693
0.21066
0.23951
0.23218
0.20186
0.15863
0.11009
0.06297
0.02223
-0.00961
-0.03267
-0.04970
-0.06417
-0.07673
-0.08450
-0.08419
-0.07519
-0.05961
-0.04081
-0.02245
-0.00769
0.00226
0.00893
0.01507
0.02200
0.02886
0.03428
0.03732
0.03680
0.03154
0.02243
0.01257
0.00461
-0.00077
-0.00362
-0.00389
-0.00310
-0.00470
-0.01075
-0.01870
-0.02298
-0.02017
-0.01209
-0.00377
0.00109
0.00195
0.00014
-0.00261
-0.00420
-0.00297
0.00118
0.00672
0.01157
0.01350
0.01093
0.00472
-0.00134
-0.00342
-0.00129
0.00186
0.00317
0.00250
0.00099
-0.00130
-0.00461
-0.00754
-0.00761
-0.00386
0.00185
0.00608
0.00604
0.00176
-0.00353
-0.00628
-0.00586
-0.00411
-0.00194
0.00143
0.00555
0.00738
0.00458
-0.00100
-0.00489
-0.00435
-0.00044
0.00351
0.00476
0.00315
0.00060
-0.00132
-0.00248
-0.00256
-0.00025
0.00428
0.00765
0.00621
0.00040
-0.00563
-0.00844
-0.00793
-0.00583
-0.00309
0.00021
0.00314
0.00379
0.00132
-0.00231
-0.00375
-0.00167
0.00211
0.00525
0.00707
0.00726
0.00466
-0.00065
-0.00567
-0.00694
-0.00392
0.00110
0.00517
0.00602
0.00299
-0.00215
-0.00591
-0.00590
-0.00295
0.00011
0.00164
0.00208
0.00180
0.00018
-0.00245
-0.00403
-0.00298
0.00013
0.00362
0.00580
0.00507
0.00105
-0.00416
-0.00734
-0.00675
-0.00281
0.00268
0.00692
0.00725
0.00320
-0.00252
-0.00596
-0.00484
0.00014
0.00643
0.01119
0.01214
0.00842
0.00150
-0.00525
-0.00921
-0.01032
-0.00966
-0.00752
-0.00446
-0.00298
-0.00546
-0.01050
-0.01341
-0.01037
-0.00150
0.00963
0.01845
0.02243
0.02268
0.02215
0.02177
0.01968
0.01442
0.00692
-0.00177
-0.01222
-0.02455
-0.03619
-0.04345
-0.04437
-0.03889
-0.02802
-0.01439
-0.00197
0.00684
0.01324
0.01999
0.02812
0.03655
0.04389
0.04946
0.05242
0.05109
0.04397
0.03155
0.01638
0.00126
-0.01241
-0.02495
-0.03830
-0.05517
-0.07588
-0.09651
-0.11385
-0.13105
-0.15088
-0.16080
-0.13452
-0.05643
0.06223
0.19833
0.33427
0.44307
0.47109
0.37256
0.17038
-0.04579
-0.19876
-0.28314
-0.33550
-0.37022
-0.36792
-0.31147
-0.20784
-0.07883
0.05000
0.15234
0.20970
0.22252
0.20675
0.17845
0.14494
0.10795
0.06878
0.02949
-0.00733
-0.03870
-0.06188
-0.07527
-0.07891
-0.07480
-0.06657
-0.05782
-0.05002
-0.04205
-0.03170
-0.01805
-0.00259
0.01184
0.02309
0.03039
0.03358
0.03273
0.02895
0.02452
0.02140
0.01999
0.01921
0.01711
0.01166
0.00263
-0.00762
-0.01592
-0.02060
-0.02132
-0.01829
-0.01288
-0.00783
-0.00540
-0.00569
-0.00716
-0.00763
-0.00482
0.00179
0.00928
0.01290
0.01052
0.00469
-0.00007
-0.00123
0.00066
0.00373
0.00652
0.00789
0.00639
0.00134
-0.00506
-0.00866
-0.00747
-0.00360
0.00000
0.00260
0.00401
0.00257
-0.00222
-0.00692
-0.00717
-0.00285
0.00247
0.00596
0.00693
0.00495
0.00004
-0.00535
-0.00728
-0.00457
-0.00013
0.00269
0.00329
0.00268
0.00114
-0.00116
-0.00278
-0.00213
0.00058
0.00376
0.00606
0.00647
0.00408
-0.00067
-0.00505
-0.00606
-0.00362
-0.00035
0.00150
0.00169
0.00060
-0.00171
-0.00459
-0.00628
-0.00531
-0.00202
0.00177
0.00426
0.00481
0.00375
0.00175
-0.00015
-0.00053
0.00125
0.00383
0.00494
0.00386
0.00162
-0.00076
-0.00316
-0.00505
-0.00512
-0.00292
-0.00018
0.00071
-0.00077
-0.00302
-0.00419
-0.00341
-0.00069
0.00329
0.00685
0.00806
0.00633
0.00276
-0.00108
-0.00409
-0.00542
-0.00455
-0.00206
0.00059
0.00200
0.00121
-0.00189
-0.00573
-0.00735
-0.00495
0.00054
0.00642
0.01010
0.00997
0.00611
0.00100
-0.00173
-0.00045
0.00275
0.00434
0.00303
0.00031
-0.00241
-0.00567
-0.00977
-0.01240
-0.01078
-0.00628
-0.00372
-0.00512
-0.00691
-0.00513
-0.00038
0.00452
0.00917
0.01500
0.02182
0.02725
0.02888
0.02553
0.01706
0.00461
-0.00894
-0.02031
-0.02826
-0.03379
-0.03771
-0.03916
-0.03684
-0.03033
-0.02014
-0.00758
0.00552
0.01757
0.02763
0.03539
0.04113
0.04554
0.04871
0.04995
0.04854
0.04376
0.03453
0.02025
0.00196
-0.01825
-0.03818
-0.05588
-0.07063
-0.08337
-0.09557
-0.10920
-0.12761
-0.14943
-0.15806
-0.12580
-0.03753
0.09391
0.24004
0.37274
0.45841
0.45306
0.33176
0.12751
-0.08032
-0.22869
-0.31282
-0.36054
-0.38256
-0.36359
-0.29115
-0.17490
-0.04027
0.08432
0.17566
0.22273
0.22937
0.20792
0.17084
0.12791
0.08615
0.04908
0.01705
-0.01082
-0.03533
-0.05656
-0.07281
-0.08114
-0.08040
-0.07283
-0.06176
-0.04896
-0.03531
-0.02225
-0.01074
-0.00009
0.01036
0.01998
0.02839
0.03592
0.04102
0.03981
0.03109
0.01954
0.01104
0.00661
0.00386
0.00203
0.00153
0.00001
-0.00574
-0.01386
-0.01860
-0.01775
-0.01440
-0.01105
-0.00724
-0.00358
-0.00266
-0.00457
-0.00578
-0.00388
-0.00008
0.00376
0.00732
0.00998
0.00993
0.00689
0.00344
0.00210
0.00265
0.00388
0.00545
0.00637
0.00411
-0.00176
-0.00732
-0.00883
-0.00748
-0.00661
-0.00622
-0.00393
0.00029
0.00380
0.00457
0.00241
-0.00127
-0.00329
-0.00096
0.00406
0.00675
0.00496
0.00122
-0.00206
-0.00506
-0.00715
-0.00533
0.00096
0.00696
0.00750
0.00318
-0.00116
-0.00289
-0.00328
-0.00301
-0.00041
0.00441
0.00721
0.00470
-0.00092
-0.00531
-0.00717
-0.00715
-0.00429
0.00172
0.00696
0.00633
0.00019
-0.00564
-0.00647
-0.00299
0.00128
0.00410
0.00520
0.00465
0.00245
-0.00053
-0.00248
-0.00222
-0.00046
0.00113
0.00195
0.00265
0.00307
0.00152
-0.00267
-0.00695
-0.00746
-0.00330
0.00217
0.00468
0.00290
-0.00117
-0.00432
-0.00418
-0.00046
0.00450
0.00732
0.00675
0.00445
0.00224
-0.00020
-0.00388
-0.00773
-0.00895
-0.00620
-0.00115
0.00310
0.00437
0.00214
-0.00224
-0.00565
-0.00512
-0.00048
0.00565
0.01025
0.01124
0.00778
0.00157
-0.00310
-0.00300
0.00066
0.00400
0.00453
0.00204
-0.00295
-0.00919
-0.01417
-0.01555
-0.01323
-0.00888
-0.00432
-0.00074
0.00136
0.00244
0.00366
0.00614
0.01081
0.01785
0.02546
0.03013
0.02910
0.02175
0.00886
-0.00731
-0.02234
-0.03182
-0.03505
-0.03476
-0.03347
-0.03174
-0.02916
-0.02466
-0.01629
-0.00308
0.01282
0.02718
0.03692
0.04176
0.04348
0.04420
0.04485
0.04495
0.04378
0.04056
0.03309
0.01810
-0.00469
-0.03011
-0.05190
-0.06886
-0.08358
-0.09654
-0.10733
-0.12131
-0.14437
-0.16473
-0.15030
-0.07688
0.04593
0.18802
0.32690
0.44145
0.48605
0.40893
0.21437
-0.01743
-0.19601
-0.29483
-0.34464
-0.37160
-0.36906
-0.32214
-0.23162
-0.11085
0.02100
0.13807
0.21489
0.24206
0.22983
0.19534
0.15088
0.10351
0.05912
0.02264
-0.00452
-0.02502
-0.04263
-0.05882
-0.07208
-0.08017
-0.08155
-0.07540
-0.06220
-0.04479
-0.02719
-0.01203
0.00013
0.00954
0.01682
0.02315
0.02922
0.03415
0.03620
0.03440
0.02900
0.02102
0.01224
0.00487
0.00040
-0.00125
-0.00135
-0.00181
-0.00481
-0.01090
-0.01727
-0.01977
-0.01708
-0.01137
-0.00564
-0.00198
-0.00155
-0.00367
-0.00543
-0.00428
-0.00069
0.00352
0.00804
0.01302
0.01594
0.01301
0.00455
-0.00366
-0.00620
-0.00366
-0.00060
0.00060
0.00109
0.00151
0.00032
-0.00289
-0.00523
-0.00361
0.00113
0.00510
0.00572
0.00356
-0.00001
-0.00458
-0.00890
-0.00964
-0.00486
0.00226
0.00597
0.00406
-0.00060
-0.00410
-0.00482
-0.00294
0.00087
0.00539
0.00872
0.00920
0.00662
0.00235
-0.00192
-0.00525
-0.00694
-0.00573
-0.00100
0.00504
0.00795
0.00496
-0.00206
-0.00803
-0.00917
-0.00582
-0.00101
0.00282
0.00441
0.00262
-0.00238
-0.00708
-0.00688
-0.00136
0.00500
0.00797
0.00735
0.00532
0.00319
0.00100
-0.00094
-0.00135
0.00071
0.00396
0.00518
0.00224
-0.00368
-0.00937
-0.01213
-0.01090
-0.00613
0.00021
0.00535
0.00716
0.00512
0.00068
-0.00311
-0.00326
0.00061
0.00588
0.00932
0.00933
0.00607
0.00078
-0.00450
-0.00771
-0.00793
-0.00566
-0.00232
0.00026
0.00071
-0.00085
-0.00288
-0.00394
-0.00357
-0.00176
0.00162
0.00576
0.00831
0.00712
0.00290
-0.00090
-0.00162
0.00040
0.00361
0.00714
0.00959
0.00778
0.00006
-0.01005
-0.01613
-0.01503
-0.00916
-0.00343
-0.00160
-0.00434
-0.00869
-0.01013
-0.00656
0.00011
0.00703
0.01339
0.01958
0.02465
0.02652
0.02431
0.01889
0.01127
0.00189
-0.00812
-0.01650
-0.02199
-0.02614
-0.03129
-0.03658
-0.03785
-0.03234
-0.02193
-0.01042
0.00048
0.01081
0.02019
0.02801
0.03469
0.04111
0.04747
0.05319
0.05650
0.05401
0.04303
0.02483
0.00387
-0.01576
-0.03200
-0.04480
-0.05701
-0.07298
-0.09332
-0.11404
-0.13345
-0.15311
-0.16503
-0.14502
-0.07134
0.05140
0.19622
0.33539
0.44222
0.47589
0.39498
0.20551
-0.02019
-0.19678
-0.29546
-0.34515
-0.37365
-0.37240
-0.32003
-0.21725
-0.08830
0.03808
0.13979
0.20301
0.22477
0.21397
0.18512
0.14966
0.11277
0.07560
0.03823
0.00129
-0.03281
-0.06009
-0.07726
-0.08380
-0.08151
-0.07311
-0.06163
-0.04976
-0.03871
-0.02823
-0.01795
-0.00739
0.00468
0.01861
0.03123
0.03773
0.03686
0.03201
0.02683
0.02231
0.01842
0.01557
0.01329
0.00971
0.00348
-0.00482
-0.01325
-0.01920
-0.02014
-0.01588
-0.00997
-0.00668
-0.00661
-0.00716
-0.00681
-0.00649
-0.00651
-0.00489
0.00014
0.00731
0.01301
0.01394
0.00957
0.00282
-0.00207
-0.00274
-0.00002
0.00367
0.00617
0.00617
0.00338
-0.00140
-0.00593
-0.00722
-0.00397
0.00124
0.00402
0.00260
-0.00120
-0.00519
-0.00821
-0.00882
-0.00568
0.00028
0.00608
0.00905
0.00784
0.00292
-0.00253
-0.00444
-0.00219
0.00084
0.00216
0.00249
0.00257
0.00115
-0.00214
-0.00488
-0.00467
-0.00184
0.00203
0.00579
0.00780
0.00571
-0.00050
-0.00697
-0.00940
-0.00692
-0.00162
0.00421
0.00836
0.00828
0.00296
-0.00473
-0.00980
-0.00943
-0.00478
0.00097
0.00542
0.00741
0.00621
0.00170
-0.00387
-0.00594
-0.00188
0.00519
0.00911
0.00721
0.00204
-0.00307
-0.00688
-0.00880
-0.00772
-0.00370
0.00119
0.00463
0.00555
0.00383
0.00025
-0.00305
-0.00349
-0.00045
0.00391
0.00647
0.00542
0.00129
-0.00354
-0.00660
-0.00686
-0.00456
-0.00030
0.00435
0.00651
0.00428
-0.00114
-0.00647
-0.00900
-0.00767
-0.00297
0.00296
0.00705
0.00767
0.00590
0.00387
0.00251
0.00213
0.00363
0.00684
0.00860
0.00537
-0.00215
-0.00938
-0.01276
-0.01247
-0.01017
-0.00690
-0.00389
-0.00323
-0.00581
-0.00933
-0.00990
-0.00572
0.00187
0.01051
0.01860
0.02487
0.02799
0.02728
0.02312
0.01651
0.00832
-0.00095
-0.01067
-0.01970
-0.02701
-0.03259
-0.03691
-0.03927
-0.03742
-0.02928
-0.01557
-0.00045
0.01096
0.01647
0.01857
0.02209
0.02996
0.04093
0.05112
0.05700
0.05674
0.05013
0.03833
0.02308
0.00555
-0.01318
-0.03110
-0.04703
-0.06306
-0.08164
-0.10124
-0.11978
-0.14032
-0.16313
-0.17063
-0.13398
-0.04246
0.08435
0.22040
0.35177
0.45536
0.47821
0.37447
0.16740
-0.05421
-0.21417
-0.30493
-0.35848
-0.38773
-0.37695
-0.31303
-0.20278
-0.06643
0.06810
0.16987
0.22047
0.22620
0.20729
0.17797
0.14245
0.10339
0.06458
0.02744
-0.00808
-0.03976
-0.06383
-0.07806
-0.08241
-0.07832
-0.06899
-0.05812
-0.04758
-0.03720
-0.02679
-0.01633
-0.00490
0.00852
0.02259
0.03348
0.03789
0.03590
0.03030
0.02405
0.01900
0.01609
0.01510
0.01396
0.00986
0.00220
-0.00648
-0.01333
-0.01773
-0.01975
-0.01818
-0.01259
-0.00630
-0.00401
-0.00627
-0.00890
-0.00824
-0.00464
-0.00006
0.00513
0.01079
0.01413
0.01168
0.00426
-0.00271
-0.00469
-0.00194
0.00269
0.00712
0.00961
0.00784
0.00138
-0.00588
-0.00887
-0.00668
-0.00265
0.00021
0.00129
0.00051
-0.00226
-0.00545
-0.00627
-0.00375
0.00039
0.00379
0.00541
0.00561
0.00500
0.00310
-0.00088
-0.00518
-0.00559
-0.00077
0.00462
0.00533
0.00197
-0.00140
-0.00368
-0.00618
-0.00741
-0.00393
0.00351
0.00914
0.00877
0.00421
-0.00012
-0.00219
-0.00251
-0.00155
0.00039
0.00168
0.00053
-0.00254
-0.00523
-0.00637
-0.00622
-0.00418
0.00077
0.00674
0.00904
0.00520
-0.00164
-0.00572
-0.00426
0.00050
0.00453
0.00636
0.00721
0.00716
0.00398
-0.00282
-0.00931
-0.01090
-0.00726
-0.00167
0.00282
0.00467
0.00324
-0.00024
-0.00294
-0.00350
-0.00303
-0.00186
0.00115
0.00468
0.00474
0.00045
-0.00371
-0.00342
0.00062
0.00502
0.00781
0.00863
0.00686
0.00183
-0.00511
-0.01016
-0.01032
-0.00639
-0.00178
0.00117
0.00208
0.00092
-0.00182
-0.00390
-0.00311
-0.00038
0.00165
0.00247
0.00328
0.00379
0.00288
0.00163
0.00233
0.00495
0.00733
0.00822
0.00763
0.00508
-0.00019
-0.00732
-0.01330
-0.01476
-0.01096
-0.00555
-0.00396
-0.00755
-0.01182
-0.01183
-0.00720
-0.00019
0.00804
0.01632
0.02148
0.02126
0.01768
0.01445
0.01248
0.01055
0.00871
0.00746
0.00474
-0.00236
-0.01360
-0.02559
-0.03506
-0.03979
-0.03801
-0.02974
-0.01815
-0.00756
-0.00020
0.00443
0.00810
0.01272
0.01979
0.02924
0.03902
0.04635
0.04943
0.04757
0.04097
0.03125
0.02102
0.01146
0.00114
-0.01179
-0.02767
-0.04638
-0.06783
-0.08932
-0.10612
-0.11865
-0.13423
-0.15285
-0.15378
-0.10884
-0.01079
0.12119
0.26220
0.38977
0.46757
0.44601
0.30458
0.08883
-0.11682
-0.25788
-0.33859
-0.38356
-0.39433
-0.35443
-0.26002
-0.13017
0.00525
0.11801
0.18970
0.21810
0.21514
0.19487
0.16473
0.12736
0.08572
0.04340
0.00342
-0.03093
-0.05569
-0.06891
-0.07278
-0.07154
-0.06791
-0.06245
-0.05545
-0.04726
-0.03714
-0.02362
-0.00701
0.00935
0.02142
0.02766
0.02905
0.02723
0.02419
0.02261
0.02401
0.02643
0.02583
0.01988
0.00997
-0.00009
-0.00719
-0.01115
-0.01372
-0.01516
-0.01396
-0.01079
-0.00949
-0.01192
-0.01450
-0.01272
-0.00694
-0.00060
0.00462
0.00835
0.00904
0.00600
0.00202
0.00047
0.00160
0.00405
0.00735
0.01024
0.00955
0.00378
-0.00375
-0.00786
-0.00691
-0.00361
-0.00083
0.00128
0.00305
0.00262
-0.00195
-0.00840
-0.01125
-0.00757
0.00026
0.00748
0.01068
0.00890
0.00347
-0.00281
-0.00697
-0.00703
-0.00285
0.00309
0.00674
0.00595
0.00230
-0.00155
-0.00470
-0.00664
-0.00557
-0.00098
0.00414
0.00633
0.00541
0.00296
-0.00078
-0.00528
-0.00714
-0.00331
0.00388
0.00847
0.00722
0.00189
-0.00394
-0.00766
-0.00796
-0.00502
-0.00064
0.00300
0.00475
0.00420
0.00125
-0.00280
-0.00502
-0.00305
0.00246
0.00780
0.00873
0.00402
-0.00304
-0.00752
-0.00732
-0.00354
0.00196
0.00706
0.00870
0.00550
-0.00006
-0.00464
-0.00764
-0.00938
-0.00812
-0.00279
0.00332
0.00549
0.00308
-0.00048
-0.00209
-0.00099
0.00238
0.00683
0.00995
0.00924
0.00421
-0.00294
-0.00889
-0.01117
-0.00868
-0.00197
0.00560
0.00880
0.00513
-0.00199
-0.00705
-0.00827
-0.00742
-0.00531
-0.00128
0.00362
0.00634
0.00534
0.00210
-0.00091
-0.00189
0.00051
0.00643
0.01325
0.01638
0.01320
0.00543
-0.00297
-0.00931
-0.01278
-0.01333
-0.01180
-0.01026
-0.01031
-0.01139
-0.01192
-0.01132
-0.00913
-0.00325
0.00812
0.02196
0.03020
0.02692
0.01541
0.00540
0.00282
0.00542
0.00888
0.01203
0.01370
0.00943
-0.00351
-0.02039
-0.03287
-0.03694
-0.03441
-0.02848
-0.02155
-0.01577
-0.01209
-0.00916
-0.00492
0.00149
0.01053
0.02245
0.03509
0.04397
0.04690
0.04610
0.04419
0.04115
0.03665
0.03164
0.02526
0.01315
-0.00753
-0.03328
-0.05742
-0.07657
-0.09106
-0.10177
-0.11228
-0.13078
-0.15772
-0.17015
-0.13396
-0.03875
0.09297
0.23629
0.37922
0.49060
0.50193
0.36430
0.12144
-0.11195
-0.25514
-0.31897
-0.35402
-0.37649
-0.36447
-0.30068
-0.19225
-0.06020
0.06952
0.16996
0.22470
0.23687
0.22115
0.18958
0.14808
0.10110
0.05363
0.01053
-0.02369
-0.04664
-0.06055
-0.07012
-0.07695
-0.07902
-0.07546
-0.06793
-0.05655
-0.03913
-0.01695
0.00237
0.01194
0.01379
0.01575
0.02128
0.02689
0.02948
0.03063
0.03177
0.03031
0.02355
0.01300
0.00233
-0.00586
-0.00983
-0.00869
-0.00462
-0.00234
-0.00469
-0.00992
-0.01392
-0.01419
-0.01121
-0.00715
-0.00385
-0.00200
-0.00178
-0.00330
-0.00551
-0.00528
0.00006
0.00840
0.01398
0.01388
0.01048
0.00649
0.00191
-0.00251
-0.00374
-0.00106
0.00228
0.00350
0.00256
-0.00047
-0.00551
-0.00955
-0.00883
-0.00408
0.00022
0.00174
0.00193
0.00218
0.00177
0.00015
-0.00129
-0.00069
0.00197
0.00504
0.00637
0.00447
-0.00034
-0.00552
-0.00832
-0.00812
-0.00561
-0.00118
0.00391
0.00648
0.00462
0.00101
-0.00028
0.00089
0.00195
0.00257
0.00431
0.00612
0.00453
-0.00144
-0.00860
-0.01279
-0.01148
-0.00453
0.00495
0.01111
0.00961
0.00178
-0.00665
-0.01052
-0.00826
-0.00175
0.00506
0.00863
0.00819
0.00503
0.00034
-0.00433
-0.00570
-0.00192
0.00375
0.00609
0.00448
0.00216
0.00015
-0.00321
-0.00708
-0.00762
-0.00378
0.00095
0.00335
0.00318
0.00079
-0.00350
-0.00684
-0.00534
0.00064
0.00607
0.00738
0.00580
0.00374
0.00133
-0.00179
-0.00385
-0.00244
0.00182
0.00514
0.00441
0.00029
-0.00419
-0.00689
-0.00730
-0.00550
-0.00225
0.00091
0.00320
0.00451
0.00342
-0.00146
-0.00730
-0.00833
-0.00250
0.00629
0.01278
0.01428
0.01037
0.00290
-0.00369
-0.00518
-0.00176
0.00227
0.00316
0.00091
-0.00273
-0.00729
-0.01282
-0.01706
-0.01631
-0.01001
-0.00225
0.00247
0.00368
0.00441
0.00692
0.01008
0.01174
0.01226
0.01371
0.01567
0.01510
0.01102
0.00621
0.00277
-0.00073
-0.00601
-0.01171
-0.01546
-0.01752
-0.02053
-0.02569
-0.03083
-0.03206
-0.02704
-0.01661
-0.00370
0.00897
0.01976
0.02729
0.03035
0.03030
0.03191
0.03851
0.04691
0.05011
0.04516
0.03506
0.02299
0.00835
-0.00978
-0.02873
-0.04491
-0.05893
-0.07425
-0.09171
-0.11056
-0.13367
-0.16143
-0.17696
-0.15010
-0.06519
0.06452
0.21491
0.36487
0.47814
0.49510
0.37764
0.16225
-0.05828
-0.21404
-0.30327
-0.35802
-0.38924
-0.38004
-0.31633
-0.20504
-0.06833
0.06529
0.16767
0.22211
0.23121
0.21054
0.17611
0.13842
0.10224
0.06715
0.03092
-0.00520
-0.03655
-0.06018
-0.07628
-0.08454
-0.08341
-0.07390
-0.06062
-0.04778
-0.03655
-0.02647
-0.01694
-0.00647
0.00665
0.02145
0.03369
0.03968
0.03944
0.03521
0.02900
0.02236
0.01673
0.01250
0.00881
0.00472
-0.00020
-0.00639
-0.01397
-0.02096
-0.02323
-0.01832
-0.00915
-0.00182
0.00036
-0.00112
-0.00350
-0.00558
-0.00674
-0.00549
-0.00072
0.00615
0.01117
0.01096
0.00597
0.00016
-0.00269
-0.00159
0.00210
0.00608
0.00793
0.00627
0.00177
-0.00333
-0.00682
-0.00727
-0.00444
0.00009
0.00346
0.00392
0.00215
-0.00063
-0.00417
-0.00751
-0.00773
-0.00306
0.00390
0.00819
0.00718
0.00222
-0.00320
-0.00596
-0.00515
-0.00220
0.00096
0.00359
0.00535
0.00511
0.00200
-0.00239
-0.00443
-0.00188
0.00325
0.00638
0.00505
0.00079
-0.00365
-0.00653
-0.00657
-0.00330
0.00115
0.00311
0.00160
-0.00073
-0.00144
-0.00111
-0.00134
-0.00154
0.00023
0.00353
0.00501
0.00270
-0.00132
-0.00412
-0.00502
-0.00387
0.00016
0.00564
0.00848
0.00680
0.00309
-0.00006
-0.00293
-0.00598
-0.00717
-0.00427
0.00157
0.00607
0.00547
-0.00005
-0.00648
-0.00944
-0.00730
-0.00163
0.00445
0.00783
0.00671
0.00210
-0.00212
-0.00260
0.00014
0.00304
0.00462
0.00547
0.00511
0.00154
-0.00498
-0.01038
-0.01076
-0.00639
-0.00049
0.00433
0.00676
0.00605
0.00242
-0.00217
-0.00520
-0.00520
-0.00249
0.00070
0.00167
0.00028
-0.00071
0.00041
0.00183
0.00188
0.00278
0.00719
0.01246
0.01287
0.00714
-0.00052
-0.00645
-0.01018
-0.01139
-0.00945
-0.00651
-0.00648
-0.01014
-0.01425
-0.01524
-0.01149
-0.00302
0.00817
0.01804
0.02274
0.02151
0.01679
0.01209
0.00986
0.01055
0.01275
0.01402
0.01151
0.00322
-0.01000
-0.02399
-0.03409
-0.03823
-0.03674
-0.03059
-0.02156
-0.01329
-0.00897
-0.00763
-0.00452
0.00374
0.01611
0.02942
0.04154
0.05093
0.05510
0.05228
0.04424
0.03540
0.02857
0.02243
0.01348
-0.00038
-0.01857
-0.03964
-0.06290
-0.08635
-0.10478
-0.11556
-0.12636
-0.14650
-0.16473
-0.14805
-0.07447
0.04291
0.17680
0.31445
0.44026
0.50187
0.43555
0.24049
-0.00020
-0.19238
-0.30733
-0.37132
-0.40354
-0.39363
-0.32995
-0.22129
-0.08935
0.04166
0.14715
0.20994
0.23061
0.22254
0.19704
0.15904
0.11365
0.06786
0.02610
-0.01017
-0.03889
-0.05769
-0.06752
-0.07233
-0.07490
-0.07470
-0.06995
-0.06003
-0.04571
-0.02828
-0.00978
0.00640
0.01686
0.02101
0.02179
0.02269
0.02480
0.02711
0.02856
0.02873
0.02679
0.02154
0.01300
0.00323
-0.00497
-0.00971
-0.01064
-0.00900
-0.00716
-0.00718
-0.00959
-0.01326
-0.01584
-0.01473
-0.00940
-0.00289
0.00109
0.00199
0.00136
-0.00019
-0.00211
-0.00166
0.00335
0.01052
0.01495
0.01442
0.01010
0.00384
-0.00241
-0.00592
-0.00501
-0.00125
0.00191
0.00255
0.00087
-0.00240
-0.00630
-0.00870
-0.00762
-0.00366
0.00063
0.00344
0.00440
0.00320
-0.00015
-0.00385
-0.00508
-0.00269
0.00208
0.00717
0.01034
0.00890
0.00190
-0.00701
-0.01176
-0.00974
-0.00351
0.00333
0.00884
0.01110
0.00820
0.00120
-0.00577
-0.00920
-0.00818
-0.00350
0.00262
0.00643
0.00544
0.00132
-0.00232
-0.00416
-0.00485
-0.00394
-0.00047
0.00380
0.00480
0.00089
-0.00452
-0.00637
-0.00323
0.00184
0.00560
0.00764
0.00841
0.00643
0.00052
-0.00636
-0.00872
-0.00468
0.00195
0.00604
0.00549
0.00120
-0.00435
-0.00810
-0.00802
-0.00476
-0.00062
0.00283
0.00501
0.00510
0.00248
-0.00154
-0.00419
-0.00378
-0.00083
0.00299
0.00591
0.00643
0.00418
0.00074
-0.00156
-0.00191
-0.00134
-0.00086
-0.00050
-0.00052
-0.00203
-0.00509
-0.00723
-0.00556
-0.00033
0.00506
0.00775
0.00751
0.00523
0.00130
-0.00329
-0.00606
-0.00515
-0.00187
0.00039
-0.00019
-0.00234
-0.00383
-0.00373
-0.00212
0.00108
0.00581
0.01105
0.01476
0.01464
0.00964
0.00131
-0.00663
-0.01115
-0.01177
-0.00951
-0.00578
-0.00325
-0.00496
-0.01035
-0.01450
-0.01341
-0.00779
-0.00007
0.00865
0.01634
0.01891
0.01499
0.00928
0.00810
0.01305
0.02037
0.02435
0.02044
0.00829
-0.00721
-0.01997
-0.02811
-0.03302
-0.03470
-0.03184
-0.02609
-0.02163
-0.01986
-0.01755
-0.01080
0.00090
0.01472
0.02746
0.03783
0.04552
0.04903
0.04654
0.03935
0.03225
0.02914
0.02908
0.02747
0.02013
0.00551
-0.01584
-0.04199
-0.06923
-0.09215
-0.10589
-0.11106
-0.11704
-0.13422
-0.15560
-0.15123
-0.09209
0.02235
0.16947
0.32561
0.46023
0.51608
0.43578
0.22794
-0.01790
-0.20541
-0.30785
-0.35760
-0.38193
-0.37557
-0.32490
-0.23120
-0.10864
0.02187
0.13454
0.20792
0.23707
0.23204
0.20526
0.16464
0.11619
0.06692
0.02372
-0.00944
-0.03330
-0.05162
-0.06660
-0.07675
-0.08023
-0.07786
-0.07120
-0.06016
-0.04462
-0.02699
-0.01082
0.00206
0.01150
0.01777
0.02186
0.02570
0.03029
0.03408
0.03477
0.03175
0.02567
0.01698
0.00666
-0.00247
-0.00731
-0.00764
-0.00620
-0.00597
-0.00807
-0.01161
-0.01454
-0.01493
-0.01237
-0.00825
-0.00443
-0.00166
0.00034
0.00152
0.00112
-0.00094
-0.00273
-0.00145
0.00369
0.00996
0.01324
0.01165
0.00669
0.00079
-0.00427
-0.00651
-0.00419
0.00145
0.00606
0.00638
0.00295
-0.00197
-0.00647
-0.00840
-0.00596
-0.00059
0.00295
0.00133
-0.00369
-0.00728
-0.00634
-0.00188
0.00285
0.00562
0.00640
0.00600
0.00452
0.00174
-0.00142
-0.00286
-0.00144
0.00139
0.00296
0.00197
-0.00069
-0.00340
-0.00519
-0.00561
-0.00436
-0.00138
0.00272
0.00641
0.00768
0.00514
-0.00032
-0.00526
-0.00607
-0.00225
0.00306
0.00598
0.00488
0.00072
-0.00432
-0.00780
-0.00806
-0.00546
-0.00192
0.00131
0.00429
0.00647
0.00601
0.00245
-0.00166
-0.00316
-0.00127
0.00256
0.00606
0.00705
0.00461
-0.00004
-0.00443
-0.00659
-0.00589
-0.00290
0.00051
0.00171
-0.00054
-0.00439
-0.00644
-0.00521
-0.00205
0.00119
0.00406
0.00657
0.00776
0.00609
0.00163
-0.00286
-0.00414
-0.00193
0.00117
0.00318
0.00405
0.00353
0.00069
-0.00346
-0.00544
-0.00319
0.00110
0.00350
0.00227
-0.00153
-0.00581
-0.00854
-0.00814
-0.00474
-0.00052
0.00231
0.00357
0.00411
0.00399
0.00294
0.00176
0.00183
0.00360
0.00640
0.00925
0.01086
0.00955
0.00442
-0.00307
-0.00951
-0.01194
-0.01013
-0.00697
-0.00639
-0.01004
-0.01552
-0.01846
-0.01614
-0.00884
0.00156
0.01240
0.02053
0.02376
0.02246
0.01894
0.01580
0.01514
0.01734
0.01904
0.01483
0.00301
-0.01202
-0.02485
-0.03403
-0.04005
-0.04172
-0.03754
-0.02877
-0.01885
-0.01043
-0.00416
0.00122
0.00791
0.01734
0.02861
0.03936
0.04775
0.05285
0.05361
0.04910
0.04045
0.03080
0.02207
0.01256
-0.00054
-0.01756
-0.03730
-0.05971
-0.08348
-0.10322
-0.11611
-0.12975
-0.15209
-0.17044
-0.15311
-0.08051
0.03550
0.17141
0.31458
0.44520
0.50835
0.44163
0.24532
0.00215
-0.19182
-0.30390
-0.36079
-0.38850
-0.38232
-0.32870
-0.23057
-0.10600
0.02219
0.13053
0.20074
0.22887
0.22509
0.20215
0.16679
0.12224
0.07386
0.02899
-0.00741
-0.03486
-0.05508
-0.06877
-0.07559
-0.07651
-0.07418
-0.06988
-0.06196
-0.04854
-0.03068
-0.01175
0.00501
0.01735
0.02390
0.02495
0.02335
0.02297
0.02559
0.02921
0.03007
0.02624
0.01882
0.01018
0.00219
-0.00395
-0.00749
-0.00832
-0.00721
-0.00560
-0.00554
-0.00876
-0.01441
-0.01866
-0.01803
-0.01269
-0.00547
0.00129
0.00613
0.00735
0.00445
0.00032
-0.00077
0.00220
0.00642
0.00905
0.00951
0.00794
0.00415
-0.00070
-0.00380
-0.00339
-0.00064
0.00180
0.00218
0.00024
-0.00299
-0.00551
-0.00577
-0.00398
-0.00144
0.00109
0.00306
0.00302
-0.00012
-0.00480
-0.00734
-0.00553
-0.00055
0.00477
0.00849
0.00981
0.00822
0.00377
-0.00192
-0.00604
-0.00691
-0.00514
-0.00242
0.00014
0.00171
0.00144
-0.00063
-0.00278
-0.00283
-0.00009
0.00398
0.00663
0.00601
0.00283
-0.00054
-0.00281
-0.00410
-0.00380
-0.00101
0.00262
0.00339
0.00021
-0.00391
-0.00598
-0.00597
-0.00470
-0.00153
0.00345
0.00732
0.00689
0.00271
-0.00151
-0.00302
-0.00180
0.00096
0.00421
0.00640
0.00573
0.00221
-0.00189
-0.00464
-0.00611
-0.00648
-0.00444
0.00027
0.00455
0.00450
-0.00009
-0.00540
-0.00734
-0.00452
0.00123
0.00614
0.00711
0.00407
-0.00044
-0.00372
-0.00435
-0.00224
0.00126
0.00396
0.00504
0.00551
0.00543
0.00264
-0.00329
-0.00806
-0.00698
-0.00127
0.00344
0.00408
0.00222
-0.00020
-0.00323
-0.00641
-0.00751
-0.00531
-0.00136
0.00197
0.00346
0.00270
0.00006
-0.00229
-0.00167
0.00210
0.00668
0.00991
0.01091
0.00929
0.00526
0.00061
-0.00257
-0.00394
-0.00461
-0.00498
-0.00490
-0.00552
-0.00871
-0.01394
-0.01750
-0.01598
-0.00934
-0.00039
0.00754
0.01223
0.01343
0.01289
0.01302
0.01502
0.01858
0.02240
0.02400
0.02016
0.00945
-0.00576
-0.02066
-0.03103
-0.03494
-0.03341
-0.03002
-0.02800
-0.02685
-0.02339
-0.01601
-0.00592
0.00550
0.01789
0.02993
0.03894
0.04361
0.04549
0.04630
0.04545
0.04192
0.03670
0.03116
0.02340
0.00919
-0.01259
-0.03751
-0.06001
-0.07814
-0.09223
-0.10309
-0.11522
-0.13546
-0.15928
-0.16209
-0.11628
-0.01737
0.11622
0.26404
0.40453
0.49363
0.47171
0.31758
0.08634
-0.12864
-0.27164
-0.34928
-0.38789
-0.39208
-0.35095
-0.26323
-0.14287
-0.01093
0.10797
0.19087
0.22854
0.22931
0.20719
0.17097
0.12601
0.07893
0.03586
-0.00004
-0.02745
-0.04631
-0.05887
-0.06786
-0.07339
-0.07403
-0.06979
-0.06171
-0.04967
-0.03377
-0.01682
-0.00297
0.00602
0.01178
0.01693
0.02274
0.02895
0.03418
0.03621
0.03332
0.02616
0.01740
0.00917
0.00209
-0.00315
-0.00517
-0.00387
-0.00190
-0.00296
-0.00857
-0.01643
-0.02173
-0.02078
-0.01411
-0.00602
-0.00077
0.00096
0.00120
0.00113
0.00034
-0.00060
0.00060
0.00483
0.00966
0.01192
0.01068
0.00696
0.00214
-0.00194
-0.00321
-0.00121
0.00199
0.00357
0.00217
-0.00187
-0.00664
-0.00911
-0.00755
-0.00349
0.00008
0.00223
0.00371
0.00402
0.00185
-0.00210
-0.00522
-0.00571
-0.00313
0.00225
0.00808
0.00966
0.00459
-0.00331
-0.00747
-0.00551
-0.00044
0.00385
0.00595
0.00602
0.00391
-0.00020
-0.00455
-0.00666
-0.00567
-0.00273
0.00065
0.00307
0.00279
-0.00068
-0.00453
-0.00467
-0.00064
0.00375
0.00559
0.00596
0.00625
0.00448
-0.00145
-0.00848
-0.01059
-0.00599
0.00105
0.00558
0.00599
0.00299
-0.00182
-0.00574
-0.00606
-0.00258
0.00225
0.00589
0.00712
0.00563
0.00185
-0.00255
-0.00509
-0.00417
-0.00034
0.00386
0.00529
0.00243
-0.00329
-0.00828
-0.00941
-0.00597
0.00014
0.00600
0.00927
0.00880
0.00453
-0.00207
-0.00769
-0.00889
-0.00497
0.00130
0.00596
0.00657
0.00367
-0.00002
-0.00235
-0.00361
-0.00449
-0.00346
0.00092
0.00607
0.00731
0.00358
-0.00165
-0.00471
-0.00427
-0.00052
0.00481
0.00787
0.00523
-0.00213
-0.00933
-0.01256
-0.01188
-0.00887
-0.00400
0.00211
0.00699
0.00826
0.00652
0.00473
0.00515
0.00776
0.01093
0.01262
0.01124
0.00627
-0.00155
-0.01023
-0.01706
-0.01977
-0.01803
-0.01353
-0.00868
-0.00527
-0.00381
-0.00335
-0.00213
0.00109
0.00626
0.01255
0.01860
0.02246
0.02286
0.02076
0.01823
0.01544
0.01038
0.00203
-0.00782
-0.01684
-0.02486
-0.03280
-0.03946
-0.04107
-0.03515
-0.02392
-0.01222
-0.00283
0.00453
0.01066
0.01607
0.02241
0.03137
0.04179
0.05037
0.05494
0.05486
0.04918
0.03730
0.02099
0.00338
-0.01315
-0.02694
-0.03770
-0.04884
-0.06566
-0.08822
-0.11058
-0.13010
-0.15002
-0.16556
-0.15402
-0.09134
0.02264
0.16452
0.30818
0.42849
0.48462
0.42841
0.25361
0.02523
-0.16678
-0.28289
-0.34534
-0.38155
-0.38515
-0.33737
-0.24005
-0.11459
0.01508
0.12679
0.20040
0.22784
0.21968
0.19437
0.16260
0.12531
0.08252
0.03844
-0.00148
-0.03438
-0.05938
-0.07503
-0.08008
-0.07661
-0.06974
-0.06283
-0.05477
-0.04360
-0.03060
-0.01846
-0.00688
0.00664
0.02153
0.03292
0.03650
0.03280
0.02597
0.02025
0.01796
0.01860
0.01902
0.01595
0.00916
0.00130
-0.00508
-0.00955
-0.01275
-0.01422
-0.01256
-0.00801
-0.00388
-0.00398
-0.00877
-0.01445
-0.01584
-0.01054
-0.00106
0.00721
0.01071
0.00972
0.00609
0.00134
-0.00214
-0.00117
0.00434
0.00974
0.01046
0.00696
0.00240
-0.00191
-0.00579
-0.00713
-0.00390
0.00159
0.00438
0.00258
-0.00135
-0.00464
-0.00657
-0.00698
-0.00518
-0.00113
0.00373
0.00712
0.00689
0.00234
-0.00410
-0.00773
-0.00587
-0.00048
0.00465
0.00777
0.00853
0.00574
-0.00077
-0.00717
-0.00850
-0.00446
0.00049
0.00304
0.00380
0.00369
0.00147
-0.00291
-0.00577
-0.00375
0.00139
0.00511
0.00579
0.00488
0.00280
-0.00140
-0.00633
-0.00829
-0.00566
-0.00074
0.00316
0.00428
0.00234
-0.00165
-0.00525
-0.00592
-0.00304
0.00184
0.00629
0.00808
0.00629
0.00230
-0.00096
-0.00158
-0.00025
0.00123
0.00196
0.00188
0.00069
-0.00206
-0.00587
-0.00874
-0.00833
-0.00408
0.00166
0.00533
0.00545
0.00364
0.00200
0.00068
-0.00100
-0.00221
-0.00132
0.00156
0.00401
0.00360
0.00000
-0.00470
-0.00727
-0.00555
-0.00020
0.00564
0.00851
0.00689
0.00189
-0.00367
-0.00685
-0.00603
-0.00188
0.00291
0.00556
0.00523
0.00289
-0.00043
-0.00397
-0.00607
-0.00481
-0.00071
0.00301
0.00384
0.00190
-0.00183
-0.00676
-0.01074
-0.00997
-0.00323
0.00563
0.01145
0.01262
0.01068
0.00709
0.00274
-0.00047
-0.00009
0.00384
0.00744
0.00592
-0.00147
-0.01028
-0.01552
-0.01657
-0.01605
-0.01472
-0.01055
-0.00365
0.00158
0.00195
0.00064
0.00333
0.01069
0.01812
0.02205
0.02281
0.02162
0.01830
0.01255
0.00530
-0.00211
-0.00858
-0.01337
-0.01676
-0.02061
-0.02647
-0.03276
-0.03535
-0.03161
-0.02288
-0.01219
-0.00089
0.01056
0.01990
0.02425
0.02447
0.02547
0.03094
0.03970
0.04759
0.05067
0.04661
0.03575
0.02136
0.00690
-0.00692
-0.02131
-0.03680
-0.05322
-0.07042
-0.08779
-0.10581
-0.12875
-0.15814
-0.17891
-0.16077
-0.08396
0.04134
0.18919
0.33838
0.46041
0.50050
0.40900
0.20371
-0.02631
-0.19729
-0.29520
-0.35298
-0.38787
-0.38475
-0.32707
-0.21944
-0.08325
0.05260
0.15829
0.21538
0.22692
0.21048
0.18131
0.14552
0.10578
0.06602
0.02933
-0.00391
-0.03352
-0.05719
-0.07227
-0.07847
-0.07743
-0.07096
-0.06084
-0.04941
-0.03856
-0.02823
-0.01722
-0.00521
0.00714
0.01923
0.02985
0.03608
0.03522
0.02854
0.02123
0.01752
0.01715
0.01732
0.01612
0.01281
0.00648
-0.00283
-0.01264
-0.01915
-0.02001
-0.01593
-0.01012
-0.00639
-0.00662
-0.00934
-0.01106
-0.00934
-0.00462
0.00106
0.00622
0.01021
0.01199
0.01010
0.00472
-0.00123
-0.00400
-0.00234
0.00183
0.00566
0.00736
0.00604
0.00179
-0.00352
-0.00671
-0.00589
-0.00201
0.00224
0.00445
0.00360
0.00005
-0.00487
-0.00884
-0.00883
-0.00352
0.00400
0.00822
0.00702
0.00314
-0.00057
-0.00395
-0.00671
-0.00649
-0.00207
0.00400
0.00759
0.00664
0.00226
-0.00252
-0.00469
-0.00324
0.00028
0.00316
0.00374
0.00247
0.00073
-0.00097
-0.00298
-0.00451
-0.00340
0.00095
0.00558
0.00652
0.00294
-0.00245
-0.00637
-0.00728
-0.00532
-0.00158
0.00218
0.00419
0.00368
0.00123
-0.00183
-0.00406
-0.00402
-0.00074
0.00491
0.00966
0.00988
0.00492
-0.00201
-0.00679
-0.00757
-0.00493
-0.00049
0.00366
0.00522
0.00293
-0.00217
-0.00719
-0.00905
-0.00614
0.00043
0.00694
0.00953
0.00742
0.00306
-0.00102
-0.00402
-0.00565
-0.00505
-0.00229
0.00068
0.00177
0.00070
-0.00119
-0.00211
-0.00089
0.00216
0.00528
0.00681
0.00631
0.00384
-0.00043
-0.00471
-0.00588
-0.00314
0.00038
0.00169
0.00121
0.00005
-0.00323
-0.00928
-0.01369
-0.01100
-0.00229
0.00596
0.01007
0.01127
0.01019
0.00555
-0.00072
-0.00322
0.00027
0.00641
0.01124
0.01309
0.01023
0.00127
-0.01061
-0.01813
-0.01734
-0.01202
-0.00868
-0.00936
-0.01136
-0.01184
-0.00986
-0.00483
0.00352
0.01315
0.02030
0.02278
0.02139
0.01829
0.01563
0.01478
0.01485
0.01280
0.00661
-0.00271
-0.01291
-0.02288
-0.03229
-0.03985
-0.04263
-0.03781
-0.02603
-0.01250
-0.00291
0.00189
0.00571
0.01179
0.02008
0.02941
0.03952
0.04940
0.05545
0.05376
0.04434
0.03148
0.01960
0.00979
0.00070
-0.00918
-0.02155
-0.03897
-0.06220
-0.08642
-0.10448
-0.11717
-0.13441
-0.15788
-0.16579
-0.12729
-0.03374
0.09586
0.23903
0.37813
0.47693
0.47641
0.34484
0.12587
-0.08916
-0.23977
-0.32951
-0.38416
-0.40465
-0.37310
-0.28511
-0.15894
-0.02229
0.09777
0.17996
0.21723
0.21970
0.20325
0.17645
0.14078
0.09853
0.05496
0.01482
-0.01908
-0.04464
-0.06102
-0.06932
-0.07140
-0.06935
-0.06685
-0.06750
-0.06963
-0.06594
-0.05092
-0.02620
0.00258
0.03032
0.05135
0.05878
0.05056
0.03434
0.02213
0.02018
0.02518
0.02890
0.02505
0.01306
-0.00269
-0.01617
-0.02290
-0.02190
-0.01629
-0.01109
-0.00950
-0.01129
-0.01457
-0.01741
-0.01742
-0.01233
-0.00265
0.00773
0.01452
0.01593
0.01265
0.00698
0.00218
0.00087
0.00339
0.00811
0.01261
0.01374
0.00860
-0.00260
-0.01511
-0.02226
-0.01978
-0.00875
0.00433
0.01131
0.00857
0.00010
-0.00671
-0.00781
-0.00380
0.00322
0.01069
0.01469
0.01210
0.00391
-0.00554
-0.01218
-0.01381
-0.01021
-0.00341
0.00317
0.00692
0.00698
0.00384
-0.00060
-0.00356
-0.00331
-0.00014
0.00449
0.00823
0.00768
0.00116
-0.00780
-0.01249
-0.00971
-0.00211
0.00577
0.01082
0.01083
0.00479
-0.00486
-0.01249
-0.01309
-0.00568
0.00591
0.01464
0.01456
0.00578
-0.00551
-0.01287
-0.01395
-0.00938
-0.00065
0.00919
0.01510
0.01317
0.00399
-0.00717
-0.01349
-0.01107
-0.00228
0.00587
0.00791
0.00425
-0.00094
-0.00464
-0.00623
-0.00527
-0.00109
0.00521
0.01066
0.01251
0.00948
0.00201
-0.00699
-0.01275
-0.01175
-0.00471
0.00378
0.00855
0.00699
0.00006
-0.00853
-0.01404
-0.01310
-0.00596
0.00350
0.01055
0.01229
0.00847
0.00162
-0.00374
-0.00387
0.00202
0.01190
0.02098
0.02189
0.00953
-0.01152
-0.02828
-0.03130
-0.02280
-0.01090
-0.00042
0.00721
0.00993
0.00671
0.00116
-0.00156
-0.00024
0.00334
0.00830
0.01380
0.01655
0.01326
0.00491
-0.00390
-0.00902
-0.00880
-0.00424
0.00109
0.00269
-0.00172
-0.01057
-0.01978
-0.02485
-0.02212
-0.01086
0.00436
0.01554
0.01758
0.01274
0.00816
0.00980
0.01829
0.02877
0.03400
0.02906
0.01458
-0.00465
-0.02359
-0.03851
-0.04578
-0.04281
-0.03167
-0.01909
-0.01118
-0.00935
-0.01102
-0.01175
-0.00715
0.00435
0.02002
0.03501
0.04561
0.05047
0.05017
0.04676
0.04272
0.03952
0.03647
0.03067
0.01842
-0.00233
-0.03034
-0.06140
-0.08942
-0.10796
-0.11493
-0.11868
-0.13369
-0.16100
-0.17432
-0.13675
-0.03455
0.11358
0.27809
0.43012
0.52514
0.50281
0.33718
0.08453
-0.14883
-0.29526
-0.36394
-0.39203
-0.38948
-0.34431
-0.25544
-0.13934
-0.01689
0.09279
0.17406
0.22009
0.23300
0.21747
0.17960
0.13001
0.08000
0.03478
-0.00390
-0.03202
-0.04692
-0.05384
-0.06120
-0.07038
-0.07581
-0.07344
-0.06375
-0.04805
-0.02737
-0.00522
0.01248
0.02091
0.01917
0.01090
0.00326
0.00289
0.01106
0.02277
0.03058
0.02954
0.02025
0.00846
0.00073
-0.00013
0.00443
0.01090
0.01497
0.01243
0.00186
-0.01312
-0.02591
-0.03141
-0.02822
-0.01799
-0.00467
0.00569
0.00743
-0.00036
-0.01174
-0.01755
-0.01192
0.00367
0.02141
0.03222
0.03178
0.02246
0.01009
-0.00053
-0.00711
-0.00950
-0.00931
-0.00882
-0.00966
-0.01280
-0.01842
-0.02359
-0.02173
-0.00787
0.01418
0.03251
0.03720
0.02868
0.01456
0.00068
-0.01080
-0.01675
-0.01414
-0.00639
-0.00164
-0.00285
-0.00618
-0.00904
-0.01174
-0.01135
-0.00336
0.00979
0.01951
0.02085
0.01536
0.00576
-0.00566
-0.01421
-0.01466
-0.00711
0.00257
0.00845
0.00847
0.00341
-0.00460
-0.01148
-0.01226
-0.00505
0.00629
0.01462
0.01512
0.00833
-0.00146
-0.00948
-0.01231
-0.00893
-0.00183
0.00412
0.00558
0.00295
-0.00176
-0.00693
-0.01019
-0.00816
0.00008
0.01048
0.01707
0.01680
0.01033
0.00051
-0.00822
-0.01111
-0.00700
-0.00002
0.00432
0.00370
-0.00108
-0.00813
-0.01443
-0.01578
-0.00976
0.00117
0.01136
0.01638
0.01492
0.00788
-0.00145
-0.00751
-0.00612
0.00142
0.00943
0.01294
0.01040
0.00270
-0.00791
-0.01719
-0.01994
-0.01416
-0.00392
0.00391
0.00594
0.00384
0.00079
-0.00140
-0.00183
0.00018
0.00448
0.00955
0.01275
0.01121
0.00387
-0.00630
-0.01293
-0.01110
-0.00184
0.00872
0.01444
0.01266
0.00444
-0.00627
-0.01417
-0.01565
-0.01121
-0.00440
0.00098
0.00224
-0.00174
-0.00943
-0.01594
-0.01556
-0.00618
0.00844
0.02115
0.02659
0.02459
0.01912
0.01433
0.01196
0.01152
0.01151
0.00967
0.00331
-0.00885
-0.02492
-0.04054
-0.05066
-0.05087
-0.03968
-0.02122
-0.00381
0.00635
0.00943
0.00955
0.01089
0.01657
0.02790
0.04262
0.05513
0.05995
0.05480
0.04143
0.02506
0.01187
0.00477
0.00113
-0.00504
-0.01896
-0.04211
-0.07075
-0.09703
-0.11524
-0.12941
-0.14882
-0.16937
-0.16479
-0.10813
0.00013
0.13777
0.28691
0.42875
0.51257
0.46996
0.28740
0.04273
-0.16020
-0.28195
-0.35045
-0.39216
-0.39671
-0.34596
-0.24474
-0.11544
0.01612
0.12409
0.18941
0.21186
0.20751
0.19148
0.16808
0.13598
0.09549
0.05005
0.00531
-0.03253
-0.05951
-0.07497
-0.07954
-0.07503
-0.06657
-0.06078
-0.05932
-0.05691
-0.04725
-0.02902
-0.00555
0.01761
0.03393
0.03889
0.03431
0.02708
0.02249
0.02127
0.02269
0.02602
0.02796
0.02326
0.01023
-0.00624
-0.01852
-0.02236
-0.01890
-0.01201
-0.00530
-0.00158
-0.00305
-0.00935
-0.01630
-0.01855
-0.01360
-0.00293
0.00910
0.01673
0.01586
0.00785
-0.00121
-0.00599
-0.00542
-0.00114
0.00493
0.01053
0.01284
0.00969
0.00140
-0.00801
-0.01230
-0.00822
0.00046
0.00659
0.00697
0.00332
-0.00228
-0.00855
-0.01256
-0.01066
-0.00269
0.00724
0.01356
0.01246
0.00432
-0.00577
-0.01147
-0.01015
-0.00372
0.00440
0.01112
0.01290
0.00717
-0.00369
-0.01249
-0.01365
-0.00767
0.00137
0.00964
0.01362
0.01036
0.00073
-0.00939
-0.01393
-0.01153
-0.00450
0.00450
0.01232
0.01461
0.00914
-0.00071
-0.00837
-0.00960
-0.00456
0.00359
0.00989
0.00941
0.00109
-0.01016
-0.01731
-0.01693
-0.01040
-0.00086
0.00868
0.01500
0.01542
0.01007
0.00234
-0.00366
-0.00551
-0.00309
0.00181
0.00625
0.00715
0.00273
-0.00571
-0.01305
-0.01372
-0.00710
0.00189
0.00814
0.00985
0.00697
0.00005
-0.00795
-0.01179
-0.00824
0.00059
0.00892
0.01173
0.00789
0.00011
-0.00709
-0.00974
-0.00611
0.00233
0.01114
0.01515
0.01201
0.00364
-0.00601
-0.01362
-0.01664
-0.01334
-0.00481
0.00431
0.00948
0.00945
0.00528
-0.00120
-0.00651
-0.00639
-0.00041
0.00640
0.00837
0.00439
-0.00239
-0.00829
-0.01109
-0.00933
-0.00241
0.00725
0.01416
0.01430
0.00859
0.00092
-0.00505
-0.00637
-0.00178
0.00546
0.00900
0.00581
-0.00118
-0.00800
-0.01363
-0.01744
-0.01699
-0.01141
-0.00444
-0.00054
0.00016
0.00027
0.00073
0.00166
0.00548
0.01441
0.02584
0.03388
0.03489
0.02864
0.01580
-0.00169
-0.01839
-0.02759
-0.02752
-0.02362
-0.02290
-0.02709
-0.03247
-0.03471
-0.03161
-0.02246
-0.00802
0.00869
0.02355
0.03364
0.03821
0.03873
0.03884
0.04224
0.04868
0.05298
0.04950
0.03683
0.01760
-0.00399
-0.02354
-0.03805
-0.04842
-0.05868
-0.07143
-0.08699
-0.10857
-0.14160
-0.17917
-0.19166
-0.14550
-0.03659
0.10711
0.25751
0.39783
0.49268
0.48027
0.33080
0.10057
-0.10748
-0.23696
-0.30640
-0.35188
-0.37645
-0.36199
-0.29964
-0.19390
-0.05780
0.08148
0.18712
0.23730
0.23916
0.21340
0.17407
0.12806
0.08313
0.04606
0.01657
-0.01009
-0.03593
-0.05885
-0.07625
-0.08654
-0.08774
-0.07818
-0.05983
-0.03948
-0.02445
-0.01667
-0.01183
-0.00470
0.00580
0.01739
0.02841
0.03835
0.04498
0.04396
0.03324
0.01707
0.00398
0.00005
0.00397
0.00865
0.00756
-0.00019
-0.01028
-0.01780
-0.02098
-0.02029
-0.01575
-0.00749
0.00113
0.00417
-0.00109
-0.01053
-0.01632
-0.01336
-0.00268
0.01005
0.01852
0.01934
0.01332
0.00424
-0.00343
-0.00634
-0.00361
0.00268
0.00877
0.01166
0.00994
0.00332
-0.00630
-0.01362
-0.01367
-0.00747
-0.00103
0.00157
0.00093
-0.00126
-0.00416
-0.00562
-0.00276
0.00396
0.01018
0.01206
0.00910
0.00255
-0.00594
-0.01347
-0.01585
-0.01055
0.00029
0.01058
0.01506
0.01299
0.00687
-0.00081
-0.00763
-0.00977
-0.00474
0.00418
0.00957
0.00694
-0.00134
-0.00909
-0.01188
-0.00916
-0.00282
0.00452
0.00972
0.01002
0.00515
-0.00211
-0.00811
-0.01020
-0.00718
-0.00012
0.00715
0.01028
0.00764
0.00077
-0.00682
-0.01074
-0.00793
0.00018
0.00832
0.01217
0.01092
0.00537
-0.00318
-0.01112
-0.01314
-0.00718
0.00275
0.01020
0.01171
0.00789
0.00115
-0.00615
-0.01167
-0.01278
-0.00807
0.00014
0.00615
0.00571
0.00031
-0.00453
-0.00491
-0.00130
0.00370
0.00803
0.01025
0.00900
0.00432
-0.00157
-0.00584
-0.00678
-0.00402
0.00137
0.00629
0.00712
0.00287
-0.00417
-0.01044
-0.01274
-0.00937
-0.00181
0.00554
0.00901
0.00781
0.00279
-0.00422
-0.00927
-0.00843
-0.00250
0.00338
0.00610
0.00718
0.00754
0.00442
-0.00322
-0.00925
-0.00546
0.00795
0.02065
0.02245
0.01277
-0.00108
-0.01221
-0.01827
-0.01938
-0.01617
-0.01049
-0.00598
-0.00589
-0.01006
-0.01419
-0.01281
-0.00396
0.00895
0.02049
0.02752
0.02969
0.02763
0.02258
0.01655
0.01132
0.00751
0.00453
0.00013
-0.00883
-0.02266
-0.03663
-0.04479
-0.04516
-0.03955
-0.02995
-0.01795
-0.00633
0.00232
0.00860
0.01554
0.02455
0.03408
0.04239
0.04932
0.05435
0.05456
0.04701
0.03339
0.01972
0.00995
0.00207
-0.00788
-0.02122
-0.03822
-0.06030
-0.08618
-0.10990
-0.12839
-0.14682
-0.16637
-0.16867
-0.12644
-0.03232
0.09636
0.24144
0.38808
0.49522
0.49418
0.35086
0.11865
-0.10073
-0.24728
-0.33155
-0.38242
-0.40011
-0.36794
-0.28327
-0.16212
-0.02811
0.09218
0.17495
0.21237
0.21591
0.20189
0.17784
0.14465
0.10415
0.06018
0.01635
-0.02319
-0.05300
-0.06959
-0.07443
-0.07216
-0.06700
-0.06170
-0.05786
-0.05456
-0.04800
-0.03499
-0.01639
0.00390
0.02171
0.03331
0.03607
0.03119
0.02404
0.02028
0.02157
0.02525
0.02725
0.02481
0.01720
0.00545
-0.00762
-0.01756
-0.02043
-0.01585
-0.00790
-0.00253
-0.00348
-0.00979
-0.01692
-0.02001
-0.01656
-0.00748
0.00338
0.01112
0.01288
0.00946
0.00375
-0.00158
-0.00431
-0.00225
0.00480
0.01284
0.01603
0.01194
0.00331
-0.00515
-0.00980
-0.00909
-0.00416
0.00135
0.00403
0.00314
-0.00037
-0.00555
-0.01040
-0.01126
-0.00586
0.00329
0.01052
0.01173
0.00679
-0.00133
-0.00805
-0.00937
-0.00478
0.00243
0.00844
0.01113
0.00904
0.00154
-0.00842
-0.01453
-0.01254
-0.00415
0.00537
0.01165
0.01242
0.00706
-0.00234
-0.01024
-0.01135
-0.00540
0.00328
0.01018
0.01267
0.00909
0.00000
-0.00978
-0.01382
-0.00995
-0.00156
0.00620
0.00942
0.00617
-0.00197
-0.00947
-0.01142
-0.00794
-0.00192
0.00521
0.01201
0.01425
0.00870
-0.00133
-0.00832
-0.00789
-0.00172
0.00536
0.00913
0.00797
0.00300
-0.00356
-0.00969
-0.01302
-0.01069
-0.00250
0.00679
0.01068
0.00673
-0.00170
-0.00908
-0.01159
-0.00817
-0.00029
0.00843
0.01357
0.01253
0.00618
-0.00204
-0.00810
-0.00896
-0.00405
0.00365
0.00934
0.01008
0.00626
-0.00030
-0.00747
-0.01205
-0.01094
-0.00459
0.00241
0.00553
0.00367
-0.00163
-0.00770
-0.01106
-0.00860
-0.00059
0.00859
0.01372
0.01258
0.00677
0.00005
-0.00377
-0.00262
0.00270
0.00929
0.01377
0.01326
0.00635
-0.00499
-0.01528
-0.01998
-0.01927
-0.01586
-0.01060
-0.00384
0.00061
-0.00182
-0.00900
-0.01201
-0.00480
0.00912
0.02140
0.02744
0.02817
0.02572
0.02107
0.01534
0.01002
0.00520
-0.00042
-0.00722
-0.01457
-0.02279
-0.03240
-0.04092
-0.04324
-0.03659
-0.02356
-0.00948
0.00138
0.00716
0.00851
0.00891
0.01301
0.02296
0.03630
0.04830
0.05556
0.05645
0.05018
0.03809
0.02418
0.01162
-0.00002
-0.01191
-0.02348
-0.03592
-0.05366
-0.07796
-0.10329
-0.12578
-0.14899
-0.17157
-0.17374
-0.13030
-0.03731
0.08760
0.22910
0.37495
0.48569
0.49382
0.36329
0.14080
-0.07808
-0.23223
-0.32567
-0.38292
-0.40474
-0.37571
-0.29252
-0.17042
-0.03378
0.08979
0.17576
0.21459
0.21638
0.19913
0.17388
0.14210
0.10325
0.06045
0.01880
-0.01834
-0.04882
-0.06907
-0.07620
-0.07300
-0.06677
-0.06209
-0.05786
-0.05192
-0.04388
-0.03273
-0.01653
0.00336
0.02125
0.03206
0.03473
0.03103
0.02417
0.01882
0.01886
0.02358
0.02769
0.02585
0.01676
0.00351
-0.00910
-0.01741
-0.01989
-0.01664
-0.00956
-0.00300
-0.00172
-0.00679
-0.01411
-0.01793
-0.01536
-0.00724
0.00326
0.01187
0.01465
0.01065
0.00304
-0.00337
-0.00537
-0.00238
0.00389
0.01003
0.01233
0.00921
0.00217
-0.00545
-0.01033
-0.01022
-0.00483
0.00330
0.00952
0.00986
0.00372
-0.00564
-0.01277
-0.01331
-0.00696
0.00256
0.01030
0.01271
0.00877
0.00039
-0.00817
-0.01249
-0.01038
-0.00266
0.00693
0.01265
0.01030
0.00136
-0.00783
-0.01190
-0.00998
-0.00354
0.00564
0.01394
0.01583
0.00873
-0.00314
-0.01167
-0.01172
-0.00474
0.00351
0.00822
0.00849
0.00564
0.00020
-0.00723
-0.01326
-0.01343
-0.00719
0.00118
0.00688
0.00798
0.00481
-0.00085
-0.00542
-0.00499
0.00096
0.00847
0.01256
0.01094
0.00456
-0.00339
-0.00877
-0.00910
-0.00552
-0.00103
0.00246
0.00406
0.00269
-0.00158
-0.00614
-0.00778
-0.00544
-0.00024
0.00602
0.01079
0.01066
0.00389
-0.00632
-0.01302
-0.01144
-0.00322
0.00579
0.01042
0.00897
0.00322
-0.00308
-0.00661
-0.00597
-0.00134
0.00552
0.01059
0.00959
0.00238
-0.00632
-0.01157
-0.01210
-0.00885
-0.00224
0.00648
0.01298
0.01255
0.00539
-0.00361
-0.01017
-0.01297
-0.01130
-0.00497
0.00304
0.00750
0.00632
0.00237
-0.00028
0.00025
0.00423
0.01073
0.01661
0.01731
0.01063
-0.00083
-0.01162
-0.01762
-0.01799
-0.01409
-0.00834
-0.00405
-0.00463
-0.01060
-0.01761
-0.01847
-0.00908
0.00706
0.02127
0.02784
0.02845
0.02764
0.02633
0.02267
0.01664
0.01035
0.00410
-0.00441
-0.01638
-0.02913
-0.03830
-0.04178
-0.04051
-0.03561
-0.02671
-0.01416
-0.00145
0.00674
0.00928
0.00990
0.01368
0.02284
0.03574
0.04831
0.05609
0.05618
0.04843
0.03545
0.02133
0.00984
0.00213
-0.00424
-0.01358
-0.02927
-0.05218
-0.07977
-0.10617
-0.12653
-0.14233
-0.15655
-0.16046
-0.13275
-0.05884
0.05527
0.19348
0.33953
0.46068
0.49652
0.39874
0.19043
-0.03838
-0.20774
-0.30559
-0.36248
-0.39290
-0.38193
-0.31612
-0.20468
-0.07203
0.05525
0.15388
0.20970
0.22406
0.21094
0.18508
0.15347
0.11658
0.07387
0.02794
-0.01483
-0.04720
-0.06602
-0.07368
-0.07441
-0.07088
-0.06512
-0.05978
-0.05564
-0.04949
-0.03717
-0.01837
0.00277
0.02064
0.03101
0.03301
0.02948
0.02459
0.02100
0.01995
0.02215
0.02615
0.02734
0.02154
0.00934
-0.00458
-0.01534
-0.01989
-0.01768
-0.01136
-0.00589
-0.00484
-0.00798
-0.01284
-0.01698
-0.01766
-0.01192
0.00026
0.01318
0.01897
0.01449
0.00380
-0.00592
-0.00922
-0.00466
0.00477
0.01313
0.01561
0.01172
0.00411
-0.00412
-0.01014
-0.01136
-0.00721
-0.00029
0.00549
0.00733
0.00415
-0.00307
-0.01024
-0.01181
-0.00577
0.00391
0.01094
0.01169
0.00618
-0.00292
-0.01092
-0.01293
-0.00765
0.00132
0.00882
0.01196
0.01020
0.00403
-0.00443
-0.01078
-0.01073
-0.00405
0.00468
0.00980
0.00877
0.00310
-0.00375
-0.00856
-0.00922
-0.00517
0.00199
0.00877
0.01153
0.00853
0.00109
-0.00680
-0.01066
-0.00840
-0.00161
0.00572
0.00920
0.00613
-0.00233
-0.01083
-0.01370
-0.00965
-0.00176
0.00632
0.01213
0.01343
0.00898
0.00092
-0.00600
-0.00825
-0.00543
0.00093
0.00798
0.01150
0.00817
-0.00099
-0.01038
-0.01416
-0.01080
-0.00356
0.00310
0.00674
0.00670
0.00294
-0.00322
-0.00810
-0.00787
-0.00224
0.00523
0.01041
0.01100
0.00656
-0.00149
-0.00923
-0.01179
-0.00717
0.00191
0.01008
0.01299
0.00925
0.00070
-0.00825
-0.01242
-0.00905
-0.00011
0.00888
0.01256
0.00882
-0.00059
-0.01117
-0.01780
-0.01732
-0.00997
0.00078
0.00991
0.01334
0.01043
0.00407
-0.00198
-0.00516
-0.00374
0.00288
0.01179
0.01685
0.01402
0.00538
-0.00366
-0.00952
-0.01114
-0.00827
-0.00250
0.00120
-0.00209
-0.01154
-0.02082
-0.02409
-0.01966
-0.00876
0.00538
0.01735
0.02209
0.01937
0.01402
0.01147
0.01394
0.02018
0.02649
0.02778
0.01965
0.00199
-0.01920
-0.03541
-0.04202
-0.04013
-0.03306
-0.02387
-0.01627
-0.01377
-0.01543
-0.01558
-0.00964
0.00193
0.01642
0.03196
0.04594
0.05388
0.05295
0.04517
0.03547
0.02802
0.02461
0.02381
0.02089
0.01090
-0.00706
-0.03015
-0.05536
-0.07955
-0.09734
-0.10562
-0.11191
-0.12933
-0.15535
-0.16188
-0.11762
-0.01714
0.12172
0.27905
0.42764
0.51092
0.46383
0.27949
0.03646
-0.16406
-0.28053
-0.33714
-0.36546
-0.36715
-0.32916
-0.24862
-0.13594
-0.00959
0.10543
0.18537
0.22183
0.22411
0.20551
0.17207
0.12630
0.07535
0.02983
-0.00399
-0.02724
-0.04398
-0.05657
-0.06575
-0.07229
-0.07640
-0.07618
-0.06864
-0.05283
-0.03166
-0.01059
0.00533
0.01384
0.01625
0.01643
0.01819
0.02312
0.03039
0.03718
0.03930
0.03329
0.01999
0.00497
-0.00563
-0.00940
-0.00788
-0.00399
-0.00068
-0.00085
-0.00625
-0.01517
-0.02250
-0.02335
-0.01659
-0.00518
0.00555
0.01009
0.00606
-0.00282
-0.00915
-0.00848
-0.00235
0.00548
0.01277
0.01763
0.01686
0.00903
-0.00183
-0.00890
-0.00892
-0.00383
0.00297
0.00893
0.01108
0.00668
-0.00296
-0.01192
-0.01480
-0.01098
-0.00350
0.00386
0.00749
0.00492
-0.00260
-0.00960
-0.01040
-0.00415
0.00467
0.01073
0.01219
0.01002
0.00514
-0.00167
-0.00762
-0.00928
-0.00618
-0.00084
0.00438
0.00777
0.00679
0.00042
-0.00737
-0.01021
-0.00600
0.00158
0.00765
0.00965
0.00707
0.00093
-0.00605
-0.01028
-0.00936
-0.00338
0.00491
0.01091
0.01031
0.00260
-0.00755
-0.01340
-0.01146
-0.00361
0.00531
0.01097
0.01112
0.00600
-0.00165
-0.00771
-0.00887
-0.00458
0.00268
0.00887
0.01095
0.00820
0.00163
-0.00659
-0.01231
-0.01109
-0.00299
0.00582
0.00900
0.00581
-0.00042
-0.00668
-0.01070
-0.01008
-0.00425
0.00377
0.00966
0.01089
0.00731
0.00070
-0.00527
-0.00687
-0.00326
0.00318
0.00904
0.01133
0.00798
-0.00047
-0.00965
-0.01419
-0.01218
-0.00569
0.00213
0.00835
0.00981
0.00494
-0.00368
-0.01047
-0.01136
-0.00641
0.00102
0.00668
0.00805
0.00575
0.00213
-0.00097
-0.00201
0.00094
0.00799
0.01498
0.01634
0.01050
0.00066
-0.00899
-0.01562
-0.01746
-0.01433
-0.00854
-0.00370
-0.00256
-0.00604
-0.01242
-0.01648
-0.01246
-0.00019
0.01362
0.02201
0.02402
0.02293
0.02088
0.01817
0.01568
0.01446
0.01347
0.00975
0.00106
-0.01245
-0.02799
-0.04075
-0.04626
-0.04336
-0.03436
-0.02238
-0.00993
0.00026
0.00560
0.00626
0.00666
0.01238
0.02501
0.04038
0.05189
0.05517
0.05026
0.04066
0.03078
0.02317
0.01700
0.00941
-0.00165
-0.01656
-0.03588
-0.06030
-0.08672
-0.10800
-0.12200
-0.13661
-0.15597
-0.16315
-0.12958
-0.04469
0.07647
0.21579
0.35933
0.47086
0.48558
0.36373
0.14547
-0.07464
-0.23021
-0.32120
-0.37395
-0.39289
-0.36331
-0.28102
-0.16202
-0.03172
0.08421
0.16533
0.20441
0.20983
0.19598
0.17221
0.14109
0.10272
0.05849
0.01333
-0.02476
-0.04956
-0.06140
-0.06536
-0.06588
-0.06492
-0.06365
-0.06232
-0.05835
-0.04791
-0.03047
-0.01008
0.00801
0.02075
0.02758
0.02943
0.02825
0.02632
0.02547
0.02647
0.02819
0.02732
0.02075
0.00927
-0.00270
-0.01144
-0.01609
-0.01630
-0.01162
-0.00478
-0.00189
-0.00644
-0.01481
-0.02003
-0.01851
-0.01119
-0.00070
0.00951
0.01494
0.01286
0.00544
-0.00217
-0.00634
-0.00578
-0.00024
0.00851
0.01542
0.01534
0.00777
-0.00266
-0.01028
-0.01190
-0.00743
0.00074
0.00836
0.01065
0.00523
-0.00516
-0.01378
-0.01500
-0.00847
0.00149
0.00967
0.01279
0.01004
0.00294
-0.00504
-0.00993
-0.00959
-0.00474
0.00196
0.00711
0.00755
0.00241
-0.00506
-0.00948
-0.00778
-0.00077
0.00836
0.01526
0.01573
0.00894
-0.00130
-0.00998
-0.01446
-0.01370
-0.00721
0.00287
0.01077
0.01120
0.00431
-0.00485
-0.01084
-0.01101
-0.00559
0.00302
0.01039
0.01178
0.00583
-0.00346
-0.00968
-0.00908
-0.00280
0.00485
0.00962
0.00959
0.00543
-0.00064
-0.00631
-0.00950
-0.00809
-0.00112
0.00848
0.01380
0.00938
-0.00268
-0.01394
-0.01712
-0.01143
-0.00131
0.00763
0.01142
0.00915
0.00310
-0.00303
-0.00649
-0.00611
-0.00172
0.00545
0.01210
0.01384
0.00820
-0.00291
-0.01334
-0.01656
-0.01078
-0.00059
0.00741
0.00980
0.00689
0.00042
-0.00700
-0.01150
-0.01008
-0.00345
0.00463
0.01053
0.01217
0.00828
-0.00075
-0.01064
-0.01467
-0.00943
0.00156
0.01147
0.01592
0.01444
0.00878
0.00195
-0.00263
-0.00313
-0.00045
0.00258
0.00224
-0.00412
-0.01493
-0.02435
-0.02735
-0.02337
-0.01409
-0.00118
0.01154
0.01804
0.01593
0.01032
0.00888
0.01435
0.02348
0.03151
0.03495
0.03095
0.01749
-0.00395
-0.02672
-0.04201
-0.04522
-0.03923
-0.03091
-0.02480
-0.02129
-0.01936
-0.01802
-0.01470
-0.00570
0.00939
0.02593
0.03841
0.04485
0.04578
0.04206
0.03626
0.03350
0.03684
0.04230
0.04136
0.02891
0.00737
-0.01692
-0.03989
-0.06148
-0.08155
-0.09672
-0.10587
-0.11763
-0.14302
-0.17415
-0.17775
-0.12156
-0.00471
0.14682
0.30635
0.44699
0.51944
0.46480
0.27570
0.02830
-0.17467
-0.28965
-0.34311
-0.36933
-0.36881
-0.32787
-0.24734
-0.13938
-0.01696
0.10107
0.18916
0.23148
0.23244
0.20646
0.16519
0.11730
0.07164
0.03413
0.00498
-0.01801
-0.03635
-0.05222
-0.06844
-0.08374
-0.09112
-0.08449
-0.06575
-0.04270
-0.02190
-0.00626
0.00303
0.00675
0.00920
0.01513
0.02453
0.03309
0.03743
0.03699
0.03161
0.02123
0.00875
-0.00049
-0.00341
-0.00134
0.00254
0.00527
0.00407
-0.00286
-0.01408
-0.02423
-0.02690
-0.01972
-0.00711
0.00292
0.00538
0.00138
-0.00458
-0.00830
-0.00730
-0.00140
0.00669
0.01295
0.01499
0.01277
0.00710
-0.00027
-0.00571
-0.00551
0.00035
0.00744
0.01054
0.00764
0.00046
-0.00765
-0.01372
-0.01534
-0.01086
-0.00135
0.00790
0.01075
0.00614
-0.00111
-0.00581
-0.00665
-0.00442
0.00071
0.00782
0.01268
0.01022
0.00035
-0.01052
-0.01521
-0.01184
-0.00363
0.00511
0.01130
0.01256
0.00765
-0.00142
-0.00930
-0.01087
-0.00504
0.00462
0.01226
0.01329
0.00701
-0.00318
-0.01193
-0.01457
-0.00948
0.00027
0.00848
0.01057
0.00644
-0.00100
-0.00827
-0.01206
-0.01002
-0.00281
0.00559
0.01074
0.01062
0.00582
-0.00153
-0.00805
-0.00975
-0.00466
0.00469
0.01239
0.01374
0.00845
-0.00013
-0.00793
-0.01199
-0.01086
-0.00502
0.00263
0.00766
0.00689
0.00092
-0.00618
-0.01011
-0.00907
-0.00372
0.00401
0.01086
0.01264
0.00721
-0.00253
-0.00983
-0.00952
-0.00229
0.00652
0.01199
0.01228
0.00749
-0.00130
-0.01089
-0.01619
-0.01385
-0.00543
0.00359
0.00791
0.00584
-0.00016
-0.00599
-0.00861
-0.00650
0.00049
0.00980
0.01619
0.01584
0.01002
0.00302
-0.00229
-0.00472
-0.00286
0.00287
0.00725
0.00374
-0.00800
-0.02090
-0.02749
-0.02591
-0.01854
-0.00795
0.00386
0.01346
0.01667
0.01298
0.00779
0.00771
0.01414
0.02305
0.02990
0.03175
0.02600
0.01118
-0.00946
-0.02793
-0.03719
-0.03659
-0.03124
-0.02647
-0.02392
-0.02262
-0.02170
-0.02001
-0.01455
-0.00240
0.01495
0.03133
0.04099
0.04300
0.04052
0.03732
0.03560
0.03603
0.03807
0.03926
0.03507
0.02173
0.00023
-0.02415
-0.04680
-0.06646
-0.08214
-0.09253
-0.10255
-0.12460
-0.16126
-0.18709
-0.16226
-0.07152
0.06278
0.21128
0.35868
0.47656
0.50153
0.38349
0.15657
-0.07374
-0.22579
-0.30030
-0.33945
-0.36067
-0.34988
-0.29526
-0.20203
-0.08396
0.04016
0.14544
0.21079
0.23165
0.21846
0.18479
0.14055
0.09306
0.04897
0.01352
-0.01127
-0.02774
-0.04130
-0.05628
-0.07210
-0.08324
-0.08380
-0.07247
-0.05348
-0.03311
-0.01572
-0.00300
0.00488
0.00883
0.01136
0.01583
0.02358
0.03224
0.03795
0.03837
0.03269
0.02100
0.00628
-0.00494
-0.00739
-0.00225
0.00393
0.00499
-0.00055
-0.01003
-0.01944
-0.02518
-0.02436
-0.01632
-0.00451
0.00500
0.00795
0.00443
-0.00209
-0.00696
-0.00650
0.00003
0.00956
0.01684
0.01739
0.01033
-0.00075
-0.00965
-0.01144
-0.00583
0.00292
0.00950
0.01123
0.00836
0.00204
-0.00605
-0.01229
-0.01235
-0.00578
0.00251
0.00701
0.00627
0.00174
-0.00503
-0.01158
-0.01338
-0.00724
0.00446
0.01476
0.01754
0.01187
0.00197
-0.00665
-0.01090
-0.01020
-0.00486
0.00343
0.01009
0.00999
0.00265
-0.00662
-0.01157
-0.00989
-0.00320
0.00534
0.01212
0.01366
0.00840
-0.00151
-0.01088
-0.01454
-0.01037
-0.00062
0.00902
0.01249
0.00747
-0.00266
-0.01119
-0.01317
-0.00833
0.00010
0.00788
0.01140
0.00923
0.00333
-0.00231
-0.00516
-0.00489
-0.00158
0.00413
0.00905
0.00906
0.00353
-0.00421
-0.01081
-0.01421
-0.01192
-0.00283
0.00830
0.01297
0.00770
-0.00230
-0.00917
-0.00919
-0.00351
0.00463
0.01158
0.01417
0.01081
0.00223
-0.00829
-0.01537
-0.01408
-0.00431
0.00755
0.01349
0.01064
0.00203
-0.00797
-0.01567
-0.01704
-0.01000
0.00160
0.01065
0.01380
0.01205
0.00617
-0.00275
-0.00957
-0.00815
0.00113
0.01132
0.01621
0.01415
0.00605
-0.00550
-0.01491
-0.01586
-0.00724
0.00427
0.00940
0.00440
-0.00669
-0.01720
-0.02324
-0.02328
-0.01602
-0.00229
0.01230
0.02047
0.01991
0.01499
0.01169
0.01291
0.01858
0.02651
0.03128
0.02590
0.00835
-0.01471
-0.03318
-0.04193
-0.04232
-0.03748
-0.02927
-0.01995
-0.01332
-0.01178
-0.01314
-0.01198
-0.00403
0.01086
0.02886
0.04443
0.05323
0.05352
0.04634
0.03582
0.02823
0.02764
0.03113
0.03012
0.01804
-0.00364
-0.02844
-0.05260
-0.07608
-0.09603
-0.10714
-0.11329
-0.12926
-0.15798
-0.17155
-0.13244
-0.03340
0.10046
0.24649
0.39205
0.49837
0.49406
0.34166
0.09804
-0.12600
-0.26545
-0.33530
-0.37277
-0.38267
-0.34864
-0.26749
-0.15410
-0.02835
0.08854
0.17511
0.21966
0.22688
0.20950
0.17658
0.13237
0.08241
0.03537
-0.00120
-0.02504
-0.03905
-0.04822
-0.05698
-0.06725
-0.07685
-0.08049
-0.07415
-0.05830
-0.03662
-0.01378
0.00500
0.01545
0.01792
0.01740
0.01840
0.02163
0.02605
0.03077
0.03373
0.03191
0.02446
0.01365
0.00252
-0.00645
-0.01067
-0.00866
-0.00296
0.00017
-0.00395
-0.01365
-0.02211
-0.02322
-0.01632
-0.00590
0.00240
0.00551
0.00369
-0.00099
-0.00567
-0.00695
-0.00270
0.00593
0.01494
0.02021
0.01905
0.01083
-0.00126
-0.01063
-0.01251
-0.00798
-0.00102
0.00574
0.00981
0.00735
-0.00243
-0.01347
-0.01757
-0.01206
-0.00093
0.00987
0.01548
0.01293
0.00321
-0.00760
-0.01246
-0.00935
-0.00174
0.00582
0.01028
0.00973
0.00364
-0.00547
-0.01235
-0.01224
-0.00468
0.00573
0.01253
0.01202
0.00534
-0.00308
-0.00899
-0.01054
-0.00767
-0.00105
0.00715
0.01261
0.01163
0.00487
-0.00319
-0.00856
-0.01006
-0.00762
-0.00116
0.00713
0.01132
0.00620
-0.00601
-0.01609
-0.01639
-0.00761
0.00373
0.01214
0.01553
0.01308
0.00523
-0.00427
-0.00974
-0.00845
-0.00242
0.00457
0.00947
0.00977
0.00419
-0.00519
-0.01312
-0.01466
-0.00857
0.00188
0.01063
0.01253
0.00701
-0.00169
-0.00850
-0.01074
-0.00781
-0.00034
0.00864
0.01402
0.01210
0.00361
-0.00680
-0.01329
-0.01217
-0.00440
0.00511
0.01055
0.00839
-0.00010
-0.00877
-0.01136
-0.00726
-0.00084
0.00435
0.00798
0.00984
0.00815
0.00247
-0.00366
-0.00508
-0.00025
0.00690
0.01102
0.01021
0.00554
-0.00221
-0.01200
-0.01973
-0.02044
-0.01390
-0.00570
-0.00177
-0.00327
-0.00671
-0.00792
-0.00506
0.00157
0.01144
0.02379
0.03567
0.04167
0.03734
0.02320
0.00491
-0.01031
-0.01797
-0.01890
-0.01820
-0.02097
-0.02826
-0.03704
-0.04286
-0.04170
-0.03140
-0.01375
0.00518
0.01876
0.02456
0.02518
0.02545
0.02922
0.03720
0.04665
0.05348
0.05520
0.05090
0.03956
0.02100
-0.00124
-0.02061
-0.03304
-0.04130
-0.05252
-0.07031
-0.09121
-0.11198
-0.13760
-0.17086
-0.19157
-0.16204
-0.06526
0.07493
0.22389
0.36571
0.47859
0.50416
0.38971
0.16486
-0.06527
-0.21894
-0.29981
-0.35059
-0.38260
-0.37522
-0.31625
-0.21361
-0.08264
0.05425
0.16472
0.22358
0.23162
0.20899
0.17482
0.13888
0.10476
0.07190
0.03709
-0.00024
-0.03571
-0.06422
-0.08279
-0.08896
-0.08203
-0.06741
-0.05384
-0.04459
-0.03613
-0.02621
-0.01705
-0.00880
0.00314
0.02050
0.03672
0.04350
0.03951
0.02944
0.01847
0.01069
0.00920
0.01316
0.01693
0.01509
0.00711
-0.00374
-0.01362
-0.01969
-0.02073
-0.01683
-0.00893
-0.00004
0.00411
-0.00069
-0.01117
-0.01832
-0.01618
-0.00656
0.00482
0.01326
0.01563
0.01082
0.00193
-0.00470
-0.00470
0.00097
0.00821
0.01325
0.01385
0.00920
0.00057
-0.00868
-0.01442
-0.01372
-0.00671
0.00255
0.00811
0.00677
0.00051
-0.00607
-0.00987
-0.01007
-0.00616
0.00201
0.01165
0.01661
0.01243
0.00157
-0.00850
-0.01240
-0.01016
-0.00427
0.00317
0.00941
0.01051
0.00469
-0.00459
-0.01089
-0.01001
-0.00272
0.00643
0.01210
0.01097
0.00357
-0.00604
-0.01239
-0.01144
-0.00332
0.00719
0.01367
0.01276
0.00563
-0.00414
-0.01274
-0.01643
-0.01268
-0.00269
0.00792
0.01301
0.01048
0.00278
-0.00568
-0.01069
-0.00944
-0.00202
0.00790
0.01473
0.01433
0.00694
-0.00305
-0.01071
-0.01339
-0.01033
-0.00216
0.00733
0.01199
0.00863
0.00007
-0.00812
-0.01179
-0.00934
-0.00186
0.00658
0.01110
0.00940
0.00276
-0.00527
-0.01044
-0.00947
-0.00224
0.00751
0.01417
0.01372
0.00572
-0.00651
-0.01681
-0.01909
-0.01185
0.00013
0.00968
0.01246
0.00859
0.00135
-0.00487
-0.00705
-0.00453
0.00215
0.01121
0.01794
0.01659
0.00648
-0.00608
-0.01356
-0.01325
-0.00729
0.00009
0.00431
0.00214
-0.00620
-0.01678
-0.02433
-0.02443
-0.01509
0.00103
0.01647
0.02418
0.02354
0.01956
0.01688
0.01687
0.01912
0.02204
0.02192
0.01461
-0.00077
-0.02038
-0.03763
-0.04672
-0.04580
-0.03765
-0.02698
-0.01705
-0.00903
-0.00375
-0.00160
-0.00007
0.00594
0.01904
0.03571
0.04922
0.05520
0.05328
0.04541
0.03471
0.02520
0.01987
0.01794
0.01451
0.00389
-0.01659
-0.04514
-0.07577
-0.10011
-0.11328
-0.12081
-0.13476
-0.15559
-0.16103
-0.12240
-0.03092
0.09998
0.25118
0.39751
0.49119
0.47329
0.32446
0.09833
-0.11430
-0.25744
-0.33651
-0.37798
-0.38534
-0.34455
-0.25506
-0.13766
-0.01797
0.08547
0.16087
0.20287
0.21424
0.20311
0.17700
0.14014
0.09557
0.04806
0.00447
-0.02890
-0.04964
-0.05990
-0.06410
-0.06600
-0.06759
-0.06878
-0.06717
-0.05909
-0.04300
-0.02177
-0.00076
0.01563
0.02489
0.02617
0.02177
0.01740
0.01833
0.02460
0.03128
0.03300
0.02774
0.01713
0.00462
-0.00622
-0.01231
-0.01202
-0.00671
-0.00062
0.00173
-0.00206
-0.01141
-0.02201
-0.02688
-0.02152
-0.00879
0.00352
0.00996
0.01018
0.00589
-0.00072
-0.00566
-0.00447
0.00320
0.01246
0.01781
0.01709
0.01076
0.00057
-0.00947
-0.01380
-0.00975
-0.00071
0.00679
0.00831
0.00351
-0.00478
-0.01194
-0.01358
-0.00838
0.00062
0.00840
0.01168
0.01020
0.00494
-0.00293
-0.01051
-0.01302
-0.00778
0.00236
0.01127
0.01435
0.01027
0.00047
-0.01033
-0.01536
-0.01103
-0.00055
0.00910
0.01287
0.00963
0.00114
-0.00840
-0.01319
-0.00934
0.00134
0.01215
0.01634
0.01160
0.00112
-0.00911
-0.01422
-0.01281
-0.00639
0.00196
0.00837
0.00937
0.00396
-0.00500
-0.01196
-0.01214
-0.00491
0.00579
0.01429
0.01661
0.01189
0.00226
-0.00784
-0.01319
-0.01062
-0.00155
0.00819
0.01250
0.00939
0.00150
-0.00732
-0.01422
-0.01641
-0.01128
-0.00005
0.01050
0.01346
0.00832
0.00028
-0.00569
-0.00754
-0.00471
0.00206
0.00944
0.01291
0.01010
0.00218
-0.00697
-0.01232
-0.01057
-0.00305
0.00497
0.00850
0.00579
-0.00168
-0.00996
-0.01424
-0.01191
-0.00437
0.00472
0.01171
0.01369
0.00949
0.00143
-0.00540
-0.00681
-0.00226
0.00572
0.01329
0.01625
0.01158
0.00035
-0.01151
-0.01742
-0.01532
-0.00797
0.00027
0.00506
0.00236
-0.00843
-0.02113
-0.02590
-0.01822
-0.00288
0.01203
0.02248
0.02859
0.03067
0.02846
0.02308
0.01694
0.01178
0.00751
0.00233
-0.00645
-0.02003
-0.03556
-0.04673
-0.04824
-0.03983
-0.02604
-0.01235
-0.00192
0.00460
0.00767
0.00874
0.01115
0.01895
0.03286
0.04812
0.05751
0.05708
0.04843
0.03581
0.02239
0.00977
-0.00044
-0.00731
-0.01347
-0.02527
-0.04731
-0.07611
-0.10190
-0.11974
-0.13586
-0.15568
-0.16523
-0.13586
-0.05366
0.06566
0.19730
0.32730
0.43540
0.47293
0.39124
0.20039
-0.02378
-0.20445
-0.31970
-0.38588
-0.40955
-0.37882
-0.29071
-0.16494
-0.03162
0.08266
0.16053
0.19781
0.20351
0.19110
0.16911
0.14006
0.10477
0.06494
0.02346
-0.01552
-0.04678
-0.06577
-0.07165
-0.06851
-0.06239
-0.05727
-0.05416
-0.05191
-0.04739
-0.03677
-0.01910
0.00190
0.02044
0.03200
0.03473
0.02982
0.02186
0.01665
0.01721
0.02192
0.02647
0.02656
0.01983
0.00725
-0.00676
-0.01687
-0.01998
-0.01655
-0.00979
-0.00386
-0.00201
-0.00499
-0.01092
-0.01642
-0.01797
-0.01318
-0.00247
0.00984
0.01719
0.01556
0.00691
-0.00240
-0.00675
-0.00478
0.00149
0.00916
0.01481
0.01440
0.00615
-0.00598
-0.01437
-0.01421
-0.00700
0.00211
0.00857
0.00989
0.00536
-0.00327
-0.01095
-0.01207
-0.00580
0.00282
0.00823
0.00924
0.00741
0.00310
-0.00397
-0.01131
-0.01375
-0.00796
0.00353
0.01321
0.01417
0.00584
-0.00548
-0.01200
-0.01024
-0.00224
0.00711
0.01325
0.01345
0.00721
-0.00327
-0.01296
-0.01593
-0.00965
0.00199
0.01137
0.01327
0.00777
-0.00175
-0.01098
-0.01532
-0.01182
-0.00223
0.00744
0.01190
0.01014
0.00428
-0.00287
-0.00805
-0.00792
-0.00168
0.00715
0.01284
0.01178
0.00450
-0.00525
-0.01266
-0.01398
-0.00848
0.00077
0.00833
0.00983
0.00503
-0.00236
-0.00804
-0.00998
-0.00784
-0.00153
0.00750
0.01449
0.01402
0.00558
-0.00516
-0.01163
-0.01122
-0.00524
0.00338
0.01088
0.01333
0.00873
-0.00120
-0.01145
-0.01606
-0.01168
-0.00076
0.00927
0.01171
0.00579
-0.00383
-0.01183
-0.01509
-0.01214
-0.00275
0.00996
0.01899
0.01863
0.01027
0.00088
-0.00422
-0.00460
-0.00138
0.00474
0.01084
0.01133
0.00305
-0.01041
-0.02122
-0.02358
-0.01723
-0.00666
0.00195
0.00436
0.00060
-0.00577
-0.01027
-0.00964
-0.00269
0.00934
0.02280
0.03302
0.03647
0.03222
0.02193
0.00881
-0.00313
-0.01052
-0.01322
-0.01540
-0.02182
-0.03221
-0.04115
-0.04378
-0.03943
-0.02917
-0.01352
0.00502
0.02033
0.02714
0.02648
0.02432
0.02563
0.03148
0.04052
0.04988
0.05474
0.05013
0.03507
0.01431
-0.00521
-0.01935
-0.02864
-0.03686
-0.04835
-0.06483
-0.08435
-0.10548
-0.13080
-0.15859
-0.17018
-0.13726
-0.05010
0.07108
0.20012
0.32471
0.42589
0.45497
0.36626
0.17725
-0.03193
-0.19093
-0.29089
-0.35562
-0.38868
-0.37110
-0.29537
-0.17842
-0.04656
0.07555
0.16553
0.20963
0.21171
0.18874
0.15637
0.12224
0.08928
0.05876
0.02963
-0.00022
-0.03030
-0.05656
-0.07419
-0.08042
-0.07526
-0.06197
-0.04708
-0.03725
-0.03389
-0.03188
-0.02499
-0.01155
0.00559
0.02242
0.03544
0.04141
0.03850
0.02870
0.01789
0.01182
0.01167
0.01413
0.01546
0.01370
0.00758
-0.00333
-0.01601
-0.02406
-0.02283
-0.01394
-0.00388
0.00146
0.00023
-0.00588
-0.01323
-0.01701
-0.01346
-0.00334
0.00777
0.01439
0.01513
0.01147
0.00515
-0.00139
-0.00450
-0.00200
0.00410
0.00939
0.01084
0.00767
0.00053
-0.00824
-0.01419
-0.01335
-0.00589
0.00362
0.00969
0.00953
0.00390
-0.00413
-0.01043
-0.01120
-0.00531
0.00396
0.01061
0.01056
0.00444
-0.00385
-0.01020
-0.01179
-0.00728
0.00220
0.01212
0.01636
0.01164
0.00059
-0.01001
-0.01430
-0.01087
-0.00242
0.00672
0.01262
0.01256
0.00591
-0.00444
-0.01248
-0.01305
-0.00640
0.00225
0.00783
0.00860
0.00504
-0.00164
-0.00852
-0.01109
-0.00672
0.00218
0.00989
0.01207
0.00837
0.00142
-0.00553
-0.00966
-0.00873
-0.00236
0.00624
0.01152
0.01004
0.00297
-0.00601
-0.01304
-0.01425
-0.00737
0.00432
0.01265
0.01192
0.00415
-0.00458
-0.01038
-0.01201
-0.00812
0.00173
0.01349
0.01958
0.01542
0.00382
-0.00784
-0.01353
-0.01158
-0.00425
0.00369
0.00760
0.00576
-0.00032
-0.00761
-0.01268
-0.01262
-0.00703
0.00107
0.00754
0.00987
0.00756
0.00183
-0.00404
-0.00589
-0.00157
0.00735
0.01655
0.02095
0.01707
0.00576
-0.00741
-0.01562
-0.01562
-0.00967
-0.00312
-0.00028
-0.00211
-0.00743
-0.01496
-0.02243
-0.02463
-0.01638
0.00074
0.01745
0.02505
0.02335
0.01884
0.01712
0.01914
0.02323
0.02683
0.02619
0.01737
-0.00008
-0.02128
-0.03880
-0.04750
-0.04715
-0.04096
-0.03202
-0.02160
-0.01126
-0.00424
-0.00223
-0.00145
0.00477
0.01894
0.03683
0.05150
0.05814
0.05585
0.04707
0.03584
0.02575
0.01898
0.01572
0.01262
0.00322
-0.01690
-0.04499
-0.07313
-0.09449
-0.10652
-0.11201
-0.11934
-0.13478
-0.14770
-0.13032
-0.06162
0.05422
0.19830
0.34867
0.46561
0.48592
0.36884
0.15084
-0.07191
-0.22515
-0.30511
-0.34532
-0.36156
-0.34388
-0.28386
-0.18873
-0.07445
0.04036
0.13566
0.19666
0.22146
0.21814
0.19503
0.15670
0.10785
0.05671
0.01256
-0.01945
-0.04020
-0.05350
-0.06220
-0.06771
-0.07177
-0.07563
-0.07656
-0.06859
-0.04913
-0.02333
0.00021
0.01615
0.02361
0.02388
0.02029
0.01818
0.02147
0.02915
0.03651
0.03863
0.03247
0.01829
0.00082
-0.01257
-0.01693
-0.01302
-0.00574
-0.00040
-0.00038
-0.00602
-0.01452
-0.02126
-0.02221
-0.01609
-0.00534
0.00498
0.01049
0.01014
0.00559
-0.00074
-0.00590
-0.00627
0.00000
0.01013
0.01781
0.01790
0.00995
-0.00192
-0.01144
-0.01352
-0.00744
0.00247
0.00976
0.01035
0.00438
-0.00505
-0.01350
-0.01632
-0.01098
0.00014
0.01060
0.01463
0.01063
0.00130
-0.00806
-0.01215
-0.00909
-0.00144
0.00668
0.01209
0.01207
0.00509
-0.00585
-0.01357
-0.01297
-0.00552
0.00359
0.01038
0.01254
0.00836
-0.00124
-0.01076
-0.01334
-0.00687
0.00400
0.01207
0.01312
0.00783
-0.00028
-0.00776
-0.01229
-0.01198
-0.00581
0.00402
0.01174
0.01212
0.00497
-0.00545
-0.01387
-0.01603
-0.00983
0.00245
0.01392
0.01788
0.01295
0.00277
-0.00760
-0.01349
-0.01122
-0.00089
0.01134
0.01681
0.01178
0.00037
-0.01016
-0.01529
-0.01423
-0.00793
0.00127
0.00900
0.01068
0.00517
-0.00383
-0.01024
-0.00981
-0.00284
0.00664
0.01387
0.01548
0.01011
-0.00052
-0.01080
-0.01421
-0.00886
0.00090
0.00876
0.01084
0.00634
-0.00327
-0.01360
-0.01823
-0.01321
-0.00127
0.01002
0.01483
0.01267
0.00580
-0.00350
-0.01158
-0.01292
-0.00483
0.00840
0.01865
0.02079
0.01515
0.00503
-0.00551
-0.01230
-0.01272
-0.00820
-0.00358
-0.00281
-0.00626
-0.01236
-0.01932
-0.02352
-0.01942
-0.00502
0.01366
0.02665
0.02856
0.02219
0.01472
0.01184
0.01451
0.01944
0.02184
0.01819
0.00759
-0.00818
-0.02501
-0.03812
-0.04432
-0.04304
-0.03548
-0.02408
-0.01274
-0.00554
-0.00375
-0.00411
-0.00116
0.00824
0.02260
0.03753
0.04901
0.05461
0.05331
0.04569
0.03467
0.02479
0.01957
0.01810
0.01426
0.00106
-0.02291
-0.05224
-0.07948
-0.09945
-0.11119
-0.12027
-0.13571
-0.15581
-0.15827
-0.11540
-0.02066
0.10910
0.25440
0.39574
0.49049
0.47572
0.32384
0.08878
-0.12953
-0.26974
-0.34098
-0.37512
-0.37745
-0.33496
-0.24895
-0.13893
-0.02465
0.08022
0.16212
0.20951
0.22142
0.20719
0.17713
0.13700
0.09050
0.04304
0.00137
-0.02915
-0.04693
-0.05481
-0.05850
-0.06317
-0.06978
-0.07442
-0.07186
-0.06002
-0.04089
-0.01841
0.00251
0.01639
0.02029
0.01725
0.01426
0.01627
0.02302
0.03127
0.03745
0.03814
0.03093
0.01699
0.00168
-0.00895
-0.01249
-0.01053
-0.00606
-0.00188
-0.00102
-0.00605
-0.01607
-0.02549
-0.02763
-0.01993
-0.00560
0.00868
0.01621
0.01393
0.00468
-0.00457
-0.00793
-0.00395
0.00485
0.01374
0.01778
0.01458
0.00582
-0.00437
-0.01183
-0.01328
-0.00746
0.00266
0.01076
0.01190
0.00580
-0.00421
-0.01318
-0.01593
-0.00997
0.00126
0.01036
0.01220
0.00706
-0.00166
-0.00987
-0.01312
-0.00845
0.00203
0.01164
0.01468
0.01065
0.00278
-0.00539
-0.01107
-0.01186
-0.00681
0.00198
0.00958
0.01097
0.00476
-0.00496
-0.01111
-0.00943
-0.00174
0.00685
0.01266
0.01392
0.00907
-0.00164
-0.01295
-0.01717
-0.01143
-0.00069
0.00761
0.00982
0.00648
-0.00047
-0.00816
-0.01241
-0.01002
-0.00187
0.00767
0.01403
0.01458
0.00901
-0.00024
-0.00832
-0.01083
-0.00675
0.00147
0.00958
0.01295
0.00852
-0.00222
-0.01313
-0.01764
-0.01346
-0.00367
0.00601
0.01104
0.01004
0.00402
-0.00457
-0.01127
-0.01093
-0.00250
0.00862
0.01509
0.01372
0.00646
-0.00262
-0.00965
-0.01169
-0.00736
0.00188
0.01127
0.01480
0.00950
-0.00172
-0.01218
-0.01658
-0.01397
-0.00663
0.00204
0.00805
0.00798
0.00188
-0.00585
-0.00992
-0.00781
-0.00019
0.00986
0.01725
0.01727
0.00968
-0.00055
-0.00729
-0.00726
-0.00093
0.00807
0.01422
0.01279
0.00290
-0.01159
-0.02410
-0.02931
-0.02598
-0.01675
-0.00566
0.00363
0.00848
0.00827
0.00501
0.00226
0.00341
0.01018
0.02094
0.03026
0.03225
0.02526
0.01241
-0.00149
-0.01196
-0.01565
-0.01302
-0.00957
-0.01148
-0.01999
-0.03102
-0.03890
-0.03940
-0.03131
-0.01714
-0.00158
0.01146
0.01990
0.02287
0.02168
0.02109
0.02649
0.03832
0.05086
0.05707
0.05329
0.04011
0.02143
0.00298
-0.01066
-0.01886
-0.02489
-0.03391
-0.05011
-0.07349
-0.09935
-0.12395
-0.14803
-0.16817
-0.16591
-0.11777
-0.01998
0.10759
0.24400
0.37422
0.46468
0.45875
0.32731
0.11569
-0.08732
-0.22795
-0.31497
-0.37338
-0.39959
-0.37217
-0.28532
-0.15723
-0.01694
0.10557
0.18639
0.21801
0.21252
0.18945
0.16120
0.13063
0.09694
0.05993
0.02069
-0.01792
-0.05099
-0.07328
-0.08204
-0.07870
-0.06806
-0.05581
-0.04659
-0.04251
-0.04131
-0.03678
-0.02375
-0.00354
0.01736
0.03282
0.04001
0.03888
0.03189
0.02384
0.01917
0.01889
0.02075
0.02136
0.01778
0.00884
-0.00391
-0.01674
-0.02554
-0.02711
-0.02021
-0.00765
0.00340
0.00605
-0.00048
-0.01073
-0.01783
-0.01751
-0.00913
0.00397
0.01512
0.01826
0.01251
0.00225
-0.00674
-0.01018
-0.00573
0.00557
0.01743
0.02129
0.01400
0.00099
-0.00989
-0.01527
-0.01531
-0.00976
0.00073
0.01106
0.01395
0.00681
-0.00548
-0.01491
-0.01648
-0.01026
0.00036
0.01073
0.01587
0.01256
0.00229
-0.00886
-0.01460
-0.01230
-0.00320
0.00866
0.01707
0.01668
0.00756
-0.00442
-0.01259
-0.01350
-0.00732
0.00269
0.01065
0.01102
0.00311
-0.00774
-0.01430
-0.01283
-0.00480
0.00554
0.01391
0.01676
0.01192
0.00060
-0.01146
-0.01719
-0.01367
-0.00406
0.00587
0.01156
0.01061
0.00334
-0.00599
-0.01100
-0.00836
-0.00032
0.00841
0.01411
0.01422
0.00750
-0.00394
-0.01424
-0.01727
-0.01113
0.00027
0.00989
0.01251
0.00789
-0.00042
-0.00834
-0.01245
-0.00995
-0.00085
0.00987
0.01503
0.01108
0.00057
-0.01051
-0.01614
-0.01283
-0.00211
0.00962
0.01600
0.01534
0.00935
-0.00017
-0.01050
-0.01616
-0.01232
-0.00037
0.01211
0.01703
0.01098
-0.00288
-0.01627
-0.02096
-0.01485
-0.00296
0.00790
0.01380
0.01310
0.00529
-0.00631
-0.01389
-0.01147
-0.00113
0.00995
0.01676
0.01786
0.01241
0.00131
-0.00981
-0.01355
-0.00763
0.00320
0.01166
0.01255
0.00464
-0.00877
-0.02111
-0.02618
-0.02152
-0.00943
0.00407
0.01197
0.01034
0.00157
-0.00697
-0.00832
-0.00052
0.01297
0.02560
0.03073
0.02536
0.01263
-0.00014
-0.00718
-0.00772
-0.00434
0.00015
0.00324
0.00164
-0.00756
-0.02299
-0.03736
-0.04210
-0.03475
-0.02064
-0.00721
0.00174
0.00606
0.00682
0.00629
0.00859
0.01727
0.03186
0.04772
0.05880
0.06007
0.05001
0.03276
0.01607
0.00513
-0.00106
-0.00687
-0.01584
-0.03019
-0.05111
-0.07640
-0.10020
-0.11913
-0.13680
-0.15528
-0.16160
-0.13202
-0.05442
0.06145
0.19805
0.33873
0.45097
0.47907
0.38232
0.18436
-0.03423
-0.20162
-0.30352
-0.36353
-0.39311
-0.37825
-0.30716
-0.19180
-0.06019
0.06016
0.14953
0.19899
0.21303
0.20495
0.18570
0.15790
0.12034
0.07478
0.02714
-0.01593
-0.04972
-0.07144
-0.07968
-0.07591
-0.06628
-0.05883
-0.05695
-0.05672
-0.05167
-0.03867
-0.01901
0.00339
0.02323
0.03540
0.03764
0.03198
0.02340
0.01717
0.01657
0.02112
0.02650
0.02742
0.02119
0.00875
-0.00640
-0.01916
-0.02410
-0.01880
-0.00709
0.00243
0.00300
-0.00506
-0.01582
-0.02310
-0.02335
-0.01558
-0.00206
0.01151
0.01896
0.01760
0.00926
-0.00087
-0.00633
-0.00354
0.00488
0.01239
0.01437
0.01021
0.00130
-0.00941
-0.01640
-0.01462
-0.00476
0.00678
0.01354
0.01298
0.00577
-0.00532
-0.01508
-0.01773
-0.01116
0.00102
0.01206
0.01620
0.01149
0.00087
-0.00955
-0.01470
-0.01299
-0.00507
0.00673
0.01663
0.01734
0.00721
-0.00667
-0.01478
-0.01316
-0.00426
0.00656
0.01359
0.01291
0.00516
-0.00478
-0.01183
-0.01342
-0.00880
0.00090
0.01097
0.01480
0.00949
-0.00137
-0.01113
-0.01493
-0.01122
-0.00166
0.00907
0.01481
0.01188
0.00187
-0.00952
-0.01599
-0.01357
-0.00298
0.00979
0.01730
0.01625
0.00856
-0.00210
-0.01193
-0.01629
-0.01188
-0.00066
0.01050
0.01519
0.01151
0.00201
-0.00850
-0.01507
-0.01432
-0.00607
0.00557
0.01343
0.01203
0.00209
-0.00981
-0.01628
-0.01352
-0.00263
0.01118
0.02068
0.02040
0.01052
-0.00319
-0.01357
-0.01641
-0.01130
-0.00052
0.01106
0.01665
0.01186
-0.00056
-0.01236
-0.01727
-0.01487
-0.00772
0.00165
0.00952
0.01070
0.00327
-0.00761
-0.01336
-0.00964
0.00096
0.01257
0.02025
0.02108
0.01428
0.00222
-0.00939
-0.01416
-0.00952
0.00113
0.01076
0.01331
0.00669
-0.00667
-0.02068
-0.02809
-0.02465
-0.01218
0.00253
0.01180
0.01137
0.00303
-0.00605
-0.00864
-0.00299
0.00737
0.01810
0.02601
0.02789
0.02166
0.00984
-0.00093
-0.00531
-0.00308
0.00190
0.00437
0.00024
-0.01076
-0.02456
-0.03596
-0.04135
-0.03832
-0.02624
-0.00915
0.00497
0.01039
0.00807
0.00349
0.00238
0.00853
0.02206
0.03849
0.05113
0.05529
0.04992
0.03750
0.02374
0.01476
0.01182
0.00989
0.00260
-0.01307
-0.03671
-0.06549
-0.09364
-0.11465
-0.12822
-0.14167
-0.15707
-0.15782
-0.11786
-0.02704
0.10111
0.24563
0.38458
0.47876
0.47227
0.33729
0.11655
-0.10107
-0.25352
-0.34053
-0.38666
-0.39528
-0.35302
-0.26063
-0.13971
-0.01594
0.09104
0.16702
0.20574
0.21280
0.20051
0.17726
0.14420
0.10095
0.05152
0.00407
-0.03331
-0.05649
-0.06643
-0.06755
-0.06491
-0.06251
-0.06225
-0.06264
-0.05901
-0.04748
-0.02859
-0.00649
0.01393
0.02792
0.03200
0.02716
0.01982
0.01717
0.02132
0.02847
0.03310
0.03188
0.02416
0.01088
-0.00481
-0.01720
-0.02114
-0.01627
-0.00744
-0.00087
-0.00020
-0.00544
-0.01371
-0.02057
-0.02163
-0.01494
-0.00285
0.00905
0.01522
0.01311
0.00454
-0.00451
-0.00743
-0.00246
0.00623
0.01347
0.01687
0.01520
0.00698
-0.00585
-0.01580
-0.01577
-0.00659
0.00434
0.01103
0.01200
0.00664
-0.00504
-0.01751
-0.02107
-0.01201
0.00254
0.01289
0.01549
0.01145
0.00226
-0.00859
-0.01433
-0.01037
0.00045
0.01085
0.01547
0.01267
0.00361
-0.00744
-0.01436
-0.01342
-0.00598
0.00335
0.01004
0.01117
0.00608
-0.00297
-0.01096
-0.01268
-0.00668
0.00352
0.01249
0.01644
0.01352
0.00352
-0.01022
-0.02004
-0.01891
-0.00713
0.00740
0.01583
0.01468
0.00627
-0.00456
-0.01314
-0.01557
-0.00946
0.00324
0.01505
0.01773
0.00970
-0.00264
-0.01137
-0.01293
-0.00772
0.00215
0.01243
0.01665
0.01047
-0.00325
-0.01555
-0.01879
-0.01263
-0.00228
0.00726
0.01351
0.01430
0.00782
-0.00382
-0.01372
-0.01526
-0.00785
0.00350
0.01284
0.01598
0.01100
-0.00050
-0.01205
-0.01582
-0.00915
0.00311
0.01300
0.01534
0.00988
-0.00024
-0.01069
-0.01687
-0.01503
-0.00509
0.00765
0.01547
0.01396
0.00447
-0.00767
-0.01607
-0.01619
-0.00831
0.00264
0.01110
0.01401
0.01043
0.00165
-0.00714
-0.00890
-0.00150
0.00968
0.01739
0.01841
0.01267
0.00091
-0.01319
-0.02205
-0.02022
-0.01041
-0.00085
0.00250
-0.00080
-0.00808
-0.01587
-0.01980
-0.01544
-0.00160
0.01702
0.03137
0.03378
0.02396
0.00952
-0.00047
-0.00234
0.00203
0.00929
0.01587
0.01691
0.00848
-0.00812
-0.02593
-0.03691
-0.03720
-0.02889
-0.01764
-0.00883
-0.00550
-0.00826
-0.01462
-0.01840
-0.01291
0.00291
0.02266
0.03799
0.04509
0.04504
0.04048
0.03448
0.03096
0.03264
0.03757
0.03886
0.02955
0.00871
-0.01815
-0.04507
-0.06978
-0.09015
-0.10158
-0.10452
-0.11171
-0.13645
-0.16824
-0.16971
-0.10860
0.01159
0.16203
0.31814
0.45571
0.52347
0.45978
0.26027
0.00663
-0.19885
-0.31654
-0.37080
-0.38984
-0.37541
-0.32188
-0.23275
-0.11655
0.01284
0.13004
0.20845
0.23977
0.23493
0.20725
0.16355
0.11036
0.05838
0.01702
-0.01105
-0.02844
-0.03985
-0.05063
-0.06420
-0.07881
-0.08821
-0.08625
-0.07099
-0.04603
-0.01920
0.00122
0.01117
0.01238
0.01026
0.01056
0.01680
0.02819
0.03932
0.04361
0.03823
0.02581
0.01169
0.00034
-0.00577
-0.00576
-0.00105
0.00375
0.00301
-0.00540
-0.01808
-0.02860
-0.03131
-0.02379
-0.00842
0.00744
0.01523
0.01176
0.00166
-0.00736
-0.01057
-0.00718
0.00171
0.01292
0.02045
0.01875
0.00806
-0.00511
-0.01330
-0.01316
-0.00588
0.00482
0.01390
0.01633
0.00986
-0.00263
-0.01440
-0.01908
-0.01454
-0.00353
0.00819
0.01464
0.01230
0.00234
-0.00920
-0.01497
-0.01158
-0.00193
0.00761
0.01212
0.01049
0.00432
-0.00400
-0.01143
-0.01363
-0.00721
0.00554
0.01619
0.01712
0.00840
-0.00367
-0.01288
-0.01559
-0.00985
0.00277
0.01494
0.01805
0.01017
-0.00289
-0.01399
-0.01886
-0.01521
-0.00362
0.00977
0.01629
0.01271
0.00313
-0.00676
-0.01362
-0.01463
-0.00719
0.00654
0.01815
0.01939
0.00961
-0.00455
-0.01516
-0.01754
-0.01106
0.00123
0.01331
0.01865
0.01392
0.00141
-0.01197
-0.01875
-0.01546
-0.00444
0.00796
0.01529
0.01435
0.00639
-0.00424
-0.01257
-0.01476
-0.00908
0.00226
0.01220
0.01326
0.00483
-0.00591
-0.01154
-0.01026
-0.00403
0.00484
0.01312
0.01633
0.01176
0.00091
-0.01149
-0.01948
-0.01814
-0.00715
0.00756
0.01768
0.01860
0.01142
0.00060
-0.00906
-0.01399
-0.01229
-0.00439
0.00599
0.01211
0.00837
-0.00408
-0.01675
-0.02059
-0.01352
-0.00090
0.01041
0.01672
0.01668
0.00991
-0.00070
-0.00781
-0.00501
0.00653
0.01865
0.02330
0.01784
0.00469
-0.01115
-0.02389
-0.02901
-0.02561
-0.01657
-0.00657
-0.00013
-0.00022
-0.00600
-0.01187
-0.01072
0.00031
0.01725
0.03208
0.03783
0.03173
0.01627
-0.00120
-0.01150
-0.00940
0.00194
0.01323
0.01610
0.00827
-0.00672
-0.02248
-0.03303
-0.03508
-0.02891
-0.01787
-0.00715
-0.00210
-0.00504
-0.01256
-0.01748
-0.01446
-0.00295
0.01439
0.03289
0.04582
0.04788
0.04059
0.03152
0.02725
0.02880
0.03293
0.03497
0.03029
0.01589
-0.00758
-0.03510
-0.05977
-0.07726
-0.08735
-0.09263
-0.09945
-0.11815
-0.15088
-0.17485
-0.15060
-0.05720
0.08823
0.25130
0.40267
0.50460
0.49910
0.35074
0.10554
-0.12779
-0.27212
-0.33604
-0.36628
-0.37732
-0.34970
-0.27362
-0.16440
-0.04338
0.07347
0.16941
0.22751
0.24194
0.22140
0.17981
0.12863
0.07722
0.03404
0.00395
-0.01465
-0.02810
-0.04251
-0.05943
-0.07573
-0.08672
-0.08877
-0.07980
-0.06012
-0.03413
-0.00980
0.00607
0.01240
0.01341
0.01446
0.01889
0.02731
0.03737
0.04405
0.04236
0.03127
0.01490
-0.00033
-0.00939
-0.01057
-0.00563
0.00085
0.00354
-0.00065
-0.01051
-0.02109
-0.02677
-0.02439
-0.01445
-0.00075
0.01066
0.01413
0.00826
-0.00268
-0.01139
-0.01181
-0.00277
0.01056
0.01983
0.01988
0.01184
0.00054
-0.00907
-0.01328
-0.01020
-0.00095
0.00965
0.01480
0.01029
-0.00137
-0.01266
-0.01758
-0.01515
-0.00683
0.00521
0.01582
0.01781
0.00894
-0.00459
-0.01402
-0.01496
-0.00786
0.00392
0.01421
0.01644
0.00878
-0.00414
-0.01494
-0.01769
-0.01063
0.00213
0.01276
0.01588
0.01119
0.00099
-0.01072
-0.01700
-0.01238
0.00006
0.01113
0.01551
0.01428
0.00857
-0.00200
-0.01372
-0.01859
-0.01239
0.00071
0.01248
0.01648
0.01052
-0.00224
-0.01400
-0.01756
-0.01181
-0.00119
0.00881
0.01389
0.01111
0.00111
-0.00981
-0.01362
-0.00777
0.00325
0.01331
0.01856
0.01691
0.00765
-0.00621
-0.01763
-0.02001
-0.01245
-0.00030
0.00958
0.01340
0.01063
0.00215
-0.00922
-0.01727
-0.01559
-0.00401
0.00970
0.01647
0.01352
0.00461
-0.00526
-0.01252
-0.01382
-0.00694
0.00544
0.01569
0.01755
0.01086
-0.00028
-0.01094
-0.01580
-0.01089
0.00144
0.01235
0.01442
0.00779
-0.00265
-0.01243
-0.01778
-0.01536
-0.00546
0.00642
0.01381
0.01346
0.00539
-0.00731
-0.01751
-0.01744
-0.00591
0.00972
0.02009
0.02093
0.01400
0.00396
-0.00423
-0.00660
-0.00177
0.00729
0.01359
0.01101
-0.00050
-0.01515
-0.02648
-0.03087
-0.02701
-0.01546
-0.00035
0.01098
0.01292
0.00678
-0.00035
-0.00211
0.00290
0.01226
0.02193
0.02728
0.02505
0.01608
0.00514
-0.00262
-0.00485
-0.00281
-0.00018
-0.00073
-0.00618
-0.01542
-0.02573
-0.03431
-0.03844
-0.03516
-0.02315
-0.00621
0.00710
0.01054
0.00647
0.00292
0.00551
0.01454
0.02788
0.04255
0.05391
0.05686
0.04931
0.03435
0.01906
0.00989
0.00730
0.00516
-0.00314
-0.01942
-0.04247
-0.07068
-0.09913
-0.12001
-0.13242
-0.14535
-0.15982
-0.15402
-0.10145
-0.00081
0.12838
0.27285
0.41850
0.51412
0.48406
0.30623
0.05552
-0.15955
-0.29128
-0.36209
-0.39983
-0.39996
-0.34833
-0.24893
-0.12118
0.01088
0.12156
0.19127
0.21863
0.21784
0.20230
0.17605
0.13904
0.09305
0.04251
-0.00532
-0.04181
-0.06222
-0.06910
-0.06875
-0.06616
-0.06431
-0.06461
-0.06532
-0.06139
-0.04845
-0.02690
-0.00180
0.02022
0.03373
0.03632
0.03001
0.02096
0.01615
0.01869
0.02605
0.03245
0.03276
0.02470
0.00938
-0.00843
-0.02119
-0.02267
-0.01349
-0.00177
0.00371
0.00062
-0.00782
-0.01766
-0.02490
-0.02448
-0.01440
0.00037
0.01213
0.01704
0.01493
0.00657
-0.00469
-0.01163
-0.00856
0.00272
0.01454
0.02014
0.01731
0.00765
-0.00463
-0.01367
-0.01477
-0.00795
0.00203
0.00947
0.01096
0.00578
-0.00425
-0.01400
-0.01663
-0.00923
0.00323
0.01196
0.01261
0.00732
-0.00041
-0.00856
-0.01405
-0.01227
-0.00209
0.01087
0.01793
0.01426
0.00249
-0.00972
-0.01567
-0.01334
-0.00450
0.00712
0.01594
0.01642
0.00757
-0.00517
-0.01387
-0.01402
-0.00668
0.00351
0.01162
0.01419
0.00950
-0.00124
-0.01261
-0.01754
-0.01297
-0.00235
0.00803
0.01339
0.01156
0.00305
-0.00797
-0.01502
-0.01375
-0.00482
0.00702
0.01568
0.01664
0.00996
0.00049
-0.00644
-0.00879
-0.00686
-0.00129
0.00575
0.00970
0.00701
-0.00152
-0.01154
-0.01778
-0.01569
-0.00463
0.00936
0.01709
0.01442
0.00506
-0.00453
-0.01028
-0.01064
-0.00560
0.00273
0.00998
0.01167
0.00659
-0.00198
-0.00876
-0.01040
-0.00670
0.00063
0.00858
0.01279
0.00993
0.00112
-0.00836
-0.01301
-0.01063
-0.00285
0.00627
0.01208
0.01124
0.00339
-0.00789
-0.01620
-0.01600
-0.00689
0.00542
0.01330
0.01276
0.00518
-0.00479
-0.01179
-0.01163
-0.00351
0.00866
0.01839
0.02081
0.01518
0.00464
-0.00582
-0.01183
-0.01148
-0.00584
0.00142
0.00498
0.00066
-0.01074
-0.02267
-0.02757
-0.02269
-0.01067
0.00411
0.01745
0.02475
0.02242
0.01206
0.00136
-0.00132
0.00646
0.01979
0.03028
0.03134
0.02121
0.00302
-0.01694
-0.03150
-0.03568
-0.02983
-0.02001
-0.01407
-0.01598
-0.02318
-0.02930
-0.02898
-0.02050
-0.00526
0.01351
0.03105
0.04199
0.04344
0.03784
0.03167
0.03062
0.03574
0.04331
0.04747
0.04318
0.02827
0.00449
-0.02262
-0.04618
-0.06239
-0.07256
-0.08019
-0.08842
-0.10292
-0.13115
-0.16794
-0.18429
-0.14447
-0.03856
0.11076
0.27149
0.41439
0.49909
0.47559
0.32627
0.10116
-0.11124
-0.25428
-0.33320
-0.37767
-0.39529
-0.37053
-0.29244
-0.16968
-0.02657
0.10575
0.19991
0.24357
0.24184
0.20900
0.16065
0.11108
0.07029
0.03999
0.01525
-0.00848
-0.03185
-0.05389
-0.07323
-0.08603
-0.08707
-0.07546
-0.05684
-0.03836
-0.02385
-0.01443
-0.00995
-0.00769
-0.00265
0.00839
0.02391
0.03885
0.04746
0.04591
0.03513
0.02085
0.00939
0.00338
0.00225
0.00461
0.00797
0.00742
-0.00138
-0.01660
-0.02990
-0.03335
-0.02559
-0.01129
0.00254
0.00945
0.00660
-0.00267
-0.01103
-0.01280
-0.00697
0.00387
0.01512
0.02146
0.01954
0.01036
-0.00139
-0.01012
-0.01184
-0.00585
0.00417
0.01167
0.01193
0.00566
-0.00288
-0.01008
-0.01396
-0.01265
-0.00527
0.00505
0.01154
0.00936
0.00044
-0.00831
-0.01116
-0.00706
0.00143
0.01005
0.01434
0.01169
0.00298
-0.00772
-0.01509
-0.01518
-0.00783
0.00302
0.01177
0.01410
0.00852
-0.00217
-0.01130
-0.01265
-0.00561
0.00499
0.01336
0.01566
0.01044
-0.00056
-0.01200
-0.01741
-0.01364
-0.00321
0.00798
0.01486
0.01464
0.00624
-0.00765
-0.01885
-0.01904
-0.00843
0.00444
0.01219
0.01371
0.01014
0.00203
-0.00736
-0.01134
-0.00628
0.00383
0.01190
0.01401
0.00956
-0.00031
-0.01125
-0.01609
-0.01122
-0.00105
0.00665
0.00836
0.00540
-0.00032
-0.00732
-0.01249
-0.01183
-0.00423
0.00688
0.01593
0.01829
0.01234
0.00084
-0.00960
-0.01296
-0.00869
-0.00105
0.00594
0.01034
0.00988
0.00223
-0.01019
-0.01896
-0.01674
-0.00476
0.00843
0.01502
0.01294
0.00488
-0.00441
-0.00993
-0.00869
-0.00176
0.00669
0.01240
0.01269
0.00673
-0.00399
-0.01527
-0.02096
-0.01634
-0.00268
0.01185
0.01848
0.01513
0.00615
-0.00307
-0.00853
-0.00715
0.00118
0.01114
0.01519
0.01012
-0.00102
-0.01251
-0.01939
-0.01877
-0.01160
-0.00313
0.00089
-0.00069
-0.00458
-0.00742
-0.00771
-0.00425
0.00456
0.01826
0.03199
0.03857
0.03386
0.01984
0.00253
-0.01228
-0.02076
-0.02154
-0.01670
-0.01129
-0.00979
-0.01271
-0.01703
-0.01916
-0.01718
-0.01153
-0.00470
0.00020
0.00094
-0.00277
-0.00815
-0.00892
0.00127
0.02274
0.04760
0.06499
0.06817
0.05716
0.03771
0.01879
0.00784
0.00505
0.00295
-0.00697
-0.02758
-0.05567
-0.08608
-0.11642
-0.14843
-0.18117
-0.20011
-0.17966
-0.10433
0.01608
0.15885
0.30643
0.43652
0.50029
0.44204
0.25976
0.02918
-0.15704
-0.26786
-0.33324
-0.37762
-0.38575
-0.33525
-0.23283
-0.10715
0.01488
0.11463
0.18014
0.20948
0.21048
0.19269
0.16265
0.12547
0.08446
0.03996
-0.00626
-0.04639
-0.07114
-0.07855
-0.07473
-0.06644
-0.05596
-0.04333
-0.03065
-0.02178
-0.01741
-0.01282
-0.00337
0.00870
0.01601
0.01403
0.00474
-0.00683
-0.01610
-0.01866
-0.00969
0.01271
0.04247
0.06566
0.07021
0.05675
0.03693
0.01988
0.00407
-0.01642
-0.04177
-0.06478
-0.07663
-0.07214
-0.05235
-0.02488
-0.00008
0.01648
0.02764
0.03843
0.04792
0.05039
0.04324
0.02984
0.01491
0.00060
-0.01212
-0.02120
-0.02472
-0.02330
-0.02009
-0.01852
-0.01977
-0.02119
-0.01781
-0.00821
0.00144
0.00330
-0.00154
-0.00303
0.00492
0.01695
0.02543
0.03126
0.03891
0.04493
0.04032
0.02274
-0.00125
-0.02421
-0.04124
-0.04801
-0.04322
-0.03201
-0.02149
-0.01405
-0.00822
-0.00261
0.00367
0.01099
0.01750
0.02043
0.01949
0.01655
0.01247
0.00729
0.00266
0.00137
0.00421
0.00849
0.00989
0.00581
-0.00250
-0.01116
-0.01665
-0.01750
-0.01409
-0.00852
-0.00373
-0.00139
-0.00103
-0.00168
-0.00301
-0.00405
-0.00257
0.00260
0.00955
0.01455
0.01483
0.01026
0.00316
-0.00299
-0.00533
-0.00306
0.00211
0.00661
0.00688
0.00205
-0.00529
-0.01139
-0.01395
-0.01213
-0.00612
0.00161
0.00650
0.00587
0.00183
-0.00154
-0.00264
-0.00212
0.00010
0.00451
0.00922
0.01024
0.00577
-0.00133
-0.00624
-0.00662
-0.00384
-0.00047
0.00214
0.00358
0.00300
-0.00023
-0.00441
-0.00594
-0.00317
0.00147
0.00434
0.00418
0.00175
-0.00237
-0.00721
-0.01003
-0.00810
-0.00213
0.00423
0.00811
0.00902
0.00732
0.00335
-0.00125
-0.00312
0.00019
0.00712
0.01254
0.01194
0.00538
-0.00285
-0.00859
-0.01121
-0.01208
-0.01175
-0.01030
-0.00958
-0.01158
-0.01440
-0.01318
-0.00629
0.00230
0.00864
0.01402
0.02171
0.03057
0.03560
0.03400
0.02722
0.01735
0.00501
-0.00866
-0.02066
-0.02853
-0.03265
-0.03538
-0.03812
-0.03911
-0.03488
-0.02435
-0.01083
0.00089
0.00879
0.01396
0.01823
0.02295
0.02944
0.03856
0.04905
0.05696
0.05776
0.04977
0.03587
0.02103
0.00775
-0.00516
-0.01918
-0.03410
-0.05041
-0.07000
-0.09194
-0.11211
-0.13065
-0.15268
-0.17300
-0.16630
-0.10646
0.00580
0.14670
0.29499
0.43088
0.50897
0.46758
0.29186
0.05038
-0.15819
-0.28794
-0.35670
-0.39029
-0.38818
-0.34111
-0.25235
-0.13432
-0.00381
0.11411
0.19325
0.22484
0.22151
0.20059
0.17025
0.13234
0.08978
0.04716
0.00787
-0.02622
-0.05356
-0.07256
-0.08166
-0.08069
-0.07293
-0.06382
-0.05636
-0.04875
-0.03772
-0.02305
-0.00754
0.00655
0.01910
0.02965
0.03517
0.03327
0.02688
0.02249
0.02296
0.02481
0.02347
0.01808
0.01017
0.00091
-0.00825
-0.01450
-0.01556
-0.01224
-0.00800
-0.00621
-0.00786
-0.01124
-0.01361
-0.01338
-0.01069
-0.00618
-0.00028
0.00579
0.00954
0.00920
0.00580
0.00213
0.00005
0.00001
0.00241
0.00707
0.01126
0.01101
0.00549
-0.00168
-0.00640
-0.00762
-0.00644
-0.00371
-0.00033
0.00150
-0.00031
-0.00463
-0.00710
-0.00486
0.00027
0.00465
0.00700
0.00753
0.00523
-0.00036
-0.00617
-0.00796
-0.00512
-0.00059
0.00312
0.00517
0.00472
0.00106
-0.00400
-0.00652
-0.00438
0.00067
0.00552
0.00843
0.00844
0.00469
-0.00181
-0.00744
-0.00868
-0.00525
0.00000
0.00360
0.00398
0.00217
0.00003
-0.00194
-0.00385
-0.00442
-0.00203
0.00216
0.00464
0.00374
0.00116
-0.00122
-0.00343
-0.00530
-0.00480
-0.00062
0.00495
0.00770
0.00576
0.00119
-0.00244
-0.00293
-0.00043
0.00311
0.00515
0.00424
0.00070
-0.00410
-0.00844
-0.01020
-0.00764
-0.00142
0.00496
0.00794
0.00671
0.00279
-0.00196
-0.00588
-0.00697
-0.00388
0.00205
0.00704
0.00792
0.00453
-0.00041
-0.00352
-0.00314
-0.00022
0.00297
0.00480
0.00468
0.00237
-0.00193
-0.00672
-0.00938
-0.00816
-0.00383
0.00079
0.00313
0.00255
0.00012
-0.00265
-0.00454
-0.00445
-0.00137
0.00435
0.00989
0.01182
0.00953
0.00589
0.00367
0.00268
0.00132
-0.00014
-0.00017
0.00068
-0.00076
-0.00646
-0.01418
-0.01925
-0.01896
-0.01429
-0.00819
-0.00291
0.00066
0.00232
0.00255
0.00328
0.00740
0.01611
0.02684
0.03428
0.03422
0.02643
0.01435
0.00199
-0.00875
-0.01782
-0.02480
-0.02843
-0.02910
-0.02981
-0.03265
-0.03483
-0.03110
-0.02037
-0.00719
0.00398
0.01324
0.02213
0.02940
0.03336
0.03584
0.04007
0.04546
0.04822
0.04629
0.04050
0.03118
0.01729
-0.00033
-0.01770
-0.03167
-0.04404
-0.05913
-0.07767
-0.09641
-0.11537
-0.14005
-0.16870
-0.17936
-0.14100
-0.04275
0.09568
0.24540
0.38492
0.48388
0.49008
0.36612
0.14325
-0.08770
-0.25236
-0.34363
-0.39072
-0.40368
-0.36859
-0.28100
-0.15924
-0.02867
0.08992
0.17821
0.22290
0.22532
0.20106
0.16664
0.12976
0.09199
0.05476
0.01981
-0.01251
-0.04156
-0.06436
-0.07759
-0.08076
-0.07611
-0.06653
-0.05474
-0.04322
-0.03315
-0.02365
-0.01307
-0.00114
0.01079
0.02128
0.02947
0.03425
0.03427
0.02946
0.02221
0.01616
0.01334
0.01273
0.01170
0.00854
0.00317
-0.00361
-0.01040
-0.01511
-0.01603
-0.01329
-0.00903
-0.00589
-0.00534
-0.00703
-0.00933
-0.01041
-0.00871
-0.00348
0.00405
0.01036
0.01194
0.00853
0.00347
0.00020
-0.00058
0.00008
0.00186
0.00500
0.00812
0.00839
0.00462
-0.00124
-0.00622
-0.00844
-0.00711
-0.00258
0.00259
0.00465
0.00219
-0.00240
-0.00578
-0.00663
-0.00543
-0.00253
0.00173
0.00553
0.00602
0.00251
-0.00186
-0.00310
-0.00067
0.00263
0.00436
0.00438
0.00319
0.00043
-0.00386
-0.00748
-0.00740
-0.00311
0.00253
0.00627
0.00710
0.00548
0.00196
-0.00212
-0.00449
-0.00397
-0.00168
0.00078
0.00259
0.00279
0.00021
-0.00445
-0.00795
-0.00724
-0.00233
0.00366
0.00702
0.00601
0.00188
-0.00231
-0.00406
-0.00288
0.00034
0.00443
0.00788
0.00850
0.00490
-0.00133
-0.00635
-0.00748
-0.00512
-0.00152
0.00128
0.00193
-0.00005
-0.00347
-0.00581
-0.00525
-0.00206
0.00228
0.00631
0.00857
0.00774
0.00373
-0.00168
-0.00581
-0.00672
-0.00416
0.00018
0.00382
0.00504
0.00344
-0.00028
-0.00404
-0.00508
-0.00239
0.00186
0.00474
0.00535
0.00404
0.00063
-0.00431
-0.00793
-0.00738
-0.00307
0.00182
0.00449
0.00403
0.00121
-0.00220
-0.00453
-0.00511
-0.00375
-0.00013
0.00481
0.00811
0.00751
0.00428
0.00164
0.00102
0.00160
0.00279
0.00481
0.00663
0.00544
-0.00046
-0.00897
-0.01530
-0.01616
-0.01290
-0.00980
-0.00909
-0.00874
-0.00643
-0.00330
-0.00123
0.00170
0.00919
0.02091
0.03189
0.03749
0.03614
0.02792
0.01408
-0.00164
-0.01415
-0.02100
-0.02432
-0.02791
-0.03328
-0.03846
-0.03994
-0.03539
-0.02488
-0.01051
0.00429
0.01573
0.02184
0.02417
0.02628
0.03029
0.03588
0.04161
0.04554
0.04552
0.04081
0.03270
0.02255
0.01016
-0.00479
-0.02107
-0.03696
-0.05236
-0.06845
-0.08556
-0.10360
-0.12500
-0.15154
-0.17175
-0.15767
-0.08697
0.03213
0.17011
0.30548
0.42279
0.48217
0.42750
0.24908
0.01686
-0.17624
-0.29384
-0.35865
-0.39206
-0.38426
-0.32208
-0.21595
-0.08995
0.03512
0.14040
0.20679
0.22646
0.21062
0.17882
0.14343
0.10679
0.06859
0.03106
-0.00238
-0.03028
-0.05292
-0.06941
-0.07712
-0.07497
-0.06619
-0.05612
-0.04753
-0.03938
-0.02991
-0.01925
-0.00823
0.00376
0.01750
0.03061
0.03762
0.03515
0.02639
0.01869
0.01641
0.01747
0.01720
0.01376
0.00844
0.00260
-0.00374
-0.01034
-0.01515
-0.01573
-0.01210
-0.00700
-0.00333
-0.00239
-0.00434
-0.00817
-0.01115
-0.01057
-0.00605
0.00080
0.00760
0.01105
0.00833
0.00092
-0.00502
-0.00456
0.00120
0.00756
0.01137
0.01214
0.00983
0.00441
-0.00279
-0.00871
-0.01023
-0.00660
-0.00049
0.00367
0.00351
0.00031
-0.00328
-0.00579
-0.00660
-0.00480
-0.00048
0.00369
0.00449
0.00167
-0.00184
-0.00320
-0.00174
0.00184
0.00619
0.00883
0.00723
0.00177
-0.00376
-0.00602
-0.00540
-0.00397
-0.00196
0.00138
0.00466
0.00506
0.00199
-0.00222
-0.00522
-0.00609
-0.00458
-0.00089
0.00337
0.00609
0.00639
0.00454
0.00076
-0.00375
-0.00595
-0.00377
0.00060
0.00292
0.00189
-0.00041
-0.00241
-0.00400
-0.00415
-0.00127
0.00354
0.00682
0.00664
0.00388
-0.00006
-0.00391
-0.00561
-0.00377
-0.00004
0.00264
0.00355
0.00345
0.00145
-0.00335
-0.00776
-0.00685
-0.00077
0.00495
0.00637
0.00427
0.00064
-0.00332
-0.00565
-0.00450
-0.00090
0.00257
0.00491
0.00560
0.00303
-0.00247
-0.00649
-0.00538
-0.00092
0.00285
0.00507
0.00693
0.00742
0.00435
-0.00125
-0.00545
-0.00617
-0.00498
-0.00361
-0.00194
-0.00016
-0.00015
-0.00266
-0.00525
-0.00503
-0.00195
0.00180
0.00430
0.00483
0.00363
0.00183
0.00092
0.00189
0.00475
0.00853
0.01127
0.01090
0.00675
0.00032
-0.00604
-0.01078
-0.01297
-0.01160
-0.00701
-0.00270
-0.00329
-0.00973
-0.01749
-0.02026
-0.01507
-0.00404
0.00785
0.01673
0.02224
0.02632
0.03005
0.03195
0.02952
0.02192
0.01111
0.00019
-0.00915
-0.01771
-0.02715
-0.03713
-0.04433
-0.04456
-0.03661
-0.02395
-0.01243
-0.00551
-0.00179
0.00283
0.01079
0.02129
0.03211
0.04162
0.04863
0.05183
0.05050
0.04514
0.03700
0.02757
0.01822
0.00899
-0.00200
-0.01699
-0.03674
-0.06055
-0.08551
-0.10620
-0.12043
-0.13515
-0.15682
-0.17158
-0.14735
-0.06558
0.05930
0.20111
0.34452
0.46531
0.50572
0.41030
0.19565
-0.04455
-0.22052
-0.31499
-0.36200
-0.38335
-0.36978
-0.30932
-0.20756
-0.08234
0.04335
0.14435
0.20382
0.22334
0.21665
0.19436
0.15961
0.11497
0.06688
0.02254
-0.01395
-0.04137
-0.05937
-0.06829
-0.07035
-0.06922
-0.06746
-0.06474
-0.05858
-0.04693
-0.03074
-0.01392
0.00011
0.01104
0.01966
0.02482
0.02538
0.02409
0.02564
0.03047
0.03373
0.03105
0.02295
0.01282
0.00304
-0.00539
-0.01117
-0.01281
-0.01044
-0.00661
-0.00516
-0.00857
-0.01543
-0.02062
-0.01952
-0.01220
-0.00286
0.00420
0.00706
0.00610
0.00325
0.00104
0.00097
0.00291
0.00597
0.00909
0.01052
0.00836
0.00294
-0.00226
-0.00380
-0.00202
-0.00000
0.00072
0.00088
0.00046
-0.00174
-0.00498
-0.00666
-0.00600
-0.00441
-0.00221
0.00142
0.00513
0.00590
0.00316
-0.00054
-0.00308
-0.00399
-0.00270
0.00113
0.00550
0.00684
0.00356
-0.00220
-0.00628
-0.00583
-0.00157
0.00327
0.00600
0.00582
0.00266
-0.00284
-0.00813
-0.00983
-0.00672
-0.00044
0.00623
0.01055
0.01064
0.00669
0.00098
-0.00385
-0.00595
-0.00485
-0.00223
-0.00083
-0.00144
-0.00249
-0.00306
-0.00400
-0.00497
-0.00343
0.00150
0.00670
0.00833
0.00606
0.00240
-0.00040
-0.00132
-0.00003
0.00270
0.00470
0.00412
0.00112
-0.00278
-0.00628
-0.00834
-0.00784
-0.00452
0.00001
0.00348
0.00469
0.00351
0.00033
-0.00325
-0.00440
-0.00173
0.00267
0.00543
0.00546
0.00369
0.00093
-0.00213
-0.00372
-0.00213
0.00201
0.00604
0.00713
0.00360
-0.00357
-0.01005
-0.01128
-0.00716
-0.00190
0.00121
0.00234
0.00246
0.00120
-0.00151
-0.00392
-0.00378
-0.00026
0.00559
0.01110
0.01293
0.00969
0.00368
-0.00112
-0.00262
-0.00150
0.00061
0.00229
0.00216
-0.00095
-0.00688
-0.01340
-0.01718
-0.01637
-0.01222
-0.00752
-0.00379
-0.00073
0.00201
0.00398
0.00534
0.00804
0.01426
0.02348
0.03183
0.03458
0.02940
0.01745
0.00225
-0.01205
-0.02236
-0.02761
-0.02898
-0.02912
-0.03018
-0.03188
-0.03193
-0.02844
-0.02106
-0.01003
0.00387
0.01785
0.02802
0.03282
0.03425
0.03522
0.03755
0.04187
0.04678
0.04822
0.04290
0.03185
0.01803
0.00168
-0.01806
-0.03842
-0.05522
-0.06918
-0.08437
-0.10151
-0.11975
-0.14254
-0.16849
-0.17503
-0.12822
-0.01845
0.12657
0.27222
0.40062
0.48756
0.48067
0.34113
0.10692
-0.12186
-0.27271
-0.35064
-0.39188
-0.40222
-0.36277
-0.27099
-0.14822
-0.01798
0.10136
0.18971
0.23120
0.22846
0.20053
0.16512
0.12829
0.08985
0.05146
0.01656
-0.01378
-0.04095
-0.06454
-0.08061
-0.08569
-0.08102
-0.07090
-0.05818
-0.04407
-0.03075
-0.02062
-0.01299
-0.00447
0.00709
0.02049
0.03239
0.03942
0.03993
0.03508
0.02809
0.02184
0.01705
0.01299
0.00910
0.00498
-0.00037
-0.00753
-0.01506
-0.02012
-0.02092
-0.01785
-0.01239
-0.00619
-0.00145
-0.00056
-0.00362
-0.00721
-0.00744
-0.00388
0.00111
0.00620
0.01122
0.01399
0.01108
0.00287
-0.00479
-0.00614
-0.00093
0.00623
0.01055
0.00999
0.00525
-0.00131
-0.00696
-0.00970
-0.00890
-0.00550
-0.00154
0.00111
0.00142
-0.00080
-0.00433
-0.00578
-0.00217
0.00481
0.00952
0.00864
0.00412
-0.00069
-0.00428
-0.00584
-0.00442
-0.00072
0.00275
0.00402
0.00291
0.00020
-0.00292
-0.00496
-0.00474
-0.00209
0.00210
0.00620
0.00841
0.00727
0.00234
-0.00442
-0.00867
-0.00719
-0.00166
0.00311
0.00446
0.00321
0.00054
-0.00335
-0.00694
-0.00706
-0.00276
0.00277
0.00569
0.00544
0.00384
0.00170
-0.00124
-0.00362
-0.00288
0.00138
0.00588
0.00661
0.00259
-0.00330
-0.00697
-0.00658
-0.00348
0.00016
0.00313
0.00440
0.00283
-0.00092
-0.00380
-0.00360
-0.00150
0.00028
0.00171
0.00374
0.00500
0.00290
-0.00215
-0.00616
-0.00605
-0.00274
0.00123
0.00479
0.00733
0.00693
0.00273
-0.00248
-0.00499
-0.00428
-0.00219
0.00016
0.00233
0.00283
0.00022
-0.00447
-0.00810
-0.00820
-0.00466
0.00069
0.00530
0.00720
0.00592
0.00263
-0.00067
-0.00216
-0.00063
0.00374
0.00862
0.01054
0.00781
0.00205
-0.00350
-0.00640
-0.00599
-0.00357
-0.00186
-0.00300
-0.00680
-0.01137
-0.01497
-0.01651
-0.01471
-0.00823
0.00202
0.01147
0.01560
0.01524
0.01560
0.01940
0.02435
0.02708
0.02586
0.01928
0.00677
-0.00890
-0.02286
-0.03207
-0.03624
-0.03593
-0.03206
-0.02626
-0.02004
-0.01429
-0.00973
-0.00620
-0.00156
0.00684
0.01907
0.03163
0.04016
0.04310
0.04238
0.04067
0.03850
0.03501
0.03023
0.02480
0.01743
0.00494
-0.01387
-0.03623
-0.05849
-0.07845
-0.09347
-0.10157
-0.10835
-0.12506
-0.14951
-0.15406
-0.10686
-0.00407
0.13138
0.27713
0.41282
0.49278
0.45387
0.27933
0.03832
-0.16741
-0.29071
-0.35287
-0.38396
-0.38214
-0.33231
-0.23535
-0.10895
0.02283
0.13360
0.20226
0.22557
0.21769
0.19386
0.15936
0.11520
0.06715
0.02426
-0.00852
-0.03245
-0.05035
-0.06295
-0.07009
-0.07287
-0.07269
-0.06879
-0.05911
-0.04365
-0.02584
-0.00990
0.00211
0.01057
0.01639
0.01990
0.02176
0.02398
0.02811
0.03244
0.03303
0.02805
0.01942
0.01009
0.00170
-0.00460
-0.00755
-0.00748
-0.00692
-0.00812
-0.01108
-0.01459
-0.01760
-0.01822
-0.01400
-0.00551
0.00245
0.00578
0.00523
0.00376
0.00209
-0.00029
-0.00200
-0.00059
0.00390
0.00845
0.01019
0.00870
0.00478
-0.00066
-0.00531
-0.00560
-0.00088
0.00452
0.00601
0.00360
-0.00024
-0.00429
-0.00729
-0.00666
-0.00205
0.00258
0.00317
-0.00045
-0.00579
-0.00978
-0.00953
-0.00441
0.00289
0.00928
0.01338
0.01336
0.00721
-0.00244
-0.00845
-0.00709
-0.00193
0.00182
0.00298
0.00270
0.00118
-0.00178
-0.00512
-0.00684
-0.00528
-0.00023
0.00593
0.00908
0.00694
0.00137
-0.00402
-0.00724
-0.00762
-0.00447
0.00158
0.00719
0.00863
0.00503
-0.00119
-0.00630
-0.00767
-0.00524
-0.00081
0.00370
0.00655
0.00588
0.00152
-0.00369
-0.00629
-0.00541
-0.00226
0.00192
0.00583
0.00758
0.00609
0.00255
-0.00068
-0.00248
-0.00300
-0.00251
-0.00163
-0.00207
-0.00451
-0.00668
-0.00580
-0.00204
0.00249
0.00649
0.00893
0.00797
0.00314
-0.00294
-0.00696
-0.00757
-0.00471
0.00108
0.00723
0.00961
0.00656
0.00099
-0.00297
-0.00375
-0.00244
-0.00039
0.00180
0.00311
0.00128
-0.00468
-0.01138
-0.01313
-0.00836
-0.00134
0.00336
0.00553
0.00688
0.00696
0.00437
0.00036
-0.00147
0.00099
0.00613
0.00998
0.00944
0.00491
-0.00029
-0.00302
-0.00277
-0.00125
-0.00072
-0.00242
-0.00582
-0.00932
-0.01221
-0.01514
-0.01795
-0.01801
-0.01229
-0.00151
0.00891
0.01357
0.01297
0.01263
0.01641
0.02327
0.03030
0.03487
0.03324
0.02231
0.00440
-0.01383
-0.02859
-0.04069
-0.04923
-0.04952
-0.03996
-0.02635
-0.01598
-0.01048
-0.00695
-0.00285
0.00300
0.01205
0.02505
0.03947
0.05032
0.05391
0.05034
0.04303
0.03650
0.03306
0.03009
0.02195
0.00600
-0.01423
-0.03330
-0.05011
-0.06737
-0.08509
-0.09850
-0.10628
-0.11722
-0.13927
-0.15894
-0.14289
-0.06848
0.05557
0.20532
0.35968
0.48252
0.50722
0.38336
0.14710
-0.08970
-0.23970
-0.30712
-0.34347
-0.36836
-0.36033
-0.30207
-0.20149
-0.07685
0.05197
0.15956
0.22313
0.23871
0.22066
0.18557
0.14259
0.09642
0.05181
0.01324
-0.01679
-0.03840
-0.05355
-0.06431
-0.07152
-0.07541
-0.07580
-0.07114
-0.05926
-0.04088
-0.02065
-0.00337
0.00917
0.01702
0.02056
0.02121
0.02186
0.02476
0.02947
0.03313
0.03223
0.02496
0.01325
0.00224
-0.00347
-0.00338
-0.00091
-0.00054
-0.00497
-0.01318
-0.02035
-0.02161
-0.01666
-0.00969
-0.00454
-0.00175
-0.00013
0.00110
0.00201
0.00214
0.00100
-0.00026
0.00098
0.00533
0.00963
0.01044
0.00764
0.00319
-0.00146
-0.00477
-0.00428
0.00074
0.00659
0.00777
0.00267
-0.00483
-0.00952
-0.00946
-0.00606
-0.00158
0.00208
0.00316
0.00097
-0.00266
-0.00443
-0.00293
0.00036
0.00379
0.00723
0.00982
0.00857
0.00197
-0.00627
-0.00993
-0.00677
-0.00064
0.00327
0.00360
0.00221
0.00007
-0.00352
-0.00733
-0.00747
-0.00241
0.00400
0.00733
0.00749
0.00651
0.00447
0.00060
-0.00367
-0.00530
-0.00260
0.00298
0.00693
0.00480
-0.00301
-0.01073
-0.01312
-0.01013
-0.00488
0.00084
0.00648
0.00994
0.00839
0.00247
-0.00283
-0.00340
-0.00020
0.00351
0.00624
0.00753
0.00618
0.00181
-0.00344
-0.00693
-0.00746
-0.00506
-0.00102
0.00168
0.00065
-0.00294
-0.00575
-0.00631
-0.00550
-0.00325
0.00185
0.00887
0.01292
0.00995
0.00214
-0.00376
-0.00378
-0.00040
0.00184
0.00206
0.00254
0.00376
0.00281
-0.00228
-0.00864
-0.01100
-0.00747
-0.00088
0.00462
0.00621
0.00311
-0.00270
-0.00707
-0.00711
-0.00370
0.00047
0.00408
0.00695
0.00799
0.00572
0.00105
-0.00223
-0.00102
0.00369
0.00802
0.00926
0.00744
0.00371
-0.00108
-0.00605
-0.00992
-0.01139
-0.01012
-0.00781
-0.00757
-0.01080
-0.01487
-0.01523
-0.00977
-0.00027
0.00964
0.01698
0.02054
0.02109
0.02054
0.02064
0.02162
0.02169
0.01825
0.01037
-0.00054
-0.01282
-0.02558
-0.03660
-0.04189
-0.03966
-0.03272
-0.02495
-0.01748
-0.01012
-0.00366
0.00164
0.00765
0.01598
0.02556
0.03416
0.04053
0.04426
0.04496
0.04279
0.03852
0.03302
0.02694
0.02017
0.01083
-0.00383
-0.02446
-0.04871
-0.07293
-0.09301
-0.10593
-0.11530
-0.13167
-0.15662
-0.16761
-0.13219
-0.03981
0.09295
0.24603
0.39945
0.50603
0.49480
0.33585
0.09155
-0.12796
-0.26116
-0.32652
-0.36421
-0.37956
-0.35248
-0.27505
-0.16116
-0.03303
0.08612
0.17384
0.21771
0.22302
0.20527
0.17606
0.13892
0.09546
0.05021
0.00940
-0.02249
-0.04453
-0.05887
-0.06846
-0.07474
-0.07704
-0.07434
-0.06701
-0.05623
-0.04201
-0.02373
-0.00367
0.01250
0.02099
0.02407
0.02662
0.02983
0.03143
0.03091
0.03024
0.02914
0.02386
0.01261
-0.00027
-0.00827
-0.00939
-0.00712
-0.00583
-0.00696
-0.00942
-0.01179
-0.01374
-0.01552
-0.01608
-0.01289
-0.00522
0.00335
0.00797
0.00745
0.00464
0.00249
0.00176
0.00201
0.00312
0.00499
0.00669
0.00672
0.00423
-0.00013
-0.00442
-0.00607
-0.00368
0.00117
0.00475
0.00470
0.00149
-0.00319
-0.00725
-0.00773
-0.00315
0.00332
0.00647
0.00500
0.00172
-0.00152
-0.00487
-0.00701
-0.00533
-0.00016
0.00480
0.00668
0.00513
0.00089
-0.00415
-0.00643
-0.00394
0.00072
0.00351
0.00389
0.00370
0.00286
0.00001
-0.00359
-0.00479
-0.00275
0.00081
0.00446
0.00694
0.00593
0.00051
-0.00586
-0.00821
-0.00527
0.00000
0.00425
0.00570
0.00365
-0.00124
-0.00632
-0.00856
-0.00688
-0.00238
0.00297
0.00685
0.00716
0.00368
-0.00102
-0.00366
-0.00335
-0.00140
0.00150
0.00556
0.00901
0.00845
0.00339
-0.00274
-0.00661
-0.00733
-0.00508
-0.00109
0.00163
0.00079
-0.00241
-0.00534
-0.00688
-0.00668
-0.00380
0.00168
0.00723
0.00978
0.00836
0.00465
0.00132
0.00028
0.00147
0.00328
0.00420
0.00357
0.00092
-0.00416
-0.01029
-0.01397
-0.01251
-0.00697
-0.00083
0.00356
0.00558
0.00475
0.00133
-0.00194
-0.00157
0.00267
0.00777
0.01116
0.01202
0.00961
0.00362
-0.00343
-0.00696
-0.00469
0.00104
0.00522
0.00387
-0.00339
-0.01302
-0.02007
-0.02172
-0.01867
-0.01318
-0.00655
0.00105
0.00852
0.01322
0.01392
0.01345
0.01613
0.02248
0.02850
0.02965
0.02396
0.01214
-0.00280
-0.01645
-0.02543
-0.02929
-0.02941
-0.02723
-0.02444
-0.02315
-0.02405
-0.02476
-0.02141
-0.01194
0.00191
0.01604
0.02727
0.03497
0.03936
0.04010
0.03822
0.03740
0.04002
0.04283
0.03989
0.02910
0.01339
-0.00385
-0.02135
-0.03907
-0.05698
-0.07399
-0.08756
-0.09841
-0.11539
-0.14587
-0.17553
-0.16829
-0.09842
0.02365
0.16758
0.31256
0.43819
0.49568
0.42772
0.23549
0.00073
-0.18341
-0.28958
-0.34693
-0.37649
-0.36838
-0.31282
-0.21966
-0.10469
0.01856
0.12922
0.20186
0.22659
0.21535
0.18553
0.14664
0.10387
0.06369
0.03058
0.00322
-0.02167
-0.04438
-0.06290
-0.07570
-0.08166
-0.07931
-0.06846
-0.05197
-0.03456
-0.01995
-0.00950
-0.00255
0.00272
0.00846
0.01633
0.02617
0.03500
0.03823
0.03361
0.02389
0.01467
0.00941
0.00727
0.00582
0.00423
0.00263
-0.00031
-0.00622
-0.01357
-0.01838
-0.01874
-0.01595
-0.01134
-0.00536
-0.00020
0.00066
-0.00285
-0.00634
-0.00612
-0.00265
0.00216
0.00740
0.01141
0.01143
0.00715
0.00206
-0.00030
0.00049
0.00302
0.00566
0.00660
0.00449
-0.00009
-0.00496
-0.00813
-0.00862
-0.00632
-0.00210
0.00191
0.00327
0.00118
-0.00260
-0.00510
-0.00496
-0.00296
0.00014
0.00460
0.00922
0.01015
0.00489
-0.00356
-0.00904
-0.00828
-0.00307
0.00245
0.00537
0.00555
0.00418
0.00136
-0.00316
-0.00704
-0.00625
-0.00038
0.00580
0.00761
0.00499
0.00088
-0.00278
-0.00568
-0.00686
-0.00435
0.00175
0.00693
0.00617
0.00006
-0.00579
-0.00746
-0.00565
-0.00197
0.00318
0.00816
0.00941
0.00538
-0.00106
-0.00568
-0.00691
-0.00567
-0.00270
0.00181
0.00650
0.00854
0.00596
-0.00008
-0.00571
-0.00742
-0.00474
0.00016
0.00452
0.00595
0.00297
-0.00321
-0.00833
-0.00853
-0.00388
0.00245
0.00735
0.00909
0.00697
0.00179
-0.00370
-0.00606
-0.00369
0.00159
0.00556
0.00507
0.00057
-0.00470
-0.00794
-0.00855
-0.00695
-0.00320
0.00211
0.00651
0.00689
0.00286
-0.00236
-0.00473
-0.00267
0.00261
0.00862
0.01271
0.01273
0.00823
0.00129
-0.00458
-0.00677
-0.00502
-0.00160
-0.00013
-0.00301
-0.00916
-0.01526
-0.01895
-0.01977
-0.01702
-0.00937
0.00211
0.01259
0.01766
0.01802
0.01806
0.02042
0.02385
0.02600
0.02567
0.02162
0.01186
-0.00378
-0.02117
-0.03382
-0.03824
-0.03632
-0.03202
-0.02705
-0.02133
-0.01603
-0.01304
-0.01136
-0.00667
0.00391
0.01802
0.03042
0.03789
0.04077
0.04075
0.03931
0.03794
0.03770
0.03799
0.03639
0.02957
0.01494
-0.00698
-0.03171
-0.05430
-0.07317
-0.08822
-0.09841
-0.10672
-0.12330
-0.15147
-0.16953
-0.14166
-0.05333
0.07626
0.22106
0.36506
0.47681
0.49348
0.36979
0.14243
-0.08658
-0.23966
-0.31591
-0.35263
-0.36675
-0.34882
-0.29030
-0.19498
-0.07469
0.05044
0.15360
0.21520
0.23405
0.22136
0.18854
0.14410
0.09635
0.05258
0.01615
-0.01302
-0.03572
-0.05262
-0.06507
-0.07433
-0.07946
-0.07763
-0.06798
-0.05385
-0.03948
-0.02589
-0.01203
0.00114
0.01110
0.01773
0.02377
0.03049
0.03587
0.03759
0.03545
0.03019
0.02233
0.01302
0.00447
-0.00131
-0.00405
-0.00548
-0.00780
-0.01152
-0.01485
-0.01583
-0.01453
-0.01258
-0.01057
-0.00745
-0.00295
0.00074
0.00104
-0.00148
-0.00348
-0.00262
0.00041
0.00413
0.00833
0.01244
0.01369
0.00989
0.00307
-0.00191
-0.00249
0.00002
0.00292
0.00422
0.00259
-0.00209
-0.00774
-0.01107
-0.01024
-0.00614
-0.00107
0.00287
0.00449
0.00344
0.00042
-0.00237
-0.00241
0.00074
0.00454
0.00588
0.00397
0.00033
-0.00308
-0.00492
-0.00452
-0.00207
0.00146
0.00478
0.00643
0.00498
0.00052
-0.00431
-0.00619
-0.00447
-0.00136
0.00089
0.00200
0.00263
0.00277
0.00192
0.00001
-0.00203
-0.00253
-0.00038
0.00308
0.00444
0.00164
-0.00340
-0.00697
-0.00747
-0.00559
-0.00183
0.00330
0.00719
0.00671
0.00240
-0.00185
-0.00347
-0.00274
-0.00022
0.00395
0.00799
0.00867
0.00473
-0.00161
-0.00677
-0.00858
-0.00695
-0.00302
0.00132
0.00392
0.00336
0.00020
-0.00346
-0.00597
-0.00685
-0.00532
-0.00032
0.00669
0.01097
0.00910
0.00319
-0.00142
-0.00207
-0.00018
0.00204
0.00371
0.00403
0.00179
-0.00294
-0.00777
-0.00969
-0.00787
-0.00407
-0.00086
0.00038
-0.00010
-0.00119
-0.00197
-0.00181
0.00003
0.00398
0.00892
0.01229
0.01214
0.00866
0.00377
-0.00010
-0.00127
-0.00000
0.00143
0.00045
-0.00375
-0.00962
-0.01452
-0.01664
-0.01602
-0.01367
-0.01012
-0.00534
-0.00007
0.00409
0.00635
0.00774
0.01036
0.01573
0.02358
0.03103
0.03334
0.02720
0.01417
-0.00023
-0.01167
-0.02002
-0.02651
-0.03057
-0.03150
-0.03088
-0.03039
-0.02890
-0.02416
-0.01610
-0.00637
0.00397
0.01431
0.02331
0.02957
0.03325
0.03588
0.03893
0.04288
0.04663
0.04735
0.04187
0.02947
0.01276
-0.00465
-0.02115
-0.03709
-0.05287
-0.06825
-0.08285
-0.09737
-0.11559
-0.14160
-0.16805
-0.16886
-0.11623
-0.00767
0.13414
0.28526
0.42247
0.49931
0.45556
0.27920
0.04200
-0.15593
-0.27182
-0.33115
-0.36628
-0.37507
-0.33943
-0.25564
-0.13716
-0.00547
0.11330
0.19471
0.22875
0.22352
0.19515
0.15686
0.11609
0.07650
0.03996
0.00754
-0.02021
-0.04319
-0.06131
-0.07417
-0.08102
-0.08063
-0.07202
-0.05670
-0.03945
-0.02513
-0.01513
-0.00770
-0.00032
0.00899
0.02038
0.03084
0.03627
0.03579
0.03219
0.02759
0.02152
0.01418
0.00831
0.00597
0.00520
0.00217
-0.00444
-0.01228
-0.01787
-0.01942
-0.01768
-0.01441
-0.01067
-0.00685
-0.00376
-0.00243
-0.00258
-0.00223
0.00039
0.00482
0.00864
0.00986
0.00851
0.00582
0.00265
-0.00026
-0.00147
0.00020
0.00368
0.00595
0.00455
-0.00030
-0.00577
-0.00836
-0.00667
-0.00242
0.00150
0.00355
0.00368
0.00196
-0.00136
-0.00502
-0.00684
-0.00511
-0.00023
0.00508
0.00781
0.00710
0.00398
-0.00053
-0.00522
-0.00740
-0.00514
-0.00058
0.00204
0.00176
0.00094
0.00059
-0.00062
-0.00234
-0.00169
0.00232
0.00640
0.00690
0.00412
0.00108
-0.00085
-0.00267
-0.00445
-0.00411
-0.00076
0.00276
0.00272
-0.00125
-0.00619
-0.00909
-0.00844
-0.00400
0.00277
0.00829
0.00919
0.00567
0.00105
-0.00188
-0.00258
-0.00110
0.00244
0.00614
0.00672
0.00309
-0.00219
-0.00583
-0.00684
-0.00605
-0.00403
-0.00059
0.00353
0.00578
0.00390
-0.00106
-0.00536
-0.00616
-0.00375
-0.00010
0.00320
0.00533
0.00571
0.00411
0.00106
-0.00192
-0.00271
-0.00035
0.00335
0.00488
0.00249
-0.00226
-0.00655
-0.00898
-0.00913
-0.00621
-0.00016
0.00597
0.00760
0.00362
-0.00208
-0.00495
-0.00380
0.00030
0.00610
0.01165
0.01400
0.01148
0.00540
-0.00152
-0.00700
-0.00914
-0.00686
-0.00195
0.00109
-0.00107
-0.00725
-0.01318
-0.01553
-0.01395
-0.00985
-0.00445
0.00113
0.00528
0.00709
0.00809
0.01108
0.01688
0.02360
0.02896
0.03114
0.02755
0.01596
-0.00163
-0.01885
-0.03037
-0.03552
-0.03583
-0.03244
-0.02740
-0.02376
-0.02189
-0.01861
-0.01192
-0.00331
0.00582
0.01629
0.02779
0.03689
0.04078
0.04049
0.03917
0.03881
0.03962
0.04039
0.03838
0.03010
0.01349
-0.01003
-0.03546
-0.05699
-0.07210
-0.08263
-0.09172
-0.10267
-0.12036
-0.14555
-0.16236
-0.14095
-0.06294
0.06156
0.20820
0.35423
0.46504
0.48423
0.37282
0.16181
-0.05990
-0.21998
-0.31026
-0.35883
-0.37953
-0.36302
-0.30048
-0.19704
-0.06851
0.06130
0.16418
0.22094
0.23269
0.21445
0.18029
0.13801
0.09344
0.05229
0.01758
-0.01128
-0.03563
-0.05524
-0.06912
-0.07735
-0.08048
-0.07760
-0.06700
-0.04947
-0.02958
-0.01290
-0.00253
0.00212
0.00457
0.00898
0.01698
0.02665
0.03471
0.03868
0.03698
0.02925
0.01781
0.00740
0.00204
0.00187
0.00315
0.00152
-0.00445
-0.01259
-0.01955
-0.02280
-0.02089
-0.01407
-0.00550
0.00025
0.00145
0.00061
0.00059
0.00095
-0.00022
-0.00210
-0.00120
0.00389
0.00980
0.01176
0.00853
0.00290
-0.00168
-0.00341
-0.00217
0.00075
0.00299
0.00282
0.00081
-0.00108
-0.00215
-0.00317
-0.00403
-0.00335
-0.00095
0.00116
0.00124
-0.00048
-0.00286
-0.00456
-0.00378
0.00032
0.00551
0.00821
0.00729
0.00417
-0.00005
-0.00476
-0.00782
-0.00697
-0.00304
0.00091
0.00319
0.00351
0.00087
-0.00437
-0.00760
-0.00397
0.00478
0.01180
0.01306
0.00987
0.00436
-0.00260
-0.00871
-0.01034
-0.00709
