-0.00000
0.03590
0.05467
0.03707
-0.03948
-0.16462
-0.24354
-0.15498
0.08226
0.30964
0.35564
0.17492
-0.08448
-0.23100
-0.22129
-0.12848
-0.03058
0.03968
0.07535
0.08075
0.06823
0.04194
0.01163
-0.01248
-0.02693
-0.03312
-0.03006
-0.02464
-0.00916
0.00493
0.00916
0.01236
0.01478
0.01176
0.00755
0.00254
-0.00399
-0.00529
-0.00517
-0.00554
-0.00671
-0.00229
-0.00219
-0.00115
0.00528
0.00494
0.00252
0.00431
0.00226
0.00221
0.00211
-0.00481
-0.00790
-0.00468
-0.00374
-0.00167
0.00369
0.00903
0.00555
-0.00248
-0.00310
-0.00129
0.00019
0.00055
-0.00020
-0.00091
0.00167
-0.00133
-0.00031
0.00013
0.00013
-0.00043
-0.00084
-0.00068
0.00094
0.00192
-0.00098
0.00070
0.00042
-0.00057
-0.00464
-0.00497
0.00086
0.00738
0.00542
0.00460
0.01144
0.01391
-0.00058
-0.02009
-0.03405
-0.03388
-0.02370
-0.00886
0.01798
0.04750
0.07531
0.08723
0.07094
0.01387
-0.09009
-0.21788
-0.26098
-0.12249
0.13253
0.33094
0.32102
0.11503
-0.11394
-0.22256
-0.18681
-0.09100
-0.00876
0.04354
0.06495
0.06739
0.05371
0.03087
0.00666
-0.01331
-0.02533
-0.02822
-0.02311
-0.01320
-0.00562
-0.00103
0.00397
0.01335
0.01451
0.01099
0.00456
-0.00174
-0.00181
-0.00291
-0.00519
-0.00633
-0.00243
-0.00107
-0.00233
-0.00078
0.00359
0.00423
0.00114
0.00043
0.00310
0.00515
0.00116
-0.00539
-0.00471
-0.00304
-0.00116
-0.00484
-0.00158
0.00803
0.00700
0.00188
-0.00188
-0.00112
-0.00319
-0.00103
0.00032
-0.00169
0.00060
0.00299
0.00132
0.00011
-0.00136
-0.00220
-0.00231
-0.00091
0.00127
0.00191
0.00385
0.00375
-0.00114
-0.00900
-0.00809
-0.00345
0.00808
0.01059
0.00347
0.00856
0.01482
0.00877
-0.00875
-0.02749
-0.04156
-0.03706
-0.01995
0.00687
0.03961
0.06924
0.08438
0.07885
0.04964
-0.02840
-0.15725
-0.26438
-0.22407
-0.01109
0.25172
0.37585
0.25048
-0.00881
-0.19578
-0.22362
-0.14672
-0.05205
0.02056
0.05995
0.07335
0.06490
0.04572
0.01819
-0.00685
-0.02116
-0.02724
-0.02535
-0.02093
-0.01187
-0.00221
0.00571
0.00809
0.01212
0.01209
0.00791
0.00317
0.00033
-0.00153
-0.00579
-0.00441
-0.00642
-0.00433
-0.00209
-0.00084
0.00223
0.00125
0.00565
0.00330
0.00235
0.00408
0.00150
-0.00186
-0.00659
-0.00641
-0.00385
0.00181
0.00256
0.00098
0.00073
0.00080
0.00460
0.00321
-0.00077
-0.00195
-0.00365
-0.00348
-0.00038
0.00180
0.00150
0.00039
0.00092
0.00306
0.00088
-0.00365
-0.00267
-0.00134
-0.00101
0.00166
0.00177
0.00196
-0.00267
-0.00889
-0.00118
0.01009
0.00960
0.00468
0.00678
0.01200
0.00420
-0.01452
-0.03168
-0.04031
-0.03372
-0.01616
0.01506
0.04983
0.07680
0.09112
0.08368
0.04063
-0.05850
-0.20875
-0.30464
-0.20565
0.06945
0.34134
0.40170
0.20134
-0.07942
-0.23827
-0.23222
-0.13592
-0.03006
0.04079
0.07170
0.07861
0.06815
0.04242
0.01285
-0.01200
-0.02578
-0.03108
-0.03168
-0.02404
-0.00939
0.00535
0.00968
0.01227
0.01199
0.01060
0.00797
0.00507
-0.00112
-0.00533
-0.00900
-0.01011
-0.00311
-0.00110
-0.00082
-0.00007
0.00611
0.00261
0.00207
0.00157
0.00235
0.00596
0.00103
-0.00615
-0.00782
-0.00363
0.00014
0.00074
-0.00083
0.00186
0.00035
0.00461
0.00345
0.00099
0.00158
-0.00297
-0.00398
-0.00286
0.00018
0.00240
0.00020
-0.00371
0.00020
0.00270
0.00261
0.00343
0.00032
-0.00470
-0.00568
0.00243
0.00234
-0.00177
-0.00545
-0.00258
0.00496
0.00608
0.00364
0.00797
0.01530
0.00931
-0.00526
-0.02459
-0.03452
-0.03363
-0.02519
-0.00847
0.02570
0.05992
0.08295
0.08758
0.06649
0.00716
-0.11304
-0.25045
-0.27251
-0.09430
0.18283
0.37408
0.31792
0.07134
-0.15059
-0.23256
-0.18072
-0.08304
-0.00001
0.05302
0.07137
0.06590
0.05072
0.03149
0.00303
-0.01592
-0.02515
-0.02563
-0.02347
-0.01896
-0.00782
0.00250
0.00965
0.01104
0.01229
0.01288
0.00787
-0.00146
-0.00453
-0.00564
-0.00545
-0.00389
-0.00242
-0.00097
-0.00105
-0.00210
-0.00035
0.00143
0.00457
0.00632
0.00525
0.00207
0.00012
-0.00369
-0.00826
-0.00498
-0.00202
-0.00119
0.00257
0.00177
0.00172
0.00476
0.00451
0.00380
-0.00219
-0.00395
-0.00835
-0.00385
0.00368
0.00347
0.00241
0.00158
-0.00034
-0.00161
-0.00315
-0.00280
0.00346
0.00269
0.00218
0.00086
0.00021
-0.00413
-0.00893
-0.00661
0.00215
0.00887
0.00622
0.00813
0.01793
0.01773
-0.00060
-0.02474
-0.04180
-0.04275
-0.03155
-0.00825
0.02341
0.05759
0.08610
0.09374
0.07559
0.01776
-0.09035
-0.23658
-0.29075
-0.14754
0.12557
0.36258
0.37184
0.14545
-0.12430
-0.24815
-0.20974
-0.10681
-0.01287
0.04636
0.06981
0.07318
0.06514
0.04038
0.00778
-0.01733
-0.02781
-0.02975
-0.02724
-0.01996
-0.00904
0.00079
0.00948
0.01445
0.01642
0.01216
0.00333
-0.00047
-0.00193
-0.00226
-0.00523
-0.00789
-0.00463
-0.00260
-0.00098
-0.00153
-0.00174
0.00444
0.00968
0.00735
0.00360
0.00138
-0.00336
-0.00781
-0.00944
-0.00248
0.00142
0.00133
0.00016
0.00249
0.00653
0.00179
0.00102
0.00186
-0.00125
-0.00641
-0.00248
-0.00166
-0.00332
0.00051
0.00528
0.00457
0.00389
0.00264
-0.00355
-0.00440
-0.00438
-0.00249
-0.00380
0.00295
0.00648
0.00654
-0.00227
-0.00935
-0.00654
0.00328
0.01034
0.00329
0.00585
0.01447
0.01115
-0.00338
-0.01579
-0.03662
-0.04263
-0.03675
-0.01059
0.02740
0.06430
0.09184
0.09438
0.08346
0.01981
-0.11366
-0.27244
-0.31510
-0.13558
0.17653
0.41571
0.38627
0.11135
-0.16151
-0.26934
-0.21510
-0.09782
-0.00402
0.05119
0.07880
0.08044
0.06505
0.03529
0.00533
-0.01374
-0.02840
-0.03738
-0.03328
-0.01777
-0.00612
0.00587
0.00865
0.01445
0.01539
0.01131
0.00483
0.00151
-0.00205
-0.00592
-0.00501
-0.00516
-0.00714
-0.00693
-0.00022
0.00235
0.00564
0.00417
0.00323
0.00197
0.00589
0.00348
-0.00440
-0.00477
-0.00586
-0.00477
-0.00339
-0.00372
0.00364
0.00645
0.00986
0.00583
-0.00038
-0.00301
-0.00697
-0.00759
-0.00493
0.00495
0.00208
0.00012
0.00426
0.00326
0.00255
0.00128
-0.00488
-0.00115
-0.00177
-0.00630
-0.00425
0.00516
0.00659
0.00064
0.00057
0.00158
-0.00446
-0.00749
-0.00131
0.00501
0.00834
0.00663
0.01357
0.01474
0.00079
-0.02614
-0.04514
-0.04043
-0.02390
0.00050
0.03065
0.06169
0.08776
0.09170
0.07007
-0.00437
-0.13539
-0.27042
-0.27712
-0.07634
0.21806
0.40248
0.32273
0.05140
-0.18256
-0.24798
-0.18215
-0.07857
0.00667
0.05770
0.07942
0.07551
0.05403
0.02751
-0.00030
-0.01976
-0.03178
-0.02700
-0.02619
-0.01806
-0.00523
0.00426
0.01372
0.01280
0.01624
0.01107
0.00214
-0.00259
-0.00465
-0.00606
-0.00524
-0.00414
-0.00258
-0.00174
0.00280
0.00108
-0.00288
0.00200
0.00421
0.00543
0.00339
0.00000
-0.00258
-0.00220
-0.00172
-0.00347
-0.00477
-0.00234
0.00102
0.00261
0.00645
0.00566
0.00066
-0.00024
-0.00292
-0.00665
-0.00226
-0.00026
-0.00105
0.00387
0.00496
0.00007
0.00076
-0.00048
-0.00081
-0.00304
-0.00314
0.00070
0.00327
0.00070
-0.00207
-0.00003
0.00132
0.00075
-0.00786
-0.00165
0.00309
0.00440
0.00185
0.00877
0.01914
0.01510
-0.00233
-0.02776
-0.04235
-0.04244
-0.02718
-0.00177
0.03368
0.05877
0.08316
0.08961
0.07332
0.01380
-0.11699
-0.26098
-0.28863
-0.10941
0.17957
0.38977
0.35202
0.09327
-0.16006
-0.25430
-0.19632
-0.09072
-0.00258
0.05510
0.08090
0.07839
0.05410
0.02648
0.00297
-0.01508
-0.02962
-0.02944
-0.02627
-0.01735
-0.00613
0.00006
0.01402
0.01533
0.01388
0.01080
0.00202
-0.00122
-0.00327
-0.00381
-0.00795
-0.00127
-0.00421
-0.00265
-0.00175
-0.00225
0.00616
0.00275
0.00305
0.00095
0.00690
0.00430
-0.00135
-0.00680
-0.00727
-0.00159
-0.00398
-0.00514
0.00159
0.00841
0.00850
0.00380
-0.00173
0.00067
-0.00085
-0.00568
-0.00641
-0.00023
-0.00133
-0.00178
0.00404
0.00451
0.00511
-0.00016
-0.00091
0.00261
0.00081
-0.00571
-0.00661
-0.00059
-0.00272
-0.00154
0.00178
0.00819
0.00622
-0.00143
-0.00754
-0.00334
0.00335
0.00502
0.00799
0.01476
0.01436
-0.00441
-0.02559
-0.04124
-0.04013
-0.02898
-0.00107
0.03048
0.07184
0.09471
0.09512
0.07214
-0.00661
-0.14833
-0.29841
-0.28902
-0.06682
0.24826
0.43585
0.32724
0.03055
-0.20461
-0.25793
-0.18397
-0.07317
0.01748
0.06055
0.07936
0.07358
0.05415
0.02529
-0.00061
-0.01706
-0.02667
-0.03220
-0.02986
-0.01840
-0.00285
0.00937
0.00761
0.01258
0.01377
0.01191
0.00661
-0.00057
-0.00762
-0.00587
-0.00379
-0.00425
-0.00068
-0.00170
-0.00488
-0.00408
0.00301
0.00474
0.00422
0.00653
0.00640
0.00297
-0.00367
-0.00626
-0.00636
-0.00791
-0.00119
0.00149
0.00360
0.00420
0.00237
0.00161
0.00085
0.00249
0.00111
-0.00322
-0.00389
-0.00020
-0.00055
-0.00301
-0.00312
0.00007
0.00518
0.00342
-0.00146
0.00181
0.00189
0.00009
-0.00007
-0.00205
-0.00232
0.00114
-0.00305
-0.00246
0.00139
0.00100
0.00416
-0.00084
-0.00489
-0.00538
0.00197
0.00583
0.00524
0.00237
0.00618
0.01489
0.00967
-0.00362
-0.02597
-0.03678
-0.03561
-0.02671
-0.00545
0.02862
0.06422
0.08733
0.09050
0.06350
-0.00372
-0.12276
-0.25078
-0.26264
-0.09014
0.17929
0.37277
0.32247
0.07818
-0.15175
-0.23340
-0.18359
-0.08937
-0.00295
0.05258
0.07258
0.06778
0.05534
0.03196
0.00707
-0.01738
-0.02764
-0.02825
-0.02532
-0.01691
-0.00971
0.00445
0.00888
0.01262
0.01485
0.01142
0.00627
-0.00317
-0.00600
-0.00311
-0.00097
-0.00384
-0.00641
-0.00437
0.00013
0.00059
0.00148
0.00178
0.00489
0.00617
0.00005
0.00047
-0.00094
-0.00029
-0.00342
-0.00605
-0.00234
0.00023
0.00059
0.00057
0.00568
0.00409
-0.00146
-0.00328
-0.00176
0.00381
0.00362
-0.00218
-0.00500
-0.00114
0.00060
-0.00215
0.00085
0.00256
0.00227
-0.00186
-0.00042
-0.00018
0.00204
0.00200
0.00040
-0.00060
-0.00143
-0.00096
-0.00330
-0.00094
0.00049
0.00324
-0.00153
-0.00225
-0.00628
-0.00020
0.00794
0.00918
0.00211
0.00165
0.00942
0.01287
0.00467
-0.02179
-0.03671
-0.03828
-0.02772
-0.01217
0.01918
0.05221
0.08508
0.09949
0.08270
0.01816
-0.09899
-0.24244
-0.29379
-0.14549
0.13687
0.37483
0.36594
0.12743
-0.12707
-0.23691
-0.20588
-0.10671
-0.01693
0.04398
0.07346
0.07471
0.06008
0.03796
0.00989
-0.01397
-0.02613
-0.03061
-0.02847
-0.02016
-0.00974
0.00065
0.01217
0.01327
0.01511
0.01018
0.00485
0.00029
-0.00223
-0.00285
-0.00481
-0.00711
-0.00457
-0.00180
0.00063
0.00064
-0.00395
-0.00013
0.00548
0.00813
0.00625
0.00325
-0.00005
-0.00434
-0.00985
-0.00829
-0.00297
0.00388
0.00468
0.00288
0.00244
0.00203
0.00145
-0.00212
-0.00231
0.00015
0.00317
-0.00167
-0.00466
-0.00278
0.00205
0.00340
0.00037
-0.00036
-0.00364
-0.00103
0.00363
0.00425
0.00307
0.00193
-0.00315
-0.00490
-0.00471
-0.00256
0.00128
0.00404
0.00366
-0.00483
-0.01059
0.00020
0.01165
0.01082
0.00501
-0.00294
0.00913
0.01238
0.00088
-0.01866
-0.03284
-0.03691
-0.03401
-0.01396
0.01634
0.05544
0.08265
0.09773
0.09036
0.03523
-0.08715
-0.24795
-0.31390
-0.17315
0.11688
0.37623
0.40200
0.16603
-0.12044
-0.25290
-0.22363
-0.11812
-0.02065
0.04186
0.07502
0.08061
0.06810
0.03939
0.00818
-0.01606
-0.02537
-0.03153
-0.02973
-0.01806
-0.00818
-0.00093
0.00897
0.01280
0.01286
0.01379
0.00655
0.00267
0.00031
-0.00588
-0.00990
-0.00803
-0.00483
-0.00199
0.00102
0.00254
0.00344
0.00208
0.00332
0.00271
0.00391
0.00210
-0.00268
-0.00527
-0.00512
-0.00163
-0.00213
0.00086
0.00071
0.00153
0.00181
0.00176
0.00556
0.00287
-0.00047
-0.00279
-0.00523
-0.00367
-0.00210
-0.00102
0.00169
0.00483
0.00158
-0.00009
0.00008
0.00037
0.00053
0.00047
-0.00040
-0.00160
-0.00000
-0.00058
0.00112
-0.00170
-0.00220
-0.00207
0.00238
0.00392
-0.00367
-0.00859
-0.00318
0.01124
0.01473
0.00277
-0.00071
0.00802
0.00806
-0.00191
-0.01932
-0.03466
-0.03698
-0.02449
-0.00394
0.02440
0.05443
0.07819
0.08980
0.07552
0.01328
-0.10639
-0.24472
-0.27464
-0.11863
0.14924
0.35760
0.34080
0.12180
-0.12306
-0.23453
-0.20113
-0.10751
-0.01817
0.04731
0.07703
0.07683
0.06079
0.03363
0.00711
-0.01620
-0.02501
-0.02849
-0.03020
-0.01951
-0.00793
0.00231
0.00998
0.01088
0.01507
0.01239
0.00682
0.00186
-0.00488
-0.00365
-0.00511
-0.00828
-0.00664
-0.00099
0.00186
0.00123
-0.00023
0.00318
0.00453
0.00182
0.00179
0.00327
0.00406
-0.00340
-0.00745
-0.00651
-0.00207
-0.00048
-0.00012
0.00214
0.00685
0.00487
-0.00002
0.00024
-0.00152
-0.00265
-0.00381
-0.00004
-0.00011
0.00242
-0.00025
-0.00117
-0.00074
-0.00022
-0.00012
-0.00004
0.00309
0.00372
0.00230
-0.00265
-0.00189
-0.00152
-0.00214
-0.00456
0.00063
0.00372
0.00622
0.00018
-0.00870
-0.00952
-0.00234
0.01175
0.01145
0.00479
0.00315
0.00510
0.00976
0.00436
-0.01455
-0.03367
-0.04279
-0.03467
-0.01167
0.01774
0.05023
0.08549
0.10195
0.08913
0.02957
-0.08815
-0.24204
-0.30733
-0.17251
0.11382
0.36906
0.38920
0.16730
-0.10641
-0.24616
-0.22146
-0.12174
-0.02586
0.04130
0.07473
0.07796
0.06387
0.04082
0.01110
-0.01089
-0.02348
-0.02886
-0.03082
-0.02307
-0.01184
0.00020
0.00909
0.01194
0.01328
0.01110
0.00982
0.00412
0.00039
-0.00267
-0.00612
-0.00731
-0.00919
-0.00688
-0.00175
0.00020
0.00207
0.00437
0.00810
0.00838
0.00492
-0.00046
-0.00185
-0.00421
-0.00859
-0.00733
-0.00405
0.00066
0.00445
0.00322
0.00534
0.00622
0.00171
-0.00258
-0.00253
0.00013
-0.00333
-0.00277
-0.00440
-0.00070
0.00368
0.00269
0.00195
0.00055
0.00038
-0.00062
-0.00077
-0.00196
0.00105
0.00426
0.00035
-0.00274
0.00014
-0.00235
-0.00532
-0.00223
0.00472
0.00815
-0.00177
-0.01050
-0.00568
0.00700
0.01164
0.00584
-0.00194
0.00316
0.01409
0.00749
-0.00920
-0.02876
-0.03881
-0.03343
-0.01633
0.00986
0.03674
0.06371
0.08834
0.09023
0.05210
-0.03758
-0.17399
-0.27675
-0.22359
0.00232
0.26379
0.37799
0.25566
-0.00083
-0.19408
-0.23283
-0.16272
-0.06285
0.01661
0.06633
0.08308
0.07179
0.04888
0.02106
-0.00656
-0.02697
-0.03095
-0.02687
-0.02090
-0.01440
-0.00319
0.00681
0.01028
0.01458
0.01396
0.01090
0.00409
-0.00529
-0.00675
-0.00503
-0.00439
-0.00277
-0.00494
-0.00258
0.00215
0.00304
0.00194
0.00178
0.00317
0.00406
0.00233
-0.00168
-0.00281
-0.00309
-0.00344
-0.00293
0.00049
0.00340
0.00083
-0.00277
0.00147
0.00296
0.00400
0.00225
-0.00303
-0.00476
-0.00166
0.00176
0.00034
-0.00052
-0.00092
-0.00033
0.00005
0.00088
0.00110
0.00148
0.00106
0.00073
-0.00031
-0.00100
-0.00191
-0.00176
-0.00098
0.00176
0.00212
0.00110
-0.00122
-0.00584
-0.00849
-0.00092
0.01060
0.01047
0.00291
0.00085
0.01030
0.01386
0.00249
-0.01932
-0.03316
-0.03861
-0.03292
-0.01452
0.01679
0.05294
0.08038
0.09651
0.08536
0.03056
-0.08616
-0.23362
-0.28794
-0.15638
0.10531
0.33198
0.35907
0.17128
-0.07981
-0.22274
-0.21667
-0.12794
-0.03278
0.03418
0.07012
0.07844
0.06773
0.04235
0.01287
-0.00893
-0.02531
-0.03330
-0.03288
-0.02239
-0.00789
0.00075
0.00970
0.01365
0.01335
0.01166
0.00667
0.00286
0.00033
-0.00355
-0.00725
-0.00934
-0.00766
-0.00222
0.00184
-0.00138
0.00228
0.00595
0.00403
0.00450
0.00282
0.00148
-0.00175
-0.00587
-0.00541
-0.00156
-0.00060
-0.00054
-0.00054
0.00190
0.00183
0.00176
0.00402
0.00307
0.00185
-0.00216
-0.00665
-0.00462
0.00094
0.00197
0.00050
-0.00009
-0.00014
0.00022
0.00065
0.00117
0.00137
0.00140
0.00081
0.00004
-0.00119
-0.00202
-0.00247
-0.00132
0.00142
0.00064
-0.00170
-0.00144
-0.00267
-0.00353
0.00212
0.01053
0.01030
0.00089
-0.00135
0.00655
0.01245
0.00201
-0.01973
-0.03749
-0.04318
-0.03187
-0.00505
0.02868
0.06414
0.09250
0.10104
0.07819
0.00410
-0.13258
-0.27908
-0.29680
-0.10418
0.20386
0.41052
0.34865
0.08456
-0.16256
-0.25316
-0.20272
-0.09790
-0.00062
0.05437
0.07717
0.07627
0.06042
0.03809
0.00664
-0.01921
-0.03176
-0.03192
-0.02954
-0.01932
-0.00533
0.00519
0.00967
0.01302
0.01503
0.01113
0.00596
0.00133
-0.00357
-0.00675
-0.00508
-0.00507
-0.00665
-0.00283
0.00041
0.00043
0.00301
0.00458
0.00489
0.00282
0.00167
-0.00002
-0.00168
-0.00242
-0.00400
-0.00396
-0.00097
0.00065
0.00040
0.00206
0.00173
0.00079
0.00263
0.00196
0.00030
-0.00078
-0.00417
-0.00254
-0.00044
0.00182
0.00085
-0.00226
0.00043
0.00277
0.00035
-0.00274
-0.00084
0.00291
0.00428
0.00291
-0.00027
-0.00534
-0.00626
-0.00303
0.00018
0.00304
0.00441
0.00065
-0.00535
-0.00187
0.00463
0.00577
0.00057
-0.00064
0.00931
0.01688
0.00804
-0.01237
-0.03083
-0.04142
-0.03619
-0.01791
0.01376
0.04768
0.07385
0.08997
0.08553
0.04267
-0.05707
-0.19667
-0.28372
-0.20161
0.04307
0.30021
0.38165
0.22176
-0.04384
-0.21674
-0.22793
-0.14272
-0.04400
0.02888
0.06717
0.07713
0.06672
0.04384
0.01663
-0.00513
-0.01951
-0.03161
-0.03232
-0.02331
-0.01325
-0.00197
0.00748
0.01466
0.01602
0.01315
0.00874
0.00124
-0.00321
-0.00806
-0.00697
-0.00304
-0.00188
-0.00063
-0.00109
-0.00258
-0.00140
0.00103
0.00376
0.00787
0.00482
0.00032
-0.00192
-0.00152
-0.00223
-0.00355
-0.00365
-0.00403
-0.00080
0.00257
0.00303
0.00464
0.00564
0.00082
-0.00207
-0.00398
-0.00522
-0.00113
0.00272
0.00321
0.00233
-0.00046
-0.00541
-0.00538
-0.00036
0.00442
0.00656
0.00341
0.00009
-0.00100
-0.00209
-0.00306
-0.00342
-0.00279
-0.00060
0.00355
0.00491
0.00340
-0.00157
-0.00840
-0.00864
-0.00136
0.00904
0.01126
0.00670
0.00820
0.01173
0.00516
-0.01075
-0.02643
-0.03816
-0.03747
-0.02369
0.00201
0.03958
0.07219
0.09040
0.09067
0.05553
-0.03148
-0.16367
-0.27046
-0.23119
-0.02298
0.23611
0.36921
0.27166
0.03107
-0.17098
-0.23213
-0.17250
-0.07207
0.00975
0.05759
0.07618
0.07248
0.05379
0.02607
-0.00300
-0.02271
-0.03001
-0.02949
-0.02525
-0.01523
-0.00012
0.00971
0.01238
0.01195
0.00857
0.00545
0.00125
-0.00053
0.00095
-0.00150
-0.00537
-0.00606
-0.00407
-0.00245
-0.00163
0.00057
0.00397
0.00347
0.00136
0.00241
0.00365
0.00208
-0.00046
-0.00192
-0.00270
-0.00519
-0.00658
-0.00346
0.00269
0.00584
0.00472
0.00317
0.00202
0.00197
-0.00190
-0.00465
-0.00428
-0.00128
0.00117
0.00005
-0.00019
0.00010
0.00063
0.00117
0.00158
0.00166
0.00139
0.00062
-0.00045
-0.00180
-0.00288
-0.00341
-0.00009
0.00239
0.00222
0.00175
-0.00150
-0.00613
-0.00556
0.00069
0.00614
0.00863
0.00727
0.00369
0.00523
0.00974
0.00213
-0.01508
-0.03211
-0.04052
-0.03276
-0.01190
0.01660
0.05120
0.08358
0.09905
0.08685
0.03020
-0.09009
-0.24146
-0.30462
-0.16771
0.12613
0.37332
0.37767
0.14765
-0.11352
-0.23683
-0.21222
-0.11816
-0.02259
0.04058
0.07086
0.07627
0.06279
0.04173
0.01596
-0.01233
-0.02950
-0.03123
-0.02909
-0.02280
-0.01117
0.00317
0.01257
0.01392
0.01192
0.01035
0.00779
0.00088
-0.00459
-0.00543
-0.00436
-0.00183
-0.00118
-0.00330
-0.00388
-0.00353
-0.00235
0.00185
0.00689
0.00737
0.00599
0.00442
0.00015
-0.00546
-0.00849
-0.00732
-0.00232
0.00133
0.00040
0.00028
0.00566
0.00694
0.00358
-0.00087
-0.00391
-0.00145
-0.00163
-0.00209
-0.00247
0.00084
0.00075
-0.00136
0.00005
0.00160
0.00383
0.00096
-0.00158
0.00048
0.00254
-0.00087
-0.00172
-0.00002
-0.00252
-0.00382
-0.00073
0.00214
0.00239
0.00099
-0.00305
-0.00594
0.00028
0.00773
0.00428
0.00292
0.01046
0.01474
0.00888
-0.00783
-0.02788
-0.04112
-0.03978
-0.02405
0.00152
0.03336
0.06571
0.09012
0.09604
0.07279
-0.00455
-0.14357
-0.28288
-0.28777
-0.08356
0.22787
0.41968
0.33348
0.05654
-0.18312
-0.25332
-0.19010
-0.08675
0.00218
0.05951
0.08027
0.07668
0.05696
0.02924
0.00475
-0.01601
-0.03059
-0.03529
-0.02778
-0.01779
-0.00593
0.00465
0.01237
0.01524
0.01268
0.01086
0.00515
0.00064
-0.00423
-0.00663
-0.00689
-0.00564
-0.00146
-0.00014
-0.00017
-0.00062
0.00052
0.00217
0.00161
0.00282
0.00666
0.00185
-0.00234
-0.00108
-0.00130
-0.00288
-0.00719
-0.00465
0.00284
0.00303
0.00067
0.00233
0.00633
0.00498
-0.00159
-0.00431
-0.00373
-0.00133
-0.00297
-0.00152
0.00347
0.00307
0.00045
-0.00186
-0.00179
-0.00171
0.00049
0.00499
0.00643
0.00266
-0.00147
-0.00530
-0.00862
-0.00553
-0.00068
0.00172
0.00652
0.01000
0.00229
-0.00768
-0.00948
-0.00228
0.00685
0.00566
0.00475
0.01395
0.01761
0.00183
-0.02201
-0.03805
-0.04043
-0.02931
-0.00790
0.02072
0.05242
0.07903
0.09089
0.07885
0.02239
-0.08723
-0.21894
-0.27683
-0.16083
0.09879
0.33391
0.36523
0.16921
-0.08741
-0.22640
-0.21781
-0.12859
-0.03052
0.03998
0.07726
0.07910
0.06257
0.03866
0.01021
-0.01211
-0.02326
-0.02911
-0.03096
-0.02115
-0.00945
-0.00100
0.00922
0.01319
0.01438
0.01180
0.00628
0.00358
-0.00102
-0.00626
-0.00814
-0.00374
-0.00243
-0.00134
-0.00369
-0.00597
-0.00110
0.00631
0.01086
0.00564
0.00225
-0.00016
-0.00181
-0.00233
-0.00460
-0.00651
-0.00550
-0.00107
0.00249
0.00771
0.00818
0.00162
-0.00355
-0.00251
-0.00242
-0.00291
-0.00050
0.00199
0.00396
-0.00034
-0.00021
-0.00033
-0.00335
-0.00271
-0.00178
0.00231
0.00547
0.00556
-0.00101
-0.00269
-0.00136
-0.00309
-0.00315
-0.00039
0.00376
-0.00016
0.00110
0.00218
-0.00057
-0.00471
-0.00936
-0.00126
0.01071
0.00931
0.00700
0.01351
0.01349
-0.00092
-0.02213
-0.03952
-0.04253
-0.02765
-0.00737
0.02175
0.05491
0.08588
0.09799
0.07710
0.01306
-0.10366
-0.23814
-0.27877
-0.13473
0.13430
0.35401
0.35173
0.13223
-0.11470
-0.22995
-0.20369
-0.10790
-0.01644
0.04318
0.06723
0.06860
0.05617
0.03840
0.01722
-0.00433
-0.02102
-0.03504
-0.03761
-0.02471
-0.00480
0.00471
0.00752
0.00956
0.01398
0.01616
0.01132
0.00280
-0.00363
-0.00904
-0.01135
-0.00724
-0.00279
0.00047
0.00281
0.00091
0.00036
0.00089
0.00183
0.00415
0.00291
0.00370
0.00223
-0.00236
-0.00696
-0.00704
-0.00146
0.00273
0.00125
-0.00212
-0.00237
0.00204
0.00724
0.00808
0.00256
-0.00278
-0.00567
-0.00768
-0.00321
-0.00032
0.00032
0.00193
0.00400
0.00483
0.00157
-0.00114
-0.00096
-0.00183
-0.00229
0.00028
0.00156
-0.00049
-0.00111
-0.00106
-0.00198
-0.00018
0.00198
0.00086
-0.00443
0.00020
0.00445
0.00102
0.00141
0.00454
0.01517
0.01717
0.00039
-0.02046
-0.03430
-0.03916
-0.03352
-0.01179
0.01851
0.04964
0.08009
0.09640
0.08581
0.03006
-0.07973
-0.22525
-0.29951
-0.17878
0.09663
0.35259
0.39347
0.17990
-0.10170
-0.24904
-0.22650
-0.12066
-0.01910
0.04473
0.07312
0.07580
0.06037
0.03756
0.01205
-0.00932
-0.02342
-0.03121
-0.02981
-0.02176
-0.01030
0.00145
0.00999
0.01290
0.01516
0.00880
0.00266
0.00293
0.00327
-0.00221
-0.00834
-0.00704
-0.00502
-0.00329
-0.00094
0.00253
0.00103
-0.00087
0.00096
0.00473
0.00690
0.00652
0.00346
-0.00342
-0.01036
-0.00814
-0.00605
-0.00150
0.00579
0.00412
0.00291
0.00303
0.00479
0.00228
-0.00252
-0.00372
-0.00264
-0.00254
-0.00138
-0.00237
-0.00101
0.00357
0.00341
0.00096
0.00198
0.00165
-0.00186
-0.00187
-0.00149
0.00133
-0.00013
-0.00088
-0.00133
0.00003
0.00011
-0.00227
0.00289
0.00380
-0.00297
-0.00745
-0.00502
0.00281
0.00847
0.01133
0.01535
0.01316
-0.00019
-0.01503
-0.02730
-0.03719
-0.03689
-0.02487
0.00592
0.04503
0.07683
0.09430
0.08962
0.04560
-0.04652
-0.17975
-0.28198
-0.22165
0.01506
0.27736
0.37978
0.24400
-0.01230
-0.19608
-0.23154
-0.15639
-0.05725
0.01835
0.06271
0.07739
0.07160
0.05122
0.02235
-0.00452
-0.02418
-0.03344
-0.03110
-0.02441
-0.01127
-0.00098
0.00783
0.01270
0.01201
0.01163
0.00749
0.00613
0.00075
-0.00525
-0.00596
-0.00643
-0.00895
-0.00519
0.00263
0.00184
0.00074
0.00316
0.00654
0.00334
-0.00275
-0.00102
0.00461
0.00195
-0.00517
-0.00646
-0.00232
0.00046
-0.00127
-0.00016
0.00385
0.00309
0.00150
0.00078
0.00073
0.00088
-0.00197
-0.00281
-0.00015
0.00074
-0.00235
-0.00209
-0.00042
0.00022
0.00185
0.00224
0.00339
0.00195
-0.00142
-0.00237
-0.00151
0.00092
0.00064
-0.00086
-0.00287
-0.00120
-0.00054
0.00051
0.00006
0.00001
-0.00015
-0.00042
0.00311
0.00193
0.00195
0.00879
0.01674
0.01397
-0.00403
-0.03113
-0.04368
-0.04050
-0.02454
-0.00071
0.03232
0.06856
0.09740
0.10572
0.06990
-0.02000
-0.16052
-0.29427
-0.27683
-0.04932
0.24830
0.41393
0.31338
0.03837
-0.18861
-0.25320
-0.18764
-0.07889
0.01156
0.06433
0.07754
0.07360
0.05482
0.02798
0.00308
-0.01715
-0.03037
-0.03308
-0.02554
-0.01991
-0.00813
0.00320
0.01486
0.01778
0.01475
0.00987
0.00407
-0.00335
-0.00486
-0.00455
-0.00245
-0.00209
-0.00666
-0.00456
-0.00257
0.00043
0.00054
0.00564
0.00560
0.00446
0.00278
0.00294
-0.00008
-0.00400
-0.00509
-0.00802
-0.00335
-0.00094
0.00202
0.00404
0.00461
0.00360
0.00262
-0.00155
-0.00200
-0.00285
-0.00056
0.00264
-0.00010
-0.00107
-0.00194
-0.00214
-0.00291
-0.00200
0.00210
0.00554
0.00486
0.00352
-0.00081
-0.00231
-0.00574
-0.00144
0.00127
0.00106
0.00035
-0.00208
-0.00245
-0.00124
-0.00141
0.00161
0.00647
-0.00103
-0.00034
0.00258
0.00023
-0.00108
0.01085
0.01591
0.01175
-0.00956
-0.03500
-0.04146
-0.03510
-0.01920
0.00486
0.04253
0.07803
0.09915
0.09553
0.05321
-0.04602
-0.20069
-0.31892
-0.24140
0.03266
0.32888
0.42998
0.25212
-0.05166
-0.24182
-0.25037
-0.15545
-0.04636
0.03632
0.07640
0.08209
0.07301
0.04711
0.01556
-0.01162
-0.02833
-0.03326
-0.02334
-0.02280
-0.01393
-0.00183
0.01059
0.01255
0.01080
0.01275
0.00786
0.00408
0.00076
-0.00249
-0.01095
-0.00867
-0.00524
0.00106
0.00206
-0.00158
0.00132
0.00302
0.00265
0.00116
-0.00108
0.00019
0.00255
0.00738
0.00222
-0.00772
-0.00817
-0.00329
-0.00169
-0.00056
0.00217
0.00205
0.00365
0.00331
0.00502
0.00545
-0.00088
-0.00679
-0.00681
-0.00527
-0.00264
0.00063
0.00335
0.00267
0.00276
0.00305
0.00405
0.00351
-0.00050
-0.00928
-0.00820
0.00023
0.00379
0.00398
-0.00083
-0.00028
0.00420
0.00140
-0.00552
-0.00236
0.00193
-0.00311
-0.00608
0.00082
0.00753
0.00749
0.00280
0.00755
0.01326
0.00797
-0.01006
-0.02735
-0.03841
-0.03585
-0.01788
0.00242
0.03446
0.06907
0.09130
0.09133
0.05620
-0.03218
-0.17301
-0.28452
-0.23292
0.00069
0.27392
0.38195
0.24613
-0.00482
-0.18960
-0.23124
-0.15963
-0.05784
0.02150
0.06289
0.07381
0.06833
0.04458
0.02130
-0.00233
-0.01695
-0.02563
-0.03176
-0.02768
-0.01605
-0.00265
0.00771
0.01356
0.01323
0.01371
0.00959
0.00248
-0.00457
-0.00289
-0.00432
-0.00850
-0.00193
-0.00196
-0.00148
0.00137
-0.00094
0.00024
0.00390
0.00132
0.00001
0.00464
0.00354
0.00344
-0.00248
-0.00493
-0.00397
-0.00463
-0.00224
-0.00223
0.00216
0.00461
0.00200
0.00129
0.00490
0.00130
-0.00063
-0.00081
0.00275
-0.00382
-0.00849
-0.00457
0.00047
0.00417
-0.00064
-0.00082
0.00117
0.00856
0.00685
0.00173
-0.00215
-0.00508
-0.00530
-0.00852
-0.00309
0.00630
0.00235
0.00094
0.00262
0.00192
-0.00453
-0.00521
-0.00099
0.00596
0.00838
0.00422
0.01139
0.01672
0.00551
-0.02052
-0.04105
-0.04438
-0.03081
-0.01254
0.01989
0.05299
0.08089
0.09625
0.09066
0.03767
-0.07682
-0.23416
-0.31668
-0.18900
0.09901
0.36741
0.40046
0.17750
-0.09624
-0.23804
-0.22854
-0.13345
-0.03161
0.03900
0.07838
0.08170
0.06578
0.04312
0.01277
-0.01408
-0.02751
-0.02770
-0.03138
-0.02509
-0.01061
0.00410
0.01053
0.01175
0.01372
0.01298
0.00765
-0.00133
-0.00404
-0.00400
-0.00265
-0.00440
-0.00154
-0.00361
-0.00277
-0.00304
-0.00089
0.00145
0.00419
0.00373
0.00516
0.00535
0.00281
-0.00264
-0.00616
-0.00061
-0.00394
-0.00348
-0.00694
-0.00221
0.00429
0.00725
0.00697
0.00101
0.00049
0.00278
-0.00300
-0.00579
-0.00313
0.00293
-0.00238
-0.00355
0.00157
0.00015
0.00493
-0.00167
-0.00176
0.00202
0.00235
0.00145
0.00167
0.00035
-0.00018
-0.00204
-0.00271
-0.00352
-0.00196
-0.00390
-0.00250
0.00481
0.00591
0.00259
-0.00024
0.00254
0.00003
0.00083
-0.00381
0.01238
0.02173
0.00517
-0.01801
-0.03764
-0.04140
-0.03482
-0.01525
0.01622
0.05549
0.08602
0.10504
0.08999
0.03353
-0.07842
-0.24448
-0.33442
-0.20192
0.11124
0.39607
0.43227
0.18977
-0.11856
-0.27561
-0.24645
-0.12646
-0.02142
0.04737
0.08193
0.08401
0.07110
0.04155
0.00951
-0.01300
-0.02660
-0.03455
-0.03331
-0.02504
-0.00878
0.00313
0.00761
0.01454
0.01799
0.01490
0.00921
0.00069
-0.00583
-0.00774
-0.00741
-0.00574
-0.00422
-0.00284
-0.00147
0.00259
0.00519
0.00530
0.00168
0.00037
-0.00240
0.00243
0.00478
-0.00177
-0.00194
-0.00202
-0.00457
-0.00776
-0.00309
0.00434
0.00743
0.00109
0.00304
0.00634
0.00050
-0.00229
-0.00581
-0.00715
-0.00056
0.00192
0.00096
-0.00007
0.00460
0.00385
-0.00657
-0.00243
0.00186
0.00581
-0.00025
-0.00151
-0.00281
0.00109
0.00037
0.00069
0.00219
-0.00424
-0.00379
-0.00590
0.00354
0.00430
0.00457
-0.00173
-0.00184
-0.00196
0.00142
0.00950
0.01547
0.01641
0.00315
-0.02679
-0.03884
-0.03508
-0.03285
-0.00866
0.02016
0.05596
0.08181
0.09680
0.07988
0.02280
-0.09455
-0.24293
-0.30005
-0.14711
0.14201
0.37213
0.36393
0.13240
-0.12172
-0.24424
-0.20659
-0.10827
-0.01031
0.04460
0.06964
0.06718
0.05948
0.04398
0.01494
-0.01239
-0.02776
-0.03151
-0.03325
-0.02238
-0.00538
0.00299
0.00756
0.01554
0.01406
0.01222
0.00317
0.00145
-0.00044
-0.00364
-0.00704
-0.00741
-0.00465
-0.00026
0.00056
-0.00268
-0.00023
0.00351
0.00289
0.00415
0.00568
0.00402
0.00139
-0.00518
-0.00425
-0.00774
-0.00440
0.00034
-0.00221
0.00391
0.00977
0.00214
0.00124
-0.00103
-0.00066
-0.00094
-0.00401
-0.00324
-0.00150
0.00307
0.00234
0.00359
-0.00127
-0.00458
-0.00437
0.00219
0.00213
0.00324
0.00262
0.00295
0.00163
-0.00365
-0.00498
-0.00463
0.00087
-0.00098
-0.00153
0.00092
0.00467
0.00507
-0.00019
-0.00704
-0.00295
0.00083
0.00292
0.00819
0.02269
0.01852
-0.00554
-0.02568
-0.04211
-0.04184
-0.03262
-0.00582
0.03007
0.06278
0.08867
0.09800
0.07773
0.01341
-0.11348
-0.27350
-0.30714
-0.11821
0.18398
0.40445
0.36402
0.10192
-0.15753
-0.25987
-0.20741
-0.09767
-0.00296
0.05771
0.07808
0.07656
0.05986
0.03201
0.00544
-0.01759
-0.02953
-0.03327
-0.02651
-0.01570
-0.00553
0.00245
0.00995
0.01234
0.01380
0.01123
0.00528
-0.00232
-0.00591
-0.00023
-0.00008
-0.00683
-0.00517
-0.00247
-0.00238
-0.00264
-0.00051
0.00582
0.00524
0.00361
0.00038
0.00509
0.00261
-0.00365
-0.00304
-0.00388
-0.00660
-0.00442
-0.00370
0.00376
0.00772
0.00601
0.00367
-0.00245
0.00230
-0.00010
-0.00301
-0.00519
-0.00271
-0.00074
-0.00021
-0.00102
0.00100
0.00129
0.00391
0.00454
0.00183
0.00178
-0.00731
-0.00386
0.00025
0.00261
0.00125
-0.00023
0.00083
-0.00639
-0.00525
-0.00169
0.00421
0.01096
0.00293
-0.00409
-0.00293
-0.00172
-0.00011
0.01519
0.02162
0.01083
-0.01279
-0.03942
-0.04639
-0.03793
-0.01688
0.01230
0.05018
0.08165
0.09818
0.09415
0.05061
-0.05162
-0.21584
-0.33572
-0.23552
0.05631
0.35383
0.44267
0.23921
-0.07463
-0.25695
-0.25185
-0.15002
-0.03717
0.04013
0.07618
0.08203
0.07311
0.04487
0.01919
-0.00943
-0.02815
-0.03287
-0.03513
-0.02401
-0.01135
0.00055
0.01189
0.01486
0.01316
0.01368
0.00901
-0.00069
-0.00558
-0.00354
-0.00338
-0.00628
-0.00829
-0.00203
0.00109
0.00263
0.00367
0.00266
0.00051
0.00104
-0.00034
0.00041
0.00302
0.00190
0.00018
-0.00447
-0.00382
-0.00278
-0.00402
-0.00135
0.00514
0.00351
0.00314
0.00324
-0.00027
0.00131
0.00036
-0.00483
-0.00503
-0.00200
0.00089
0.00087
-0.00020
0.00017
0.00410
0.00415
-0.00236
-0.00298
-0.00014
0.00348
0.00091
-0.00055
0.00273
-0.00201
-0.00940
-0.00638
-0.00007
0.00407
0.00586
0.00714
0.00211
-0.00601
-0.00536
-0.00134
0.01081
0.01737
0.01471
0.00139
-0.01870
-0.03355
-0.04181
-0.03757
-0.01451
0.02267
0.05950
0.08583
0.09030
0.07894
0.02447
-0.08436
-0.22688
-0.29466
-0.16657
0.10595
0.35488
0.37969
0.16579
-0.09897
-0.24237
-0.22095
-0.12127
-0.02418
0.04187
0.07334
0.08109
0.06411
0.03781
0.01299
-0.01142
-0.02881
-0.03537
-0.02969
-0.01672
-0.00735
-0.00047
0.01025
0.01557
0.01267
0.00810
0.00507
0.00184
-0.00264
-0.00345
-0.00415
-0.00200
-0.00130
-0.00455
-0.00588
-0.00351
0.00156
0.00164
0.00366
0.00608
0.00571
0.00538
0.00153
-0.00360
-0.00478
-0.00726
-0.00627
-0.00278
0.00296
0.00306
0.00196
0.00294
0.00193
0.00389
0.00057
0.00068
0.00044
-0.00250
-0.00704
-0.00734
-0.00064
0.00628
0.00439
0.00066
0.00040
0.00049
0.00046
-0.00056
-0.00139
0.00065
0.00090
-0.00049
-0.00024
0.00044
0.00009
-0.00910
-0.00385
0.00473
0.00677
0.00258
-0.00343
-0.00157
-0.00119
0.00045
0.00654
0.01928
0.01919
0.00098
-0.02167
-0.04035
-0.04320
-0.03253
-0.00815
0.02499
0.05348
0.07998
0.09265
0.08218
0.03044
-0.08993
-0.23958
-0.29457
-0.15442
0.12157
0.35288
0.36896
0.15603
-0.10384
-0.23797
-0.21937
-0.11701
-0.01780
0.04333
0.07203
0.07729
0.06254
0.03481
0.00958
-0.01148
-0.02312
-0.03006
-0.02846
-0.02181
-0.01112
0.00246
0.00742
0.01613
0.01512
0.01033
0.00521
0.00037
-0.00292
-0.00430
-0.00417
-0.00620
-0.00090
-0.00271
-0.00396
-0.00049
0.00145
0.00339
0.00241
0.00195
0.00319
0.00474
0.00180
-0.00184
-0.00276
-0.00403
-0.00454
-0.00378
-0.00374
0.00080
0.00337
0.00572
0.00633
0.00387
0.00131
-0.00371
-0.00374
-0.00715
-0.00273
0.00173
0.00173
0.00283
0.00265
0.00013
-0.00501
-0.00184
0.00261
0.00365
0.00252
0.00141
-0.00008
-0.00138
-0.00199
-0.00169
-0.00301
-0.00890
-0.00302
0.00551
0.00749
0.00736
-0.00100
-0.00408
-0.00159
0.00051
0.00794
0.02064
0.01582
-0.00641
-0.02935
-0.04201
-0.03990
-0.02476
-0.00449
0.02708
0.06816
0.09510
0.10230
0.07769
-0.00017
-0.14254
-0.29212
-0.30250
-0.09178
0.22903
0.43023
0.34697
0.06582
-0.18426
-0.26225
-0.19839
-0.08871
0.00191
0.05723
0.08095
0.08010
0.06192
0.03564
0.00558
-0.02430
-0.03577
-0.03557
-0.02671
-0.01590
-0.00400
0.00728
0.01119
0.01182
0.01477
0.01075
0.00652
-0.00101
-0.00792
-0.00469
-0.00324
-0.00510
-0.00378
-0.00238
-0.00151
0.00225
0.00017
0.00464
0.00595
-0.00121
-0.00052
0.00220
0.00422
0.00198
-0.00717
-0.00644
-0.00163
-0.00006
-0.00048
-0.00313
0.00237
0.00729
0.00169
0.00142
0.00185
-0.00064
0.00087
-0.00272
-0.00626
-0.00130
-0.00016
-0.00145
0.00155
0.00191
0.00151
0.00105
0.00110
0.00096
0.00108
0.00064
0.00020
-0.00091
-0.00168
-0.00248
-0.00175
-0.00357
-0.00375
-0.00194
0.00671
0.01008
0.00337
-0.00184
-0.00585
-0.00362
-0.00340
0.00481
0.01499
0.01705
0.00516
-0.01131
-0.02823
-0.03784
-0.03309
-0.02003
0.00692
0.04222
0.07618
0.09252
0.08734
0.04299
-0.05622
-0.19781
-0.28823
-0.20415
0.04847
0.31372
0.38355
0.20917
-0.05148
-0.21646
-0.22696
-0.14046
-0.04123
0.02960
0.06685
0.07765
0.06826
0.04362
0.01735
-0.00765
-0.02295
-0.03060
-0.03124
-0.02479
-0.01193
0.00304
0.00788
0.01141
0.01247
0.01180
0.00975
0.00491
-0.00369
-0.00735
-0.00411
-0.00542
-0.00480
-0.00323
0.00119
0.00120
-0.00160
0.00063
0.00411
0.00516
0.00169
0.00177
-0.00031
0.00028
-0.00190
-0.00613
-0.00336
0.00100
0.00204
-0.00160
-0.00022
0.00110
0.00238
0.00310
0.00171
-0.00064
-0.00109
-0.00177
-0.00161
0.00069
-0.00026
-0.00172
-0.00026
0.00243
-0.00005
-0.00378
-0.00144
0.00395
0.00442
0.00114
-0.00055
0.00097
-0.00191
-0.00329
-0.00125
-0.00189
-0.00145
0.00045
0.00032
0.00342
0.00379
-0.00223
-0.00529
-0.00247
0.00058
0.00696
0.01721
0.01930
0.00942
-0.01479
-0.03493
-0.04318
-0.03663
-0.01933
0.00933
0.04487
0.07648
0.09358
0.08840
0.04686
-0.05212
-0.19577
-0.28570
-0.20111
0.03408
0.28774
0.37635
0.22493
-0.03186
-0.20513
-0.22528
-0.14530
-0.04618
0.02679
0.06315
0.07137
0.06307
0.04685
0.02381
-0.00576
-0.02272
-0.02820
-0.02804
-0.02657
-0.01470
-0.00025
0.00921
0.01385
0.01216
0.01011
0.00515
0.00265
-0.00017
-0.00244
-0.00194
-0.00383
-0.00566
-0.00416
-0.00205
-0.00176
-0.00309
0.00107
0.00617
0.00602
0.00320
0.00267
0.00129
-0.00246
-0.00223
-0.00300
-0.00205
-0.00097
-0.00388
-0.00503
0.00081
0.00629
0.00416
0.00313
0.00274
0.00093
-0.00249
-0.00294
-0.00127
-0.00080
-0.00113
-0.00424
-0.00172
0.00350
0.00420
0.00007
-0.00197
0.00128
0.00190
0.00141
0.00078
-0.00003
-0.00090
-0.00195
-0.00239
-0.00235
-0.00049
-0.00093
0.00021
0.00296
0.00442
-0.00160
-0.00504
-0.00058
0.00293
-0.00031
0.00065
0.01412
0.02086
0.01171
-0.01153
-0.03011
-0.04071
-0.04076
-0.02652
0.00242
0.04000
0.07234
0.09382
0.09921
0.06609
-0.02426
-0.17376
-0.30465
-0.26497
-0.02050
0.28278
0.41798
0.27912
0.00216
-0.20098
-0.24575
-0.17079
-0.06583
0.01525
0.06181
0.07934
0.07490
0.05518
0.02604
-0.00332
-0.02148
-0.03291
-0.03541
-0.02679
-0.01181
0.00059
0.00721
0.00964
0.01296
0.01478
0.00908
0.00195
-0.00163
-0.00350
-0.00359
-0.00459
-0.00739
-0.00375
-0.00102
-0.00051
0.00195
0.00064
0.00366
0.00426
0.00156
0.00107
0.00272
0.00307
-0.00059
-0.00518
-0.00803
-0.00656
-0.00483
0.00302
0.00845
0.00759
0.00428
0.00049
-0.00183
-0.00396
-0.00467
-0.00210
0.00210
0.00213
-0.00112
-0.00324
0.00065
0.00280
0.00083
-0.00038
0.00188
0.00246
-0.00222
-0.00367
-0.00049
0.00083
0.00053
0.00100
0.00144
0.00314
-0.00075
-0.00651
-0.00476
0.00285
0.00529
0.00145
-0.00404
-0.00436
-0.00023
0.00112
0.00065
0.00434
0.01594
0.01571
0.00842
-0.00383
-0.02469
-0.04183
-0.04483
-0.02553
0.00362
0.03413
0.06710
0.08852
0.09166
0.06410
-0.02035
-0.15055
-0.26360
-0.24221
-0.04621
0.21557
0.36773
0.28537
0.04678
-0.16012
-0.22844
-0.17446
-0.08009
0.00140
0.05487
0.07601
0.07049
0.05278
0.02980
0.00397
-0.01700
-0.02896
-0.03205
-0.02776
-0.01942
-0.00589
0.00732
0.01432
0.01419
0.01195
0.00817
0.00485
0.00246
-0.00398
-0.00629
-0.00559
-0.00445
-0.00701
-0.00568
0.00187
0.00522
0.00583
0.00263
-0.00172
-0.00073
0.00265
0.00467
0.00167
-0.00137
-0.00209
-0.00495
-0.00593
-0.00344
0.00221
0.00231
0.00063
0.00375
0.00257
0.00198
0.00195
0.00030
-0.00014
-0.00343
-0.00588
-0.00289
0.00197
0.00110
-0.00100
0.00090
0.00429
0.00197
-0.00089
-0.00176
-0.00043
0.00147
0.00051
-0.00018
-0.00123
-0.00201
-0.00269
-0.00008
0.00357
0.00378
-0.00039
-0.00024
-0.00086
-0.00441
-0.00787
-0.00427
0.00651
0.01001
0.00430
0.00081
0.01048
0.01681
0.00550
-0.01412
-0.03003
-0.03644
-0.03285
-0.02282
0.00309
0.03834
0.07187
0.09464
0.09179
0.05317
-0.03866
-0.18060
-0.28581
-0.22500
0.00898
0.27602
0.38139
0.24536
-0.01010
-0.19695
-0.23042
-0.15580
-0.05492
0.02202
0.06312
0.07603
0.06718
0.04501
0.01942
-0.00379
-0.02031
-0.02924
-0.03149
-0.02330
-0.00864
0.00118
0.00884
0.01079
0.01075
0.00484
0.00114
0.00300
0.00507
0.00398
-0.00397
-0.00701
-0.00478
-0.00119
-0.00368
-0.00365
-0.00077
0.00144
0.00237
0.00493
0.00590
0.00301
0.00018
-0.00263
-0.00292
-0.00060
-0.00032
-0.00377
-0.00489
-0.00199
0.00169
0.00335
0.00357
0.00312
0.00453
0.00155
-0.00414
-0.00587
-0.00135
0.00069
-0.00007
0.00018
0.00024
0.00050
0.00025
0.00017
-0.00012
0.00003
0.00031
0.00111
0.00199
0.00055
-0.00370
-0.00332
0.00144
0.00316
0.00204
0.00095
0.00054
-0.00117
-0.00712
-0.00590
0.00160
0.00471
0.00036
-0.00073
0.00254
0.00412
0.00028
-0.00173
0.00972
0.01788
0.01201
-0.00716
-0.02731
-0.04089
-0.04173
-0.02654
0.00101
0.03583
0.07076
0.09361
0.09779
0.06929
-0.01505
-0.15849
-0.29670
-0.27836
-0.04761
0.25855
0.41630
0.30301
0.03119
-0.18884
-0.25055
-0.18328
-0.07680
0.01043
0.06110
0.07894
0.07574
0.05697
0.02857
-0.00117
-0.02182
-0.03004
-0.03101
-0.02626
-0.01686
-0.00571
0.00645
0.01344
0.01433
0.01275
0.00701
0.00163
-0.00007
-0.00056
-0.00266
-0.00513
-0.00428
-0.00326
-0.00344
-0.00267
-0.00038
0.00127
0.00103
0.00201
0.00429
0.00559
0.00550
0.00109
-0.00347
-0.00388
-0.00325
-0.00431
-0.00554
-0.00379
0.00090
0.00482
0.00701
0.00619
0.00218
0.00042
-0.00260
-0.00478
-0.00408
-0.00128
0.00050
0.00063
0.00128
-0.00027
-0.00151
0.00014
0.00227
0.00244
0.00056
-0.00101
-0.00009
0.00064
0.00087
0.00067
0.00009
-0.00282
-0.00512
-0.00346
0.00013
0.00370
0.00460
0.00244
-0.00148
-0.00362
-0.00096
0.00221
-0.00076
-0.00064
0.01145
0.01950
0.01123
-0.00714
-0.02755
-0.04101
-0.03701
-0.01968
0.00431
0.03268
0.06073
0.08443
0.09002
0.06044
-0.01852
-0.14496
-0.25872
-0.24407
-0.05110
0.21853
0.37271
0.28845
0.04216
-0.16908
-0.23159
-0.17258
-0.07461
0.00556
0.05480
0.07526
0.07106
0.05184
0.02823
0.00276
-0.01918
-0.03213
-0.03091
-0.02212
-0.01371
-0.00616
0.00285
0.01185
0.01275
0.01113
0.01044
0.00709
0.00200
-0.00404
-0.00855
-0.00679
-0.00453
-0.00243
-0.00126
-0.00135
0.00207
0.00167
0.00010
0.00262
0.00421
0.00473
0.00366
0.00037
-0.00337
-0.00569
-0.00693
-0.00458
0.00188
0.00334
0.00106
0.00138
0.00321
0.00266
0.00060
-0.00013
0.00051
-0.00041
-0.00347
-0.00451
-0.00170
0.00172
0.00283
0.00126
-0.00056
-0.00020
-0.00005
-0.00010
-0.00024
0.00198
0.00158
-0.00152
0.00025
0.00196
-0.00109
-0.00361
-0.00259
-0.00013
0.00167
0.00039
0.00086
0.00241
-0.00097
-0.00575
-0.00347
0.00175
0.00381
0.00963
0.01729
0.01588
0.00328
-0.01691
-0.03553
-0.04153
-0.03241
-0.01555
0.00912
0.04356
0.07754
0.09691
0.09074
0.04418
-0.06182
-0.20741
-0.29215
-0.19910
0.05700
0.31395
0.37810
0.20556
-0.05210
-0.21337
-0.22192
-0.14002
-0.04072
0.03072
0.06791
0.07468
0.06141
0.04092
0.01636
-0.00519
-0.01912
-0.02587
-0.02856
-0.02438
-0.01409
-0.00320
0.00582
0.01177
0.01445
0.01471
0.00878
0.00312
-0.00121
-0.00605
-0.00638
-0.00512
-0.00552
-0.00344
0.00043
0.00048
0.00155
0.00349
0.00402
0.00056
-0.00177
-0.00091
0.00293
0.00642
0.00171
-0.00448
-0.00582
-0.00499
-0.00483
-0.00224
0.00439
0.00604
0.00190
0.00266
0.00444
0.00340
-0.00264
-0.00821
-0.00605
0.00032
0.00314
0.00156
0.00060
-0.00026
-0.00076
-0.00127
-0.00153
0.00054
0.00507
0.00657
0.00266
-0.00195
-0.00436
-0.00687
-0.00613
-0.00155
0.00286
0.00252
0.00280
0.00444
0.00163
-0.00110
-0.00434
-0.00284
0.00039
0.00283
0.00938
0.01740
0.01574
-0.00441
-0.02739
-0.03886
-0.03799
-0.02836
-0.00640
0.02848
0.06638
0.09318
0.09680
0.07094
-0.00220
-0.13223
-0.27331
-0.28912
-0.09443
0.20934
0.40845
0.34275
0.07520
-0.17269
-0.25814
-0.19999
-0.08863
0.00601
0.05936
0.07601
0.07563
0.06111
0.03303
0.00257
-0.01978
-0.03008
-0.03329
-0.02789
-0.01732
-0.00670
0.00318
0.01112
0.01597
0.01609
0.01206
0.00674
-0.00162
-0.00709
-0.00726
-0.00728
-0.00664
0.00021
0.00265
-0.00111
-0.00230
0.00008
0.00404
0.00425
0.00370
0.00146
0.00020
0.00089
-0.00137
-0.00452
-0.00041
-0.00143
-0.00470
-0.00308
-0.00025
0.00137
0.00464
0.00563
0.00551
0.00455
-0.00313
-0.00553
-0.00662
-0.00350
-0.00156
0.00100
0.00265
0.00176
0.00185
0.00152
0.00173
0.00119
0.00073
-0.00067
-0.00215
-0.00174
-0.00088
-0.00208
-0.00169
-0.00204
0.00014
0.00333
0.00237
0.00360
0.00450
-0.00301
-0.00817
-0.00630
-0.00087
0.01065
0.02182
0.01999
0.00347
-0.02123
-0.04143
-0.04644
-0.02978
-0.00361
0.02587
0.05596
0.07710
0.08658
0.07186
0.01591
-0.09085
-0.22034
-0.27301
-0.14373
0.12259
0.34738
0.34997
0.13523
-0.11118
-0.23061
-0.20596
-0.10916
-0.01325
0.04563
0.07281
0.07358
0.05660
0.03255
0.00911
-0.01218
-0.02526
-0.02865
-0.02758
-0.02047
-0.00723
0.00348
0.01024
0.01144
0.01277
0.01088
0.00509
0.00011
-0.00635
-0.00409
-0.00154
-0.00315
-0.00452
-0.00168
0.00215
0.00132
-0.00202
-0.00296
-0.00032
0.00239
0.00621
0.00751
0.00200
-0.00163
-0.00289
-0.00536
-0.00576
-0.00457
-0.00040
0.00323
0.00313
0.00483
0.00381
0.00031
-0.00199
-0.00226
0.00127
-0.00115
-0.00195
0.00013
-0.00115
-0.00325
-0.00220
0.00094
0.00537
0.00516
0.00098
0.00072
-0.00092
-0.00212
-0.00406
-0.00348
0.00001
0.00091
-0.00042
0.00122
0.00192
0.00215
0.00092
-0.00354
-0.00396
-0.00110
0.00160
0.00566
0.01573
0.01791
0.00558
-0.01196
-0.02869
-0.03907
-0.03730
-0.02121
0.00909
0.04143
0.06796
0.08637
0.08533
0.05127
-0.03585
-0.16913
-0.26931
-0.21987
-0.00246
0.25610
0.37126
0.25045
-0.00008
-0.19000
-0.22878
-0.15697
-0.05685
0.02215
0.06375
0.07239
0.06364
0.04513
0.02080
-0.00182
-0.01808
-0.02636
-0.02960
-0.02425
-0.01237
-0.00524
0.00180
0.01279
0.01701
0.01297
0.00765
0.00268
-0.00121
-0.00316
-0.00460
-0.00698
-0.00495
-0.00295
-0.00177
0.00059
0.00266
0.00307
-0.00042
0.00079
0.00321
0.00377
0.00242
-0.00064
-0.00049
-0.00196
-0.00464
-0.00405
-0.00386
-0.00264
0.00170
0.00470
0.00609
0.00605
0.00253
-0.00380
-0.00455
0.00020
-0.00042
-0.00556
-0.00375
0.00102
0.00284
0.00301
0.00076
0.00139
0.00163
0.00079
-0.00064
-0.00176
0.00058
0.00155
-0.00052
-0.00250
-0.00616
-0.00587
-0.00035
0.00415
0.00764
0.00791
0.00125
-0.00623
-0.00474
-0.00222
0.00374
0.01506
0.01914
0.00566
-0.01608
-0.03658
-0.04231
-0.03365
-0.01514
0.01988
0.05710
0.08818
0.09717
0.07998
0.02138
-0.09712
-0.24520
-0.30056
-0.15026
0.14506
0.38238
0.37009
0.12706
-0.13258
-0.24395
-0.20936
-0.10822
-0.01053
0.05171
0.07330
0.07154
0.05840
0.03547
0.00983
-0.01361
-0.02472
-0.02744
-0.02804
-0.02283
-0.01145
0.00224
0.00976
0.01444
0.01371
0.01153
0.00762
-0.00003
-0.00224
-0.00329
-0.00634
-0.00672
-0.00442
-0.00255
0.00048
-0.00306
-0.00091
0.00580
0.00722
0.00332
0.00158
0.00142
0.00004
-0.00106
-0.00458
-0.00507
-0.00204
-0.00060
-0.00305
-0.00010
0.00278
0.00505
0.00486
0.00366
0.00268
-0.00238
-0.00603
-0.00438
-0.00360
-0.00116
0.00172
0.00152
0.00209
0.00263
0.00206
-0.00151
-0.00037
0.00252
0.00132
-0.00033
-0.00169
-0.00250
-0.00300
-0.00539
-0.00385
0.00255
0.00634
0.00602
0.00183
-0.00253
-0.00217
-0.00338
-0.00012
0.01290
0.01938
0.01341
-0.00479
-0.02950
-0.04353
-0.04391
-0.02521
0.00407
0.03840
0.06923
0.08770
0.09563
0.07005
-0.00996
-0.14879
-0.28583
-0.28303
-0.07168
0.22813
0.41922
0.34198
0.05662
-0.19291
-0.26533
-0.19316
-0.08149
0.00780
0.06121
0.08042
0.07794
0.05860
0.02836
0.00356
-0.01640
-0.03049
-0.03741
-0.03027
-0.01610
-0.00352
0.00594
0.01017
0.01397
0.01370
0.00870
0.00739
0.00440
-0.00391
-0.00884
-0.00788
-0.00566
-0.00291
-0.00182
-0.00302
0.00184
0.00502
0.00535
0.00141
0.00078
0.00172
0.00152
0.00183
-0.00013
-0.00256
-0.00657
-0.00593
-0.00344
0.00044
0.00352
0.00573
0.00480
0.00290
0.00207
-0.00247
-0.00332
-0.00206
-0.00195
-0.00095
-0.00249
-0.00175
0.00164
0.00167
0.00128
0.00231
0.00515
0.00320
-0.00192
-0.00274
-0.00380
-0.00349
-0.00258
-0.00055
-0.00096
0.00133
0.00321
0.00403
0.00468
-0.00240
-0.00800
-0.00573
0.00573
0.01686
0.02235
0.01126
-0.01199
-0.03182
-0.04092
-0.03996
-0.02206
0.00875
0.03765
0.06764
0.08983
0.08947
0.05357
-0.03181
-0.15812
-0.26251
-0.23403
-0.03165
0.23649
0.37652
0.27486
0.02728
-0.17967
-0.23379
-0.16993
-0.07150
0.01121
0.06335
0.08109
0.06808
0.04510
0.02330
0.00467
-0.02008
-0.03132
-0.02984
-0.02429
-0.01225
-0.00607
0.00462
0.01291
0.01261
0.01149
0.00737
0.00512
0.00113
-0.00284
-0.00667
-0.00459
-0.00005
-0.00382
-0.00579
-0.00243
-0.00068
0.00009
0.00327
0.00489
0.00555
0.00483
0.00260
-0.00066
-0.00184
-0.00281
-0.00777
-0.00906
-0.00386
0.00531
0.00696
0.00293
0.00305
0.00272
-0.00015
-0.00218
-0.00146
-0.00040
0.00090
-0.00285
-0.00450
-0.00169
0.00043
0.00218
0.00250
0.00352
0.00440
-0.00099
-0.00213
0.00021
-0.00225
-0.00502
-0.00296
0.00090
0.00099
0.00138
0.00419
0.00421
-0.00370
-0.00615
-0.00484
0.00073
0.00975
0.02101
0.01933
0.00219
-0.01640
-0.03396
-0.04311
-0.03681
-0.01626
0.01573
0.04873
0.07729
0.09278
0.08171
0.03772
-0.06228
-0.19963
-0.28355
-0.19452
0.05211
0.31182
0.38820
0.20809
-0.06651
-0.22740
-0.22180
-0.13276
-0.03475
0.03223
0.06958
0.07581
0.06294
0.04385
0.01720
-0.01063
-0.02786
-0.02988
-0.02685
-0.01875
-0.01121
-0.00178
0.00804
0.01172
0.01203
0.01089
0.00830
0.00559
-0.00020
-0.00721
-0.00446
-0.00608
-0.00537
-0.00563
-0.00108
0.00390
0.00089
0.00059
0.00142
0.00612
0.00323
0.00209
0.00127
0.00303
-0.00230
-0.01022
-0.00802
-0.00590
0.00282
0.00570
0.00430
0.00714
0.00243
0.00027
-0.00261
-0.00231
-0.00242
-0.00385
0.00102
-0.00059
-0.00082
-0.00018
0.00084
0.00167
0.00222
0.00194
0.00114
0.00069
0.00255
-0.00085
-0.00593
-0.00624
-0.00443
-0.00039
0.00516
0.00415
0.00469
0.00282
-0.00576
-0.00412
-0.00305
0.00286
0.01030
0.01964
0.01857
-0.00219
-0.02704
-0.04160
-0.04126
-0.02770
-0.00598
0.02180
0.05927
0.08954
0.09837
0.08239
0.01588
-0.10944
-0.25841
-0.31305
-0.14576
0.16830
0.41129
0.38259
0.11777
-0.15364
-0.26292
-0.21557
-0.10805
-0.00650
0.05694
0.08292
0.07900
0.05950
0.03356
0.00789
-0.01426
-0.02971
-0.03569
-0.03058
-0.01788
-0.00547
0.00562
0.01007
0.01031
0.01332
0.01342
0.00753
-0.00107
-0.00335
-0.00456
-0.00416
-0.00722
-0.00747
-0.00033
0.00201
0.00065
-0.00228
0.00331
0.00487
0.00355
0.00285
0.00220
-0.00016
-0.00129
-0.00156
-0.00640
-0.00421
-0.00332
-0.00253
0.00311
0.00641
0.00379
0.00136
0.00132
0.00127
0.00276
-0.00137
-0.00617
-0.00439
-0.00334
-0.00340
-0.00004
0.00387
0.00602
0.00464
0.00293
0.00136
-0.00011
-0.00124
-0.00649
-0.00579
-0.00312
-0.00380
-0.00176
0.00678
0.01107
0.00487
-0.00452
-0.00804
-0.00211
-0.00110
0.00749
0.02118
0.02135
0.00431
-0.02255
-0.04294
-0.04479
-0.03140
-0.01232
0.01618
0.05446
0.08714
0.10096
0.08820
0.03190
-0.07609
-0.23209
-0.32117
-0.20141
0.09303
0.37602
0.42569
0.19471
-0.10600
-0.26072
-0.23840
-0.13283
-0.02706
0.04584
0.07600
0.07892
0.06698
0.04805
0.01682
-0.01053
-0.02858
-0.03676
-0.03139
-0.02733
-0.01081
0.00423
0.01012
0.01514
0.01507
0.01531
0.00643
-0.00190
-0.00353
-0.00329
-0.00265
-0.00841
-0.00544
-0.00293
-0.00201
0.00265
0.00030
0.00196
0.00185
0.00237
0.00458
0.00554
0.00302
-0.00109
-0.00176
-0.00655
-0.00607
-0.00539
-0.00412
-0.00242
0.00194
0.00787
0.01100
0.01081
0.00307
-0.00262
-0.01032
-0.01248
-0.00609
-0.00117
0.00303
0.00311
0.00662
0.00555
0.00291
0.00087
-0.00222
0.00086
-0.00624
-0.00634
-0.00054
0.00181
-0.00289
-0.00349
0.00596
0.01048
0.00545
-0.00644
-0.01113
-0.00616
0.00244
0.01316
0.02235
0.01792
0.00015
-0.02425
-0.04008
-0.04051
-0.02728
-0.00926
0.01569
0.05146
0.08956
0.10100
0.08074
0.01646
-0.10360
-0.24293
-0.29382
-0.14268
0.14885
0.37932
0.36108
0.11957
-0.13320
-0.23924
-0.20777
-0.10854
-0.00721
0.05537
0.07431
0.06949
0.05647
0.03344
0.00935
-0.01514
-0.02591
-0.02694
-0.02594
-0.02126
-0.01075
0.00513
0.01162
0.00837
0.00974
0.01399
0.00738
0.00264
-0.00226
-0.00389
-0.00563
-0.00851
-0.00415
0.00010
-0.00224
-0.00309
0.00166
0.00162
0.00877
0.00616
0.00074
-0.00022
0.00020
-0.00138
-0.00256
-0.00559
-0.00445
-0.00106
-0.00552
0.00421
0.00902
0.00560
0.00004
-0.00198
-0.00096
0.00001
-0.00003
-0.00264
-0.00269
-0.00213
-0.00062
0.00005
0.00068
0.00486
0.00381
0.00161
-0.00030
-0.00240
-0.00331
-0.00319
-0.00105
-0.00197
0.00420
0.00219
0.00098
-0.00008
-0.00309
-0.00371
-0.00454
0.00092
0.00823
0.02090
0.02241
0.01012
-0.01590
-0.03928
-0.04895
-0.03990
-0.01452
0.01251
0.04310
0.07724
0.09813
0.09354
0.04714
-0.05300
-0.19078
-0.29490
-0.22791
0.02138
0.30451
0.40866
0.24289
-0.03981
-0.22132
-0.23484
-0.14980
-0.04949
0.02770
0.06736
0.07590
0.06814
0.04770
0.02215
-0.00521
-0.02560
-0.03057
-0.02685
-0.02523
-0.01533
-0.00376
0.01053
0.01278
0.01129
0.01326
0.00850
0.00467
0.00150
-0.00432
-0.00894
-0.00688
-0.00486
-0.00289
-0.00238
0.00186
0.00418
0.00012
-0.00049
0.00278
0.00468
0.00508
0.00336
-0.00111
-0.00403
-0.00595
-0.00703
-0.00212
-0.00045
0.00397
0.00263
0.00186
0.00317
0.00255
0.00085
-0.00177
-0.00030
-0.00041
-0.00262
-0.00302
-0.00216
-0.00108
0.00001
0.00030
0.00508
0.00376
0.00210
-0.00035
0.00259
0.00056
-0.00490
-0.00921
-0.00574
-0.00035
0.00316
0.00301
0.00948
0.00472
-0.00678
-0.00334
-0.00524
0.00521
0.01434
0.02235
0.00803
-0.01079
-0.02884
-0.04259
-0.03838
-0.02561
0.00411
0.03579
0.07154
0.09736
0.09840
0.06826
-0.02193
-0.17352
-0.30940
-0.27505
-0.03246
0.28792
0.44615
0.29825
-0.00975
-0.22632
-0.25220
-0.16994
-0.05950
0.01901
0.06867
0.08137
0.07066
0.05069
0.02405
-0.00050
-0.02329
-0.03100
-0.02909
-0.02430
-0.01986
-0.00404
0.00576
0.01272
0.01695
0.01354
0.00930
0.00492
-0.00286
-0.00413
-0.00324
-0.00628
-0.00850
-0.00625
0.00009
0.00482
0.00282
-0.00070
-0.00085
0.00308
0.00538
0.00179
0.00064
0.00266
0.00049
-0.00467
-0.00521
-0.00506
-0.00365
-0.00363
0.00354
0.00721
0.00585
0.00498
-0.00013
0.00034
-0.00168
-0.00845
-0.00356
0.00019
-0.00076
0.00055
0.00103
0.00251
0.00256
0.00285
0.00172
0.00067
-0.00113
-0.00237
-0.00305
-0.00221
-0.00430
-0.00415
0.00374
0.00326
0.00432
0.00434
-0.00228
-0.00391
-0.00571
0.00337
0.01756
0.02015
0.01185
-0.00777
-0.03122
-0.04579
-0.04159
-0.02388
0.00201
0.03499
0.06824
0.09629
0.10495
0.07241
-0.01230
-0.15443
-0.30369
-0.30740
-0.07013
0.27052
0.45485
0.33213
0.02554
-0.20806
-0.26726
-0.18995
-0.07620
0.01469
0.06430
0.08090
0.07699
0.05777
0.03033
-0.00009
-0.01914
-0.03220
-0.03527
-0.02937
-0.01345
-0.00562
0.00615
0.00976
0.01029
0.01728
0.01328
0.00805
0.00112
-0.00656
-0.01087
-0.00635
-0.00294
-0.00489
-0.00304
0.00197
0.00261
-0.00030
0.00242
0.00659
0.00119
0.00173
0.00161
0.00127
0.00246
-0.00504
-0.00812
-0.00568
-0.00544
0.00017
0.00224
0.00929
0.01041
0.00310
0.00001
-0.00410
-0.00437
-0.00487
-0.00431
-0.00147
0.00199
0.00166
0.00079
0.00054
0.00421
0.00336
0.00141
0.00009
-0.00189
-0.00274
-0.00330
-0.00196
-0.00417
-0.00396
0.00321
0.00713
0.00828
0.00246
-0.00499
-0.00804
-0.00936
-0.00402
0.01607
0.03102
0.02050
-0.00115
-0.02714
-0.04778
-0.04672
-0.02825
-0.00121
0.02718
0.05870
0.08641
0.09075
0.07202
0.01391
-0.09717
-0.23980
-0.29019
-0.14638
0.14265
0.37929
0.36877
0.12689
-0.12993
-0.24679
-0.21162
-0.10667
-0.01401
0.04878
0.07274
0.07679
0.06333
0.04008
0.01089
-0.01365
-0.03288
-0.03525
-0.02783
-0.01999
-0.00973
0.00509
0.01239
0.01310
0.01309
0.01307
0.00810
-0.00159
-0.00585
-0.00355
-0.00366
-0.00788
-0.00497
-0.00371
0.00194
0.00042
0.00293
0.00239
0.00370
0.00109
0.00023
0.00367
0.00414
0.00003
-0.00701
-0.00479
-0.00448
0.00036
0.00110
-0.00294
0.00063
0.00450
0.00393
0.00418
0.00154
0.00342
-0.00039
-0.00755
-0.00808
-0.00287
-0.00238
0.00229
0.00674
0.00484
0.00314
0.00040
-0.00118
-0.00310
-0.00276
-0.00204
0.00173
-0.00253
-0.00115
0.00161
0.00263
0.00069
-0.00165
-0.00473
-0.00486
0.00189
0.00886
0.02412
0.02037
0.00297
-0.01734
-0.03631
-0.04197
-0.03513
-0.01833
0.01055
0.04340
0.07211
0.09095
0.08950
0.04456
-0.04300
-0.17453
-0.27860
-0.21931
0.00245
0.27428
0.38829
0.24380
-0.01915
-0.19951
-0.22430
-0.15049
-0.06031
0.01700
0.06657
0.07830
0.06658
0.04816
0.02316
-0.00701
-0.02415
-0.02922
-0.02653
-0.02401
-0.01608
-0.00449
0.00969
0.01722
0.01324
0.00881
0.00720
0.00344
-0.00121
-0.00409
-0.00553
-0.00559
-0.00476
-0.00402
0.00033
0.00076
0.00306
0.00083
0.00050
0.00406
0.00189
0.00166
-0.00005
0.00279
-0.00062
-0.00406
-0.00662
-0.00380
-0.00158
0.00171
0.00287
0.00285
0.00556
0.00196
0.00120
0.00020
-0.00309
-0.00317
-0.00429
-0.00453
0.00003
0.00306
0.00068
0.00090
0.00970
0.00698
-0.00497
-0.00820
-0.00265
0.00017
-0.00063
-0.00022
-0.00194
-0.00155
0.00090
0.00591
0.00645
-0.00218
-0.00606
-0.00822
-0.00005
0.00842
0.01693
0.01968
0.00835
-0.00997
-0.02892
-0.04173
-0.04036
-0.02314
-0.00010
0.03534
0.07283
0.09805
0.09699
0.06233
-0.02222
-0.16454
-0.29963
-0.27244
-0.03447
0.27678
0.42819
0.29273
0.00571
-0.20767
-0.25046
-0.17357
-0.06737
0.01524
0.06492
0.08269
0.07380
0.05233
0.02672
-0.00103
-0.02254
-0.03415
-0.03222
-0.02490
-0.01451
-0.00252
0.00773
0.01056
0.00974
0.01190
0.01233
0.00838
0.00149
-0.00433
-0.00863
-0.00743
-0.00464
-0.00563
-0.00026
-0.00004
-0.00144
0.00045
0.00485
0.00886
0.00306
0.00247
0.00127
0.00004
-0.00311
-0.00766
-0.00589
-0.00419
-0.00368
0.00245
0.00637
0.00882
0.00569
-0.00029
-0.00273
-0.00218
-0.00066
-0.00305
-0.00567
-0.00476
0.00444
0.00483
0.00118
-0.00065
-0.00083
0.00195
0.00250
0.00132
0.00070
0.00035
-0.00248
-0.00522
-0.00588
-0.00445
-0.00087
0.00803
0.01126
0.00240
-0.00668
-0.00645
-0.00241
0.00227
0.01621
0.02356
0.01180
-0.01002
-0.03265
-0.04286
-0.03888
-0.02438
0.00128
0.03460
0.07153
0.09264
0.09576
0.06961
-0.01314
-0.15292
-0.29063
-0.28201
-0.06498
0.24397
0.42727
0.32905
0.03669
-0.19920
-0.26001
-0.18863
-0.07543
0.01382
0.06619
0.08075
0.07248
0.04989
0.02714
0.00452
-0.01691
-0.02923
-0.03215
-0.02631
-0.01996
-0.00883
0.00532
0.01477
0.01503
0.01195
0.01021
0.00655
0.00194
-0.00513
-0.00599
-0.00459
-0.00806
-0.00598
-0.00163
0.00311
0.00194
-0.00167
0.00031
0.00379
0.00561
0.00603
0.00415
-0.00043
-0.00107
-0.00701
-0.01091
-0.00898
0.00101
0.00605
0.00427
0.00780
0.00494
-0.00024
-0.00250
-0.00123
-0.00319
-0.00113
-0.00223
-0.00460
0.00206
0.00355
-0.00076
0.00028
0.00389
0.00292
-0.00267
-0.00221
0.00184
-0.00088
-0.00043
-0.00093
-0.00408
-0.00301
0.00110
0.00588
0.00683
0.00112
-0.00882
-0.01193
-0.00553
0.01007
0.02381
0.02246
0.01177
-0.00946
-0.02939
-0.04381
-0.04096
-0.02670
0.00008
0.03479
0.06814
0.09299
0.09198
0.06115
-0.02161
-0.14771
-0.26669
-0.24497
-0.04381
0.22571
0.37034
0.27435
0.03812
-0.16110
-0.22059
-0.17224
-0.07845
0.00424
0.05515
0.07281
0.06859
0.05217
0.02765
0.00505
-0.01665
-0.02949
-0.03081
-0.02595
-0.01896
-0.00538
0.00745
0.01164
0.01326
0.01127
0.00964
0.00661
0.00251
-0.00279
-0.00850
-0.00847
-0.00746
-0.00241
0.00218
0.00203
-0.00166
-0.00283
0.00274
0.00605
0.00631
0.00526
0.00185
-0.00394
-0.00564
-0.00448
-0.00590
-0.00308
0.00320
0.00165
0.00096
0.00620
0.00364
0.00036
-0.00288
0.00008
0.00063
-0.00212
-0.00339
-0.00330
0.00184
0.00059
0.00081
0.00120
0.00145
0.00032
-0.00068
0.00098
0.00476
0.00063
-0.00408
-0.00464
-0.00483
-0.00170
0.00201
0.00460
0.00533
0.00274
-0.00808
-0.00787
-0.00124
0.00668
0.01649
0.02109
0.01334
-0.00674
-0.02712
-0.04212
-0.04051
-0.02653
-0.00315
0.02897
0.06119
0.08722
0.09594
0.06857
-0.00138
-0.12165
-0.25615
-0.27082
-0.09437
0.18375
0.37370
0.32358
0.08483
-0.14781
-0.23649
-0.18889
-0.09342
-0.00420
0.05388
0.07562
0.07203
0.05606
0.03310
0.00224
-0.01853
-0.02803
-0.02853
-0.02462
-0.01704
-0.00694
0.00244
0.01004
0.01081
0.01200
0.01262
0.00953
0.00188
-0.00531
-0.00376
-0.00566
-0.00969
-0.00974
-0.00200
0.00368
0.00282
0.00342
0.00377
0.00690
0.00215
0.00094
-0.00030
-0.00412
-0.00545
-0.00659
-0.00083
0.00527
0.00413
-0.00004
-0.00183
-0.00161
-0.00025
0.00044
0.00277
0.00309
0.00292
-0.00077
-0.00456
-0.00182
-0.00056
-0.00287
-0.00285
-0.00112
0.00351
0.00559
0.00158
0.00361
0.00344
-0.00170
-0.00467
-0.00562
-0.00199
-0.00273
-0.00394
0.00110
0.00583
0.00837
0.00509
-0.00454
-0.00835
-0.00474
-0.00204
0.00991
0.02237
0.02026
0.00244
-0.02176
-0.03594
-0.03863
-0.03413
-0.01857
0.01357
0.05029
0.08313
0.09802
0.09004
0.04014
-0.07418
-0.23166
-0.31270
-0.18654
0.09932
0.35958
0.38917
0.17792
-0.09224
-0.24095
-0.22747
-0.12805
-0.02315
0.04518
0.07340
0.07518
0.06338
0.03791
0.01128
-0.01013
-0.02403
-0.03146
-0.02787
-0.02198
-0.01048
0.00234
0.00932
0.01175
0.01328
0.01330
0.00546
0.00086
-0.00203
-0.00285
-0.00650
-0.00603
-0.00437
-0.00243
-0.00171
-0.00170
0.00283
0.00632
0.00426
0.00092
0.00165
0.00157
0.00086
-0.00310
-0.00367
-0.00069
-0.00181
-0.00625
-0.00333
0.00326
0.00594
0.00603
0.00203
-0.00024
0.00083
-0.00088
-0.00310
-0.00496
-0.00451
0.00024
0.00248
0.00185
0.00163
0.00163
0.00147
0.00119
0.00050
-0.00024
-0.00116
-0.00149
-0.00119
0.00079
-0.00560
-0.00819
0.00229
0.00739
0.00782
0.00430
-0.00336
-0.00469
-0.00727
-0.00586
0.01219
0.02688
0.02072
-0.00397
-0.02941
-0.04274
-0.04107
-0.02808
-0.00169
0.03022
0.06405
0.08747
0.09112
0.07042
0.00146
-0.12779
-0.26422
-0.27309
-0.09333
0.19189
0.38610
0.33386
0.08221
-0.16115
-0.24897
-0.19390
-0.08684
0.00188
0.05580
0.07621
0.07462
0.05423
0.02762
0.00254
-0.01449
-0.02541
-0.03035
-0.02632
-0.01701
-0.00753
0.00098
0.00975
0.01482
0.01466
0.00964
0.00430
-0.00075
-0.00142
-0.00060
-0.00647
-0.00917
-0.00493
-0.00167
0.00091
0.00145
0.00085
0.00056
0.00305
0.00460
0.00507
0.00276
-0.00146
-0.00332
-0.00431
-0.00366
-0.00215
-0.00458
0.00034
0.00719
0.00273
-0.00214
0.00029
0.00540
0.00263
-0.00218
-0.00295
0.00191
-0.00198
-0.00674
-0.00431
-0.00009
0.00421
0.00502
0.00331
0.00348
0.00153
-0.00278
-0.00352
-0.00317
-0.00101
-0.00318
-0.00315
0.00015
0.00498
0.00681
0.00424
-0.00279
-0.00738
-0.00819
-0.00399
0.01287
0.02536
0.01956
0.00055
-0.01885
-0.03388
-0.04087
-0.03572
-0.01588
0.01545
0.05036
0.07838
0.09349
0.08391
0.02958
-0.07917
-0.21418
-0.27227
-0.16030
0.08766
0.31221
0.34485
0.16804
-0.06858
-0.20647
-0.20645
-0.12419
-0.03292
0.03152
0.06625
0.07417
0.06110
0.03704
0.01254
-0.00848
-0.02164
-0.02791
-0.02540
-0.01650
-0.01292
-0.00641
0.00469
0.01297
0.01592
0.01301
0.00797
0.00319
-0.00040
-0.00494
-0.00799
-0.00765
-0.00332
-0.00209
-0.00320
0.00035
0.00360
0.00271
0.00297
0.00424
0.00413
0.00211
-0.00204
-0.00285
-0.00301
-0.00428
-0.00384
-0.00152
0.00122
0.00270
0.00436
0.00217
-0.00013
0.00054
-0.00027
-0.00011
-0.00042
0.00078
-0.00088
-0.00349
-0.00275
-0.00149
-0.00027
0.00090
0.00409
0.00448
0.00169
0.00107
-0.00020
-0.00153
-0.00302
-0.00377
-0.00371
-0.00181
0.00186
0.00167
0.00315
0.00351
0.00239
-0.00267
-0.00747
-0.00583
0.00340
0.01639
0.02132
0.01405
-0.00480
-0.02391
-0.03788
-0.04109
-0.02901
-0.00514
0.02498
0.05463
0.08112
0.09497
0.07793
0.01105
-0.10972
-0.24081
-0.27083
-0.12045
0.14600
0.35403
0.33850
0.11578
-0.12284
-0.22701
-0.19621
-0.10421
-0.01541
0.04484
0.07176
0.07255
0.05932
0.03684
0.01098
-0.01529
-0.03036
-0.03129
-0.02635
-0.01858
-0.00818
0.00425
0.01216
0.01198
0.01172
0.00962
0.00466
0.00289
-0.00097
-0.00672
-0.00698
-0.00493
-0.00258
-0.00077
-0.00011
-0.00101
-0.00109
0.00217
0.00390
0.00414
0.00276
0.00193
0.00115
-0.00015
-0.00251
-0.00621
-0.00626
-0.00096
0.00049
0.00051
0.00286
0.00392
0.00475
0.00257
0.00023
-0.00334
-0.00352
-0.00069
-0.00066
-0.00143
-0.00130
-0.00055
0.00025
0.00110
0.00164
0.00199
0.00187
0.00149
0.00065
-0.00031
-0.00135
-0.00186
-0.00153
-0.00210
-0.00575
-0.00452
0.00384
0.00893
0.00455
-0.00077
-0.00143
-0.00425
-0.00570
0.00470
0.01990
0.02145
0.00496
-0.01713
-0.03268
-0.04056
-0.03779
-0.01941
0.01251
0.04693
0.07629
0.09317
0.08931
0.04779
-0.05127
-0.19735
-0.29664
-0.22001
0.03277
0.30556
0.40092
0.24200
-0.03761
-0.22497
-0.24098
-0.15052
-0.04519
0.02856
0.06733
0.07926
0.07057
0.04627
0.01795
-0.00509
-0.02251
-0.03012
-0.03058
-0.02654
-0.01348
-0.00226
0.00734
0.01396
0.01504
0.01386
0.00670
0.00248
-0.00034
-0.00362
-0.00507
-0.00757
-0.00463
-0.00191
-0.00285
-0.00268
0.00071
0.00509
0.00292
0.00195
0.00438
0.00501
0.00310
-0.00198
-0.00349
-0.00434
-0.00714
-0.00650
-0.00151
0.00406
0.00429
0.00309
0.00442
0.00409
0.00277
0.00029
-0.00353
-0.00455
-0.00581
-0.00576
0.00021
0.00402
0.00317
0.00239
0.00189
0.00151
0.00134
-0.00133
-0.00408
-0.00210
0.00202
0.00343
-0.00024
-0.00092
-0.00075
-0.00391
-0.00517
-0.00148
0.00416
0.00657
0.00671
0.00106
-0.00760
-0.01044
-0.00682
0.00698
0.02450
0.02415
0.00674
-0.01356
-0.03091
-0.04106
-0.03962
-0.02303
0.00851
0.04311
0.07044
0.08731
0.08736
0.05233
-0.03661
-0.17117
-0.27215
-0.22180
-0.00307
0.25834
0.37534
0.25138
-0.00226
-0.19063
-0.22802
-0.15541
-0.05850
0.01913
0.06298
0.07336
0.06529
0.04594
0.02129
-0.00173
-0.01771
-0.02702
-0.02944
-0.02475
-0.01563
-0.00545
0.00607
0.01472
0.01540
0.01099
0.00532
0.00202
0.00231
-0.00079
-0.00462
-0.00714
-0.00654
-0.00361
-0.00412
-0.00102
0.00286
0.00513
0.00574
0.00253
0.00025
0.00153
0.00073
-0.00227
-0.00330
-0.00359
-0.00118
0.00079
-0.00009
-0.00002
-0.00090
-0.00109
0.00257
0.00652
0.00473
-0.00201
-0.00539
-0.00530
-0.00271
0.00211
0.00552
0.00468
-0.00133
-0.00517
-0.00488
-0.00283
0.00331
0.00635
0.00391
0.00139
-0.00094
-0.00265
-0.00334
-0.00263
-0.00016
-0.00077
-0.00192
0.00098
0.00488
0.00488
-0.00271
-0.00701
-0.00429
-0.00073
0.00832
0.01948
0.02184
0.00664
-0.01771
-0.03374
-0.03803
-0.03321
-0.01897
0.00764
0.03915
0.06852
0.08714
0.08454
0.04827
-0.03853
-0.16942
-0.26358
-0.20903
0.00259
0.24852
0.36046
0.24510
-0.00218
-0.18641
-0.22133
-0.15247
-0.05754
0.01907
0.05923
0.07219
0.06755
0.04998
0.02343
-0.00635
-0.02354
-0.02935
-0.02921
-0.02460
-0.01373
0.00102
0.01061
0.01176
0.01109
0.01096
0.00557
0.00168
0.00090
-0.00186
-0.00333
-0.00576
-0.00773
-0.00564
-0.00053
0.00263
0.00076
0.00157
0.00478
0.00421
0.00201
0.00026
0.00095
0.00084
-0.00291
-0.00712
-0.00518
-0.00083
0.00097
0.00333
0.00563
0.00236
-0.00211
-0.00132
0.00105
0.00066
-0.00067
0.00078
-0.00116
-0.00180
-0.00113
-0.00053
0.00026
0.00025
-0.00002
-0.00115
0.00002
0.00310
0.00375
0.00170
0.00009
-0.00116
-0.00141
-0.00302
-0.00538
-0.00338
0.00076
0.00288
0.00249
0.00209
0.00032
-0.00089
-0.00057
-0.00009
0.00896
0.01831
0.01502
-0.00179
-0.02167
-0.03693
-0.04110
-0.02992
-0.00826
0.02024
0.05239
0.07930
0.09469
0.08348
0.02847
-0.08515
-0.23543
-0.29882
-0.16304
0.11687
0.35761
0.37881
0.15923
-0.10924
-0.24235
-0.21617
-0.11781
-0.02126
0.04432
0.07366
0.07793
0.06337
0.03799
0.01019
-0.01615
-0.03027
-0.02984
-0.02405
-0.01587
-0.00916
0.00131
0.00898
0.00970
0.00912
0.00996
0.00909
0.00468
-0.00056
-0.00420
-0.00595
-0.00675
-0.00457
-0.00295
-0.00112
0.00171
-0.00079
-0.00093
0.00374
0.00483
0.00433
0.00480
0.00258
-0.00120
-0.00290
-0.00596
-0.00998
-0.00618
0.00295
0.00461
0.00308
0.00329
0.00428
0.00289
0.00110
-0.00021
-0.00106
-0.00257
-0.00621
-0.00702
-0.00112
0.00411
0.00315
0.00244
0.00187
0.00141
0.00113
0.00064
0.00021
-0.00076
-0.00154
-0.00267
-0.00149
0.00153
-0.00297
-0.00583
-0.00161
0.00411
0.00595
0.00568
0.00087
-0.00381
-0.00317
-0.00316
0.00813
0.02065
0.01666
-0.00507
-0.02394
-0.03409
-0.04074
-0.03452
-0.00903
0.02923
0.06297
0.08820
0.09864
0.07896
0.00917
-0.11697
-0.26214
-0.29990
-0.12804
0.17429
0.39715
0.36714
0.11603
-0.14805
-0.25814
-0.21208
-0.10340
-0.00884
0.05092
0.07772
0.07911
0.06233
0.03621
0.00947
-0.01286
-0.02910
-0.03516
-0.03192
-0.02187
-0.00639
0.00433
0.01051
0.01282
0.01520
0.01263
0.00773
0.00187
-0.00408
-0.00608
-0.00816
-0.00721
-0.00545
-0.00112
0.00248
0.00392
0.00161
-0.00156
0.00040
0.00301
0.00430
0.00331
0.00119
0.00192
-0.00103
-0.00691
-0.00937
-0.00659
0.00219
0.00476
0.00341
0.00377
0.00393
0.00410
0.00015
-0.00342
-0.00169
-0.00060
-0.00439
-0.00519
-0.00213
0.00180
0.00406
0.00322
0.00192
0.00130
0.00024
-0.00020
-0.00112
-0.00023
0.00161
-0.00188
-0.00122
-0.00261
-0.00642
-0.00418
0.00333
0.00873
0.00665
-0.00004
-0.00605
-0.00508
0.00112
0.00744
0.01518
0.01652
0.00392
-0.01709
-0.03420
-0.03696
-0.03129
-0.01656
0.01113
0.04690
0.07809
0.09546
0.08341
0.03267
-0.06914
-0.20492
-0.28034
-0.18516
0.06526
0.31281
0.37492
0.19781
-0.06112
-0.21872
-0.22374
-0.13737
-0.03977
0.03541
0.07487
0.07661
0.06260
0.04195
0.01538
-0.00916
-0.02457
-0.03184
-0.02883
-0.02201
-0.01153
0.00281
0.00942
0.01137
0.01320
0.01219
0.00694
0.00255
-0.00487
-0.00622
-0.00366
-0.00433
-0.00339
-0.00235
0.00012
0.00138
0.00094
0.00149
0.00059
-0.00026
0.00154
0.00211
0.00256
0.00354
-0.00026
-0.00203
-0.00303
-0.00598
-0.00526
-0.00288
0.00240
0.00646
0.00566
0.00321
-0.00002
-0.00018
0.00039
-0.00379
-0.00434
-0.00076
-0.00103
-0.00328
-0.00037
0.00482
0.00462
0.00136
0.00119
0.00036
-0.00110
-0.00296
-0.00375
-0.00045
0.00237
0.00168
-0.00094
-0.00122
-0.00065
-0.00186
-0.00107
0.00200
0.00029
-0.00005
-0.00109
0.00159
0.01222
0.01985
0.01350
-0.00652
-0.02440
-0.03754
-0.03957
-0.02764
-0.00468
0.02437
0.05562
0.08174
0.09216
0.07643
0.01207
-0.10444
-0.23531
-0.27193
-0.13043
0.13369
0.34810
0.34780
0.13612
-0.11456
-0.23369
-0.20515
-0.10911
-0.01833
0.04538
0.07658
0.07506
0.05763
0.03332
0.00802
-0.01335
-0.02541
-0.02829
-0.02428
-0.02093
-0.01035
-0.00024
0.00942
0.01684
0.01400
0.00874
0.00400
0.00202
-0.00228
-0.00475
-0.00548
-0.00478
-0.00366
-0.00255
-0.00133
0.00253
0.00323
0.00012
0.00005
0.00255
0.00304
0.00204
-0.00034
-0.00013
0.00027
-0.00133
-0.00307
-0.00542
-0.00311
-0.00112
0.00285
0.00387
0.00570
0.00406
-0.00133
-0.00330
-0.00132
0.00079
-0.00161
-0.00290
-0.00122
0.00142
-0.00130
-0.00009
0.00427
0.00234
-0.00136
-0.00262
-0.00185
0.00135
0.00406
0.00181
0.00050
-0.00147
-0.00187
-0.00308
-0.00428
-0.00142
0.00057
0.00301
0.00339
0.00248
-0.00241
-0.00437
-0.00305
0.00082
0.01452
0.02615
0.01738
-0.00559
-0.03325
-0.04519
-0.03906
-0.02614
-0.00358
0.02601
0.05663
0.08588
0.10201
0.08208
0.01365
-0.11285
-0.25930
-0.30181
-0.13346
0.16277
0.39377
0.37256
0.11892
-0.14634
-0.25731
-0.20968
-0.10254
-0.00783
0.05090
0.07782
0.07667
0.06224
0.03650
0.00635
-0.01782
-0.02898
-0.03166
-0.02929
-0.01973
-0.00499
0.00477
0.00970
0.01448
0.01243
0.00897
0.00457
0.00128
-0.00101
-0.00231
-0.00630
-0.00766
-0.00555
-0.00239
0.00175
0.00104
-0.00014
0.00132
0.00272
0.00557
0.00336
0.00059
0.00055
0.00092
-0.00228
-0.00759
-0.00436
-0.00304
0.00194
0.00072
0.00093
0.00400
0.00507
0.00369
-0.00191
-0.00063
-0.00254
-0.00102
-0.00281
-0.00016
0.00145
-0.00355
-0.00292
0.00084
0.00381
0.00264
0.00196
0.00109
0.00055
-0.00008
-0.00057
-0.00085
-0.00075
-0.00079
-0.00467
-0.00747
-0.00092
0.00597
0.00660
0.00375
-0.00052
-0.00151
-0.00538
-0.00444
0.00336
0.01393
0.02271
0.01346
-0.00610
-0.03282
-0.04616
-0.04164
-0.02452
0.00486
0.03639
0.07004
0.09483
0.09774
0.06730
-0.01704
-0.15703
-0.29302
-0.28083
-0.05671
0.24506
0.43085
0.33176
0.03520
-0.20762
-0.26547
-0.18562
-0.07801
0.01357
0.06812
0.08797
0.07636
0.05251
0.02380
-0.00140
-0.02004
-0.03238
-0.03114
-0.02638
-0.01559
-0.00395
0.00370
0.01515
0.01515
0.01139
0.01019
0.00413
-0.00051
-0.00780
-0.00510
-0.00486
-0.00301
-0.00117
-0.00310
0.00110
0.00045
-0.00081
0.00157
0.00465
0.00255
-0.00035
-0.00031
0.00550
0.00311
-0.00331
-0.00617
-0.00573
-0.00357
-0.00290
0.00043
0.00362
0.00728
0.00831
0.00312
-0.00223
-0.00331
-0.00615
-0.00556
-0.00306
0.00150
0.00532
0.00508
0.00066
-0.00222
-0.00219
-0.00210
-0.00171
0.00245
0.00453
0.00302
-0.00020
-0.00410
-0.00143
-0.00118
-0.00079
-0.00205
-0.00116
0.00184
0.00160
0.00195
0.00200
-0.00042
-0.00501
-0.00540
-0.00027
0.01155
0.02479
0.01514
-0.00273
-0.02031
-0.03566
-0.03842
-0.03124
-0.01264
0.01709
0.05140
0.07880
0.09373
0.08221
0.02542
-0.08340
-0.22021
-0.28411
-0.16438
0.10062
0.34665
0.37227
0.15636
-0.10666
-0.23137
-0.20794
-0.11795
-0.02286
0.04393
0.07733
0.07565
0.05561
0.03140
0.01015
-0.01006
-0.02478
-0.02818
-0.02317
-0.02006
-0.01123
-0.00125
0.00625
0.01455
0.01492
0.00947
0.00727
0.00520
-0.00376
-0.00669
-0.00353
-0.00409
-0.00573
-0.00911
-0.00071
0.00482
0.00217
0.00518
0.00431
0.00149
-0.00008
-0.00068
-0.00082
0.00228
0.00093
-0.00207
-0.00614
-0.00663
-0.00202
0.00182
0.00313
0.00387
0.00698
0.00291
-0.00134
0.00048
-0.00195
-0.00259
-0.00505
-0.00672
-0.00165
0.00338
0.00403
0.00415
0.00401
0.00300
0.00095
-0.00223
-0.00692
-0.00634
0.00040
-0.00043
0.00216
0.00493
0.00507
0.00316
-0.00280
-0.00767
-0.00168
0.00080
-0.00001
-0.00427
-0.00229
0.00172
0.00143
0.00578
0.01225
0.01901
0.01451
-0.00223
-0.02595
-0.04176
-0.04237
-0.02499
-0.00619
0.02178
0.05166
0.08144
0.09588
0.08098
0.02175
-0.09660
-0.23662
-0.28729
-0.14643
0.12814
0.35873
0.35967
0.14018
-0.11407
-0.23556
-0.20735
-0.11293
-0.01552
0.04825
0.07003
0.06971
0.05753
0.03893
0.01456
-0.01166
-0.02836
-0.03159
-0.02518
-0.01999
-0.01349
0.00095
0.01289
0.01380
0.01502
0.01022
0.00529
0.00080
-0.00558
-0.00261
-0.00650
-0.00421
-0.00163
-0.00326
0.00122
0.00037
-0.00125
-0.00077
0.00296
0.00539
0.00135
0.00077
0.00321
0.00302
-0.00389
-0.00589
-0.00136
-0.00460
-0.00155
-0.00115
0.00427
0.00323
0.00135
0.00141
0.00134
0.00271
0.00049
0.00011
-0.00621
-0.00236
-0.00094
-0.00083
-0.00416
0.00049
0.00637
0.00521
0.00033
-0.00137
0.00322
-0.00371
-0.00434
-0.00101
0.00391
0.00246
-0.00432
-0.00133
-0.00074
0.00023
-0.00057
-0.00060
-0.00098
-0.00186
0.00203
0.00241
0.00462
0.01228
0.02101
0.01231
-0.01114
-0.02930
-0.04021
-0.04301
-0.02861
-0.00046
0.02971
0.06746
0.09609
0.10240
0.07723
-0.00619
-0.13780
-0.28595
-0.30425
-0.09295
0.22595
0.43183
0.34947
0.05957
-0.18987
-0.26380
-0.19293
-0.08345
0.00573
0.06246
0.08153
0.07586
0.05398
0.02808
0.00294
-0.01719
-0.03181
-0.03252
-0.02345
-0.01507
-0.00792
0.00230
0.01171
0.01521
0.01009
0.01025
0.01040
0.00067
-0.00583
-0.00753
-0.00594
-0.00544
-0.00293
-0.00173
0.00286
0.00038
-0.00016
-0.00020
0.00067
0.00332
0.00659
0.00587
0.00456
-0.00213
-0.01075
-0.00939
-0.00647
0.00088
0.00248
0.00583
0.00600
0.00446
-0.00047
-0.00141
-0.00107
0.00118
-0.00208
-0.00413
-0.00302
-0.00169
0.00161
0.00457
0.00380
-0.00236
-0.00262
-0.00315
0.00183
0.00155
0.00626
0.00067
-0.00029
-0.00120
-0.00222
-0.00211
-0.00617
-0.00264
-0.00242
0.00615
0.00593
0.00291
-0.00153
-0.00200
-0.00293
-0.00349
0.00372
0.01399
0.02061
0.01171
-0.00830
-0.02680
-0.04265
-0.04429
-0.02369
0.00091
0.03159
0.06901
0.09564
0.10004
0.07040
-0.01149
-0.14771
-0.28905
-0.29389
-0.08031
0.24164
0.44153
0.34527
0.03953
-0.20684
-0.26755
-0.19073
-0.07558
0.01218
0.06686
0.08295
0.07500
0.05601
0.02449
-0.00082
-0.01976
-0.02829
-0.02728
-0.02737
-0.01819
-0.01158
0.00292
0.01541
0.01849
0.01478
0.00843
0.00315
-0.00204
-0.00402
-0.00502
-0.00301
-0.00131
-0.00335
-0.00760
-0.00208
0.00025
0.00213
0.00104
0.00502
0.00642
0.00295
0.00140
-0.00101
0.00213
-0.00195
-0.00657
-0.00881
-0.00612
0.00035
0.00400
0.00417
0.00940
0.00373
0.00014
0.00172
-0.00430
-0.00078
-0.00592
-0.00802
-0.00016
0.00436
0.00302
0.00262
0.00121
0.00052
-0.00099
-0.00187
0.00167
0.00075
-0.00041
-0.00095
0.00391
-0.00014
-0.00282
-0.00883
-0.00773
0.00498
0.00943
0.00898
-0.00179
-0.00551
-0.00766
-0.00586
0.00542
0.01991
0.02532
0.00761
-0.01333
-0.02999
-0.03707
-0.03305
-0.02561
-0.00248
0.03303
0.06293
0.08435
0.09282
0.06679
-0.00736
-0.13657
-0.27101
-0.26669
-0.06336
0.21797
0.38756
0.31040
0.05084
-0.17654
-0.24615
-0.18201
-0.07472
0.01290
0.06098
0.07658
0.07096
0.04872
0.02523
0.00074
-0.01703
-0.03205
-0.03199
-0.02000
-0.01238
-0.00325
0.00065
0.00716
0.01582
0.01723
0.00669
0.00147
0.00111
-0.00172
-0.00925
-0.00886
0.00050
0.00192
0.00046
-0.00472
-0.00399
0.00310
0.00078
0.00038
0.00538
0.00739
0.00401
-0.00309
-0.00187
-0.00036
-0.00630
-0.00830
-0.00582
0.00323
0.00775
0.00117
0.00282
0.00536
0.00437
-0.00136
-0.00631
-0.00568
0.00015
-0.00013
-0.00107
0.00019
0.00032
0.00146
0.00151
0.00183
0.00141
0.00077
-0.00011
-0.00145
-0.00228
0.00161
-0.00291
-0.00213
0.00140
0.00078
-0.00153
0.00168
0.00237
0.00176
-0.00258
-0.00872
-0.00181
0.00314
0.00673
0.01456
0.02392
0.01181
-0.01416
-0.03510
-0.04122
-0.03555
-0.02193
0.00270
0.03335
0.06830
0.09280
0.09435
0.06459
-0.01990
-0.16272
-0.28977
-0.25894
-0.03095
0.26184
0.40678
0.28180
0.01026
-0.19782
-0.24131
-0.16809
-0.06380
0.01946
0.05977
0.07535
0.07154
0.05141
0.02264
-0.00660
-0.01686
-0.02459
-0.03092
-0.02662
-0.01616
-0.00119
0.00400
0.00977
0.01377
0.01386
0.00894
0.00300
-0.00046
-0.00291
-0.00224
-0.00456
-0.00642
-0.00546
-0.00348
0.00118
-0.00034
0.00062
0.00559
0.00351
0.00081
0.00108
0.00528
0.00152
0.00048
-0.00479
-0.00448
-0.00752
-0.00817
0.00165
0.00724
0.00708
0.00041
0.00285
0.00188
0.00234
-0.00160
-0.00456
-0.00418
-0.00278
0.00065
-0.00094
-0.00138
0.00271
0.00255
0.00189
0.00176
0.00111
0.00071
-0.00020
-0.00097
-0.00186
-0.00216
-0.00153
0.00067
-0.00369
-0.00326
0.00096
0.00296
0.00463
0.00500
-0.00223
-0.00097
-0.00455
-0.00206
0.01758
0.02033
0.01117
-0.01150
-0.03375
-0.04569
-0.03898
-0.01837
0.00900
0.04252
0.07397
0.09894
0.09782
0.05694
-0.04423
-0.19636
-0.31520
-0.25074
0.02140
0.32687
0.43470
0.25029
-0.04819
-0.23297
-0.24612
-0.15515
-0.04719
0.02890
0.07262
0.08145
0.06688
0.04621
0.02375
-0.00355
-0.02529
-0.03450
-0.03151
-0.02361
-0.01418
-0.00125
0.00736
0.01559
0.01407
0.01143
0.00847
0.00579
-0.00470
-0.00569
-0.00371
-0.00505
-0.00440
-0.00609
-0.00213
0.00074
0.00241
0.00255
0.00659
0.00392
0.00013
-0.00234
-0.00040
0.00151
0.00306
-0.00284
-0.00567
-0.00471
-0.00452
-0.00276
0.00441
0.00926
0.00594
0.00478
-0.00285
-0.00254
-0.00463
-0.00294
-0.00307
-0.00168
0.00067
-0.00021
0.00398
0.00415
0.00366
-0.00014
-0.00263
-0.00364
-0.00094
0.00240
0.00006
-0.00054
-0.00068
-0.00142
-0.00201
-0.00376
0.00060
0.00777
0.00511
-0.00387
-0.00380
-0.00233
-0.00362
0.00476
0.01920
0.02071
0.00303
-0.01587
-0.03109
-0.03485
-0.03142
-0.02036
0.00811
0.04001
0.07024
0.08742
0.08603
0.04371
-0.04197
-0.17928
-0.27996
-0.20961
0.02254
0.29031
0.38115
0.21996
-0.04240
-0.20565
-0.21745
-0.13915
-0.04531
0.02414
0.06362
0.07685
0.06626
0.04189
0.01298
-0.00980
-0.02040
-0.02424
-0.02401
-0.02318
-0.01337
-0.00278
0.00630
0.01233
0.01512
0.01017
0.00374
0.00209
0.00142
-0.00260
-0.00478
-0.00541
-0.00520
-0.00109
-0.00023
-0.00177
-0.00127
0.00389
0.00220
-0.00094
0.00281
0.00625
0.00359
-0.00255
-0.00318
-0.00174
-0.00272
-0.00263
-0.00415
-0.00176
-0.00018
0.00270
0.00706
0.00598
0.00276
0.00229
-0.00414
-0.00850
-0.00243
-0.00183
-0.00203
-0.00135
0.00269
0.00445
0.00423
0.00393
0.00290
-0.00197
-0.00474
-0.00598
-0.00305
0.00225
0.00162
0.00045
-0.00341
0.00338
0.00438
0.00058
-0.00134
-0.00501
-0.00377
-0.00364
0.00438
0.01690
0.02261
0.01524
-0.00801
-0.03078
-0.04412
-0.04279
-0.02306
0.00473
0.03895
0.06392
0.07994
0.08707
0.06335
-0.00946
-0.13742
-0.26078
-0.25339
-0.05790
0.21201
0.37238
0.29466
0.04537
-0.16780
-0.22944
-0.16910
-0.07382
0.00414
0.05209
0.07240
0.07104
0.05016
0.02511
0.00466
-0.01562
-0.03026
-0.03114
-0.02371
-0.01424
-0.00473
0.00493
0.01161
0.01112
0.01241
0.00779
0.00222
0.00300
-0.00401
-0.00635
-0.00142
-0.00030
-0.00311
-0.00755
-0.00447
-0.00140
0.00032
0.00445
0.00879
0.00793
0.00462
-0.00103
-0.00511
-0.00417
-0.00391
-0.00443
-0.00682
-0.00059
0.00663
0.00827
0.00217
-0.00213
0.00177
0.00159
-0.00182
-0.00276
-0.00341
0.00019
0.00060
-0.00086
-0.00034
-0.00021
0.00104
0.00122
0.00200
0.00138
0.00122
-0.00022
-0.00082
-0.00204
-0.00150
-0.00051
-0.00044
-0.00408
-0.00204
0.00215
0.00447
0.00422
-0.00094
-0.00466
-0.00300
0.00118
0.01076
0.02245
0.01407
-0.00398
-0.02582
-0.03889
-0.03814
-0.02842
-0.00656
0.02341
0.05619
0.08545
0.09687
0.07881
0.01526
-0.10811
-0.25558
-0.29426
-0.13000
0.16582
0.38939
0.35194
0.10594
-0.14021
-0.24072
-0.20053
-0.10193
-0.01180
0.04869
0.07675
0.07527
0.05891
0.03437
0.00532
-0.01621
-0.02707
-0.02823
-0.02404
-0.01935
-0.00916
0.00140
0.00997
0.01098
0.01193
0.01156
0.00740
0.00213
-0.00463
-0.00375
-0.00172
-0.00424
-0.00715
-0.00389
0.00121
0.00027
-0.00285
-0.00050
0.00399
0.00326
0.00486
0.00581
0.00551
0.00175
-0.00510
-0.00948
-0.00798
-0.00528
-0.00447
0.00090
0.00844
0.01259
0.00705
0.00087
-0.00445
-0.00697
-0.00501
0.00014
0.00075
0.00034
0.00106
-0.00203
-0.00275
0.00068
0.00482
0.00435
0.00244
0.00023
-0.00133
-0.00224
-0.00514
-0.00396
-0.00266
-0.00072
0.00369
0.00512
0.00598
0.00109
-0.00373
-0.00525
-0.00572
-0.00105
0.01338
0.02233
0.01787
-0.00469
-0.02933
-0.04327
-0.03925
-0.02256
0.00218
0.03434
0.06412
0.08580
0.08442
0.05890
-0.01391
-0.13870
-0.26356
-0.24961
-0.04957
0.22672
0.38160
0.28672
0.02655
-0.18159
-0.23085
-0.16876
-0.06348
0.01588
0.06030
0.06980
0.06223
0.04646
0.02527
0.00184
-0.01653
-0.02483
-0.02739
-0.02624
-0.01785
-0.00566
0.00521
0.01398
0.01511
0.01244
0.00715
0.00157
-0.00406
-0.00412
-0.00161
-0.00073
-0.00399
-0.00385
-0.00298
-0.00265
-0.00019
0.00213
0.00241
0.00473
0.00607
0.00161
0.00071
-0.00412
-0.00598
-0.00229
-0.00076
0.00166
0.00157
-0.00117
-0.00077
0.00163
0.00185
0.00104
0.00083
0.00053
-0.00139
-0.00127
-0.00244
0.00084
0.00253
-0.00039
-0.00127
-0.00162
0.00071
-0.00038
0.00032
0.00199
0.00407
-0.00048
-0.00207
-0.00053
-0.00391
-0.00399
-0.00052
0.00381
0.00492
0.00303
-0.00490
-0.00772
-0.00412
0.00531
0.01852
0.02036
0.01228
-0.00663
-0.02965
-0.04004
-0.03574
-0.02022
-0.00289
0.02509
0.05931
0.08449
0.09077
0.06547
-0.00621
-0.13262
-0.25370
-0.25077
-0.06285
0.20792
0.36002
0.27720
0.04740
-0.14722
-0.21474
-0.16973
-0.08066
-0.00222
0.05324
0.07185
0.06665
0.05351
0.02941
0.00209
-0.01895
-0.02883
-0.02799
-0.02448
-0.01685
-0.00441
0.00563
0.01168
0.01205
0.01215
0.00913
0.00424
-0.00170
-0.00292
-0.00208
-0.00424
-0.00787
-0.00585
-0.00051
-0.00059
0.00069
0.00133
0.00461
0.00745
0.00168
-0.00106
0.00068
0.00078
-0.00195
-0.00598
-0.00335
-0.00190
0.00080
-0.00114
0.00149
0.00562
0.00173
0.00144
0.00222
0.00128
-0.00338
-0.00515
-0.00281
0.00121
-0.00078
-0.00117
-0.00001
0.00429
0.00568
0.00114
-0.00136
-0.00321
-0.00113
-0.00117
-0.00112
0.00053
-0.00170
-0.00288
0.00080
0.00348
0.00429
0.00027
-0.00388
-0.00504
-0.00193
0.00580
0.01232
0.02007
0.01307
-0.00908
-0.02716
-0.03874
-0.03578
-0.02505
-0.00419
0.02953
0.06432
0.08989
0.09404
0.06570
-0.01045
-0.14172
-0.26910
-0.25984
-0.06369
0.21861
0.38556
0.30267
0.04950
-0.17104
-0.23725
-0.17827
-0.07872
0.00506
0.05546
0.07513
0.07264
0.05457
0.02987
0.00182
-0.02084
-0.03073
-0.02944
-0.02424
-0.01754
-0.00555
0.00577
0.01304
0.01484
0.01130
0.00880
0.00224
-0.00326
-0.00328
-0.00133
-0.00017
-0.00435
-0.00581
-0.00438
-0.00156
-0.00061
-0.00103
0.00292
0.00717
0.00596
0.00261
0.00070
0.00084
-0.00263
-0.00892
-0.00361
0.00110
0.00024
-0.00241
-0.00125
0.00436
0.00384
0.00277
0.00126
0.00179
0.00113
-0.00266
-0.00468
-0.00227
-0.00316
-0.00349
-0.00072
0.00414
0.00779
0.00433
0.00092
-0.00079
0.00062
-0.00315
-0.00517
-0.00390
-0.00458
-0.00380
0.00298
0.00675
0.00764
0.00400
-0.00325
-0.00523
-0.00541
0.00330
0.01455
0.01996
0.00857
-0.01346
-0.03029
-0.03828
-0.03286
-0.01767
0.00341
0.03457
0.06900
0.09186
0.09023
0.05173
-0.03270
-0.16596
-0.28012
-0.23814
-0.01298
0.26423
0.39740
0.27076
-0.00272
-0.20612
-0.24011
-0.16098
-0.05853
0.02251
0.06475
0.07533
0.06876
0.04936
0.02479
-0.00195
-0.02286
-0.03094
-0.03227
-0.02408
-0.01416
-0.00435
0.00801
0.01288
0.01371
0.01248
0.01021
0.00576
-0.00004
-0.00407
-0.00899
-0.01015
-0.00841
-0.00446
0.00470
0.00741
0.00471
0.00033
-0.00308
-0.00175
0.00190
0.00381
0.00130
0.00242
0.00071
-0.00197
-0.00414
-0.00467
-0.00509
-0.00362
0.00130
0.00667
0.00907
0.00513
0.00086
-0.00411
-0.00322
-0.00497
-0.00574
0.00075
0.00313
0.00163
0.00012
0.00048
0.00312
0.00279
0.00013
-0.00236
-0.00143
-0.00194
-0.00325
-0.00027
0.00224
0.00404
0.00094
-0.00287
-0.00484
-0.00491
-0.00462
0.00260
0.01327
0.02158
0.02060
0.00664
-0.01290
-0.03391
-0.04489
-0.04381
-0.02313
0.01011
0.04196
0.07021
0.09052
0.09293
0.05866
-0.03280
-0.16646
-0.26992
-0.23704
-0.02714
0.24451
0.38132
0.27033
0.01711
-0.17728
-0.22596
-0.16670
-0.07231
0.00780
0.05653
0.07601
0.07233
0.05491
0.02962
-0.00019
-0.02426
-0.03506
-0.03270
-0.02270
-0.01462
-0.00259
0.00905
0.01411
0.01393
0.01080
0.00880
0.00373
-0.00276
-0.00768
-0.00777
-0.00457
-0.00064
0.00073
0.00047
0.00034
-0.00106
-0.00300
-0.00047
0.00480
0.00526
0.00397
0.00198
-0.00031
-0.00170
-0.00406
-0.00684
-0.00634
-0.00122
0.00279
0.00381
0.00615
0.00788
0.00409
-0.00270
-0.00815
-0.00786
-0.00190
0.00129
0.00132
0.00217
0.00348
0.00438
0.00231
-0.00327
-0.00450
-0.00147
-0.00084
0.00010
0.00248
0.00148
-0.00193
-0.00312
0.00075
0.00335
0.00048
-0.00136
-0.00185
-0.00220
-0.00285
0.00086
0.01267
0.02166
0.01513
-0.00212
-0.02377
-0.03971
-0.04339
-0.03245
-0.00454
0.02989
0.06532
0.08950
0.09492
0.06698
-0.00800
-0.12868
-0.25217
-0.26192
-0.08744
0.18873
0.37212
0.31596
0.07590
-0.15215
-0.23451
-0.18390
-0.08745
-0.00300
0.05119
0.07367
0.07347
0.05712
0.03053
0.00367
-0.01749
-0.02979
-0.03255
-0.02472
-0.01407
-0.00612
0.00383
0.01165
0.01401
0.01141
0.00715
0.00267
0.00144
-0.00065
-0.00352
-0.00484
-0.00538
-0.00339
-0.00218
-0.00231
-0.00154
0.00253
0.00266
0.00135
0.00385
0.00473
0.00384
0.00023
-0.00151
-0.00240
-0.00491
-0.00697
-0.00510
0.00248
0.00390
0.00150
0.00113
0.00365
0.00556
0.00182
-0.00212
-0.00228
-0.00153
-0.00386
-0.00490
-0.00347
0.00012
0.00517
0.00688
0.00519
0.00073
-0.00363
-0.00459
-0.00165
0.00083
-0.00187
-0.00465
-0.00035
0.00531
0.00373
-0.00162
-0.00237
-0.00021
-0.00136
0.00095
0.01206
0.02084
0.01239
-0.00734
-0.02683
-0.03977
-0.03836
-0.02413
-0.00125
0.03093
0.06529
0.08837
0.09133
0.06250
-0.01403
-0.14116
-0.26446
-0.25437
-0.05546
0.21960
0.37821
0.29287
0.04469
-0.16983
-0.23595
-0.17531
-0.07194
0.00908
0.05429
0.07359
0.07076
0.05314
0.02611
-0.00012
-0.01774
-0.02860
-0.03251
-0.02594
-0.01189
-0.00083
0.00445
0.00986
0.01214
0.00925
0.00705
0.00438
0.00224
0.00145
-0.00287
-0.00835
-0.00817
-0.00289
-0.00079
-0.00216
-0.00240
0.00117
0.00591
0.00709
0.00435
0.00264
0.00116
-0.00295
-0.00561
-0.00448
-0.00251
-0.00161
-0.00142
0.00071
0.00450
0.00291
0.00063
0.00149
0.00330
0.00157
-0.00168
-0.00419
-0.00448
-0.00306
-0.00100
0.00133
0.00322
0.00466
0.00291
0.00090
-0.00125
-0.00282
-0.00349
-0.00248
0.00041
0.00068
0.00051
0.00226
0.00232
-0.00018
-0.00454
-0.00449
-0.00187
0.00267
0.00834
0.01490
0.01724
0.00730
-0.01073
-0.02998
-0.03754
-0.03548
-0.02405
0.00272
0.03678
0.07154
0.09280
0.08797
0.04904
-0.03802
-0.16345
-0.26476
-0.22397
-0.01222
0.25018
0.37545
0.25648
0.00263
-0.18886
-0.22552
-0.15833
-0.06388
0.01676
0.06292
0.07614
0.06869
0.05025
0.02382
-0.00353
-0.02440
-0.03380
-0.03188
-0.02282
-0.00961
0.00254
0.00856
0.00980
0.01065
0.00939
0.00677
0.00427
0.00008
-0.00243
-0.00345
-0.00553
-0.00705
-0.00342
-0.00050
-0.00098
-0.00028
0.00176
0.00499
0.00451
0.00250
0.00114
-0.00023
0.00148
0.00187
-0.00574
-0.00892
-0.00488
-0.00148
0.00236
0.00569
0.00734
0.00387
-0.00134
-0.00241
-0.00056
-0.00073
-0.00245
-0.00373
-0.00074
0.00093
0.00019
0.00171
0.00229
0.00208
0.00085
-0.00079
-0.00016
0.00119
-0.00140
-0.00448
-0.00547
-0.00140
0.00331
0.00329
0.00314
0.00166
-0.00208
-0.00432
-0.00169
0.00962
0.01988
0.01523
0.00081
-0.01903
-0.03688
-0.04129
-0.03320
-0.01000
0.02220
0.05279
0.07821
0.09230
0.08044
0.02415
-0.08607
-0.22371
-0.28010
-0.15749
0.10278
0.33784
0.36622
0.16243
-0.09733
-0.23272
-0.21023
-0.11575
-0.02493
0.03797
0.06828
0.07440
0.06287
0.04130
0.01560
-0.00958
-0.02860
-0.03457
-0.02931
-0.01851
-0.00854
-0.00163
0.00952
0.01596
0.01348
0.00876
0.00493
0.00399
0.00110
-0.00259
-0.00686
-0.00766
-0.00544
-0.00623
-0.00413
0.00286
0.00483
0.00299
0.00369
0.00561
0.00589
0.00162
-0.00307
-0.00495
-0.00485
-0.00525
-0.00386
-0.00097
0.00403
0.00538
0.00155
-0.00063
0.00201
0.00451
0.00175
-0.00073
-0.00382
-0.00629
-0.00689
-0.00200
0.00589
0.00561
0.00243
0.00170
0.00032
0.00147
-0.00012
-0.00346
-0.00355
-0.00178
-0.00197
-0.00455
0.00109
0.00747
0.00425
-0.00202
-0.00371
-0.00083
0.00074
0.00322
0.01240
0.01904
0.01147
-0.00964
-0.03063
-0.04162
-0.04030
-0.02489
0.00450
0.04136
0.07347
0.08999
0.08827
0.05962
-0.02254
-0.15860
-0.28036
-0.25767
-0.04120
0.25049
0.40552
0.29463
0.02367
-0.19336
-0.24744
-0.17635
-0.06826
0.01496
0.06141
0.07864
0.07239
0.05161
0.02355
-0.00020
-0.01782
-0.02768
-0.03206
-0.02793
-0.01572
-0.00383
0.00525
0.00961
0.01409
0.01629
0.01281
0.00323
-0.00322
-0.00523
-0.00565
-0.00687
-0.00617
-0.00037
0.00085
0.00077
0.00027
0.00176
0.00038
-0.00270
0.00020
0.00736
0.01122
0.00337
-0.00633
-0.01004
-0.00742
-0.00253
-0.00045
0.00177
0.00346
0.00293
0.00449
0.00492
0.00163
-0.00182
-0.00391
-0.00549
-0.00440
-0.00171
0.00204
0.00482
0.00371
0.00226
0.00034
-0.00162
-0.00355
-0.00326
0.00055
0.00150
0.00049
-0.00035
0.00033
0.00289
0.00146
-0.00412
-0.00790
-0.00377
0.00060
0.00728
0.01732
0.02219
0.01240
-0.00850
-0.02732
-0.03989
-0.03876
-0.02461
-0.00135
0.02655
0.05498
0.07875
0.08903
0.06763
0.00409
-0.10591
-0.22655
-0.25490
-0.11454
0.14352
0.34312
0.32343
0.10708
-0.12271
-0.22112
-0.18804
-0.09727
-0.01374
0.04347
0.07237
0.07129
0.05461
0.03315
0.00859
-0.01361
-0.02598
-0.03017
-0.02211
-0.01782
-0.01378
-0.00469
0.00897
0.01816
0.01907
0.01782
0.00616
-0.00354
-0.00899
-0.00869
-0.00752
-0.00204
0.00012
-0.00115
-0.00174
0.00010
0.00161
-0.00014
0.00222
0.00543
0.00774
0.00271
-0.00055
-0.00261
-0.00788
-0.00794
-0.00253
-0.00000
-0.00023
0.00145
0.00580
0.00857
0.00544
-0.00125
-0.00389
-0.00502
-0.00504
-0.00363
-0.00256
0.00306
0.00808
0.00487
-0.00109
-0.00225
-0.00239
-0.00117
-0.00176
0.00127
0.00384
-0.00258
-0.00476
0.00060
0.00487
0.00169
-0.00338
-0.00494
-0.00405
-0.00025
0.00601
0.01270
0.01983
0.01890
-0.00174
-0.02740
-0.04266
-0.04050
-0.02646
-0.00449
0.02464
0.05043
0.07574
0.08732
0.07411
0.02066
-0.08329
-0.21065
-0.26912
-0.15275
0.09910
0.32475
0.35090
0.15399
-0.09150
-0.21886
-0.20265
-0.11335
-0.02392
0.03551
0.06485
0.07148
0.05987
0.03916
0.01430
-0.00823
-0.02243
-0.03299
-0.03127
-0.01942
-0.00701
0.00226
0.00748
0.00810
0.01042
0.01431
0.00968
0.00272
-0.00084
-0.00224
-0.00543
-0.00779
-0.00737
-0.00428
-0.00349
-0.00213
0.00451
0.00839
0.00601
0.00027
-0.00001
0.00478
0.00310
-0.00362
-0.00683
-0.00514
-0.00169
-0.00328
-0.00318
0.00491
0.00731
0.00285
0.00167
0.00071
0.00083
-0.00207
-0.00533
-0.00144
-0.00188
-0.00203
0.00044
0.00527
0.00777
0.00068
-0.00504
-0.00610
0.00024
0.00145
0.00165
0.00075
-0.00260
-0.00155
0.00031
0.00395
0.00094
-0.00338
-0.00432
-0.00251
0.00099
0.01085
0.01769
0.01617
0.00529
-0.01315
-0.03304
-0.04514
-0.03924
-0.01700
0.01406
0.04681
0.07964
0.09843
0.08979
0.03935
-0.06551
-0.21172
-0.29872
-0.20277
0.06987
0.33965
0.39221
0.18970
-0.07719
-0.22340
-0.22180
-0.13325
-0.03698
0.03469
0.07321
0.07781
0.06162
0.04119
0.01600
-0.00974
-0.02643
-0.02996
-0.02574
-0.02009
-0.01331
-0.00118
0.01060
0.01184
0.01024
0.00880
0.01148
0.00560
-0.00142
-0.00424
-0.00775
-0.00621
-0.00531
-0.00573
0.00052
0.00321
-0.00063
0.00176
0.00369
0.00679
0.00397
0.00042
-0.00140
-0.00132
-0.00314
-0.00743
-0.00124
0.00077
-0.00272
-0.00190
0.00225
0.00713
0.00773
0.00339
-0.00165
-0.00262
-0.00344
-0.00745
-0.00627
-0.00221
0.00459
0.00690
0.00504
0.00318
0.00095
-0.00111
-0.00282
-0.00355
-0.00270
-0.00234
-0.00555
-0.00137
0.00663
0.00572
0.00029
0.00016
-0.00068
-0.00016
-0.00219
0.00402
0.01812
0.01836
0.00091
-0.02145
-0.03513
-0.03915
-0.03343
-0.01627
0.01928
0.05632
0.08518
0.09828
0.08612
0.02927
-0.08996
-0.23886
-0.30767
-0.17919
0.11636
0.38069
0.39895
0.16211
-0.11701
-0.25212
-0.22515
-0.11838
-0.02043
0.04261
0.07356
0.07868
0.06484
0.04055
0.01440
-0.00798
-0.02625
-0.03653
-0.03391
-0.02353
-0.00774
0.00299
0.00882
0.01514
0.01701
0.01177
0.00329
0.00040
0.00040
-0.00521
-0.00765
-0.00534
-0.00253
-0.00054
-0.00075
-0.00414
-0.00013
0.00320
0.00060
0.00381
0.00615
0.00626
0.00449
-0.00094
-0.00725
-0.00970
-0.00618
-0.00349
-0.00109
0.00520
0.00643
0.00471
0.00451
0.00262
0.00127
-0.00345
-0.00920
-0.00537
-0.00293
0.00124
0.00463
0.00458
0.00364
0.00242
-0.00001
-0.00096
-0.00106
-0.00574
-0.00562
-0.00222
0.00080
0.00135
0.00592
0.00386
0.00047
0.00049
-0.00369
-0.00581
0.00258
0.01201
0.01467
0.01241
-0.00002
-0.02160
-0.04075
-0.04282
-0.03043
-0.00130
0.03374
0.06596
0.08884
0.09409
0.06821
-0.01022
-0.13297
-0.26171
-0.27874
-0.09534
0.20808
0.41239
0.33830
0.06108
-0.18313
-0.25257
-0.18869
-0.08378
0.00710
0.06022
0.07730
0.07264
0.05470
0.02989
0.00345
-0.01830
-0.02877
-0.03084
-0.02417
-0.01888
-0.00997
0.00504
0.01151
0.01281
0.01417
0.01306
0.00718
0.00266
-0.00557
-0.01139
-0.00938
-0.00343
-0.00082
-0.00229
0.00289
0.00268
0.00110
-0.00019
0.00337
0.00178
0.00232
0.00062
0.00037
0.00057
-0.00465
-0.00236
-0.00262
-0.00195
-0.00455
0.00228
0.00598
0.00683
0.00440
-0.00275
-0.00471
-0.00358
-0.00300
-0.00175
-0.00050
0.00834
0.00757
-0.00195
-0.00357
-0.00526
-0.00002
-0.00219
-0.00098
-0.00132
0.00070
0.00504
0.00308
0.00407
0.00289
-0.00436
-0.01003
-0.00792
-0.00399
0.00423
0.01469
0.02331
0.02139
0.00077
-0.02451
-0.03951
-0.04091
-0.02986
-0.01176
0.01842
0.05512
0.07990
0.08979
0.07281
0.01770
-0.08039
-0.21405
-0.27211
-0.14992
0.10542
0.33430
0.35047
0.14241
-0.09825
-0.21994
-0.20469
-0.11277
-0.02182
0.04218
0.07314
0.07378
0.05726
0.03287
0.00901
-0.01280
-0.02316
-0.02542
-0.02498
-0.02501
-0.01039
0.00297
0.01009
0.01446
0.01073
0.01034
0.00410
0.00366
-0.00052
-0.00276
-0.00476
-0.00815
-0.00759
-0.00255
0.00137
-0.00129
0.00077
0.00480
0.00629
0.00345
0.00305
0.00023
-0.00333
-0.00165
-0.00270
-0.00542
0.00058
-0.00072
-0.00163
-0.00036
0.00265
0.00524
0.00320
0.00228
-0.00224
-0.00069
-0.00333
-0.00381
0.00116
0.00015
-0.00202
-0.00158
0.00315
0.00891
0.00178
-0.00604
-0.00309
-0.00190
-0.00102
0.00059
0.00137
0.00183
0.00194
0.00150
-0.00297
-0.00590
-0.00500
-0.00055
0.00395
0.01099
0.02109
0.01657
0.00234
-0.01852
-0.03664
-0.04024
-0.03077
-0.01468
0.01159
0.04639
0.07317
0.09222
0.08395
0.03456
-0.06018
-0.19202
-0.27876
-0.19685
0.05130
0.31102
0.38201
0.19939
-0.06774
-0.22199
-0.21499
-0.12747
-0.03629
0.03118
0.06957
0.07395
0.06010
0.04027
0.01752
-0.00692
-0.02364
-0.03125
-0.03034
-0.01834
-0.00947
-0.00288
0.00551
0.01471
0.01335
0.01241
0.00661
0.00254
0.00200
-0.00530
-0.00995
-0.00554
-0.00468
-0.00361
0.00123
0.00031
0.00249
-0.00006
0.00414
0.00605
0.00319
0.00248
-0.00132
-0.00271
-0.00680
-0.00533
-0.00279
-0.00161
0.00575
0.00607
0.00238
0.00014
-0.00012
-0.00225
-0.00111
-0.00140
0.00032
0.00111
-0.00083
-0.00138
-0.00102
0.00432
-0.00048
-0.00114
-0.00228
0.00074
0.00379
0.00181
0.00096
-0.00375
-0.00621
-0.00169
0.00419
0.00307
0.00345
-0.00124
-0.00580
-0.00475
-0.00307
-0.00108
0.00457
0.02266
0.02847
0.00934
-0.01366
-0.03159
-0.04043
-0.04222
-0.03072
-0.00237
0.03353
0.06981
0.09765
0.10148
0.07029
-0.01113
-0.14599
-0.28245
-0.28669
-0.07779
0.22896
0.42028
0.33480
0.05094
-0.19187
-0.26133
-0.18654
-0.07570
0.00882
0.06203
0.08353
0.07473
0.04836
0.02260
0.00331
-0.01532
-0.02837
-0.03220
-0.02677
-0.01315
-0.00540
0.00182
0.01090
0.01443
0.01195
0.00793
0.00655
0.00135
-0.00164
-0.00340
-0.00787
-0.00676
-0.00472
-0.00345
-0.00139
0.00285
0.00476
0.00250
0.00269
0.00106
0.00253
0.00642
0.00225
-0.00555
-0.00742
-0.00703
-0.00677
0.00061
0.00580
0.00543
0.00533
0.00212
0.00121
0.00246
-0.00191
-0.00763
-0.00559
-0.00059
0.00124
-0.00000
-0.00048
0.00495
0.00522
0.00059
0.00011
-0.00066
-0.00239
-0.00412
-0.00113
0.00297
-0.00193
-0.00436
0.00027
0.00293
0.00736
0.00238
-0.00561
-0.00606
-0.00063
0.00010
-0.00493
0.00755
0.02337
0.02445
0.00519
-0.02053
-0.03971
-0.04252
-0.03788
-0.01474
0.01792
0.04526
0.07813
0.09306
0.09071
0.04465
-0.05563
-0.20166
-0.30880
-0.22300
0.04287
0.33174
0.43033
0.23256
-0.07244
-0.24883
-0.24365
-0.13873
-0.03834
0.03666
0.07461
0.08019
0.07151
0.04442
0.01985
-0.01263
-0.03078
-0.03542
-0.02953
-0.01819
-0.01196
0.00346
0.00825
0.01378
0.01225
0.00728
0.00710
0.00625
0.00236
-0.00537
-0.01081
-0.00523
-0.00369
-0.00228
-0.00158
-0.00183
0.00123
0.00330
0.00330
0.00740
0.00886
-0.00096
-0.00458
-0.01036
-0.00111
0.00049
-0.00311
0.00135
0.00177
0.00228
-0.00402
0.00226
0.00898
0.00025
-0.00175
-0.00354
-0.00357
-0.00396
0.00145
0.00527
0.00362
-0.00085
-0.00679
-0.00129
0.00236
0.00237
0.00079
0.00105
0.00039
0.00234
-0.00087
-0.00584
-0.00558
0.00290
0.00611
0.00146
-0.00517
-0.00199
-0.00340
-0.00277
0.00098
0.01026
0.02273
0.01746
0.00441
-0.01571
-0.02631
-0.04179
-0.04136
-0.02278
0.00585
0.04092
0.06959
0.08869
0.09453
0.05543
-0.03086
-0.16276
-0.28145
-0.23749
-0.01827
0.25971
0.38970
0.26057
0.00330
-0.19336
-0.23143
-0.15870
-0.05882
0.01850
0.06180
0.07758
0.06385
0.04424
0.02023
0.00079
-0.02072
-0.02956
-0.02785
-0.01975
-0.01096
-0.00628
0.00322
0.00987
0.01394
0.01044
0.01043
0.00545
0.00088
-0.00657
-0.00810
-0.00231
-0.00175
-0.00496
-0.00511
-0.00009
0.00191
0.00370
0.00215
0.00535
0.00503
-0.00089
-0.00082
-0.00214
-0.00303
-0.00093
-0.00324
-0.00350
-0.00052
0.00218
0.00424
-0.00079
0.00346
0.00326
0.00012
0.00021
-0.00615
-0.00027
-0.00157
-0.00219
0.00400
-0.00059
0.00089
-0.00435
0.00123
0.00976
-0.00062
-0.00284
-0.00339
-0.00010
0.00067
-0.00387
-0.00024
0.00365
0.00076
0.00287
0.00203
-0.00531
-0.00799
-0.00460
0.00055
0.00463
0.00877
0.01560
0.02016
0.01368
-0.01223
-0.03343
-0.04566
-0.03682
-0.01541
0.00166
0.03066
0.05942
0.08505
0.08850
0.06851
-0.00774
-0.13406
-0.26213
-0.26180
-0.06776
0.20976
0.38419
0.30502
0.04547
-0.17416
-0.23253
-0.17326
-0.07455
0.00796
0.05839
0.07012
0.06770
0.05235
0.02741
0.00003
-0.01919
-0.02720
-0.02864
-0.02478
-0.01360
-0.00274
0.00489
0.00803
0.01072
0.01371
0.00766
0.00413
-0.00104
-0.00194
-0.00354
-0.00108
-0.00399
-0.00566
-0.00672
-0.00048
0.00181
-0.00028
0.00378
0.00359
0.00474
0.00137
0.00381
0.00067
0.00098
-0.00298
-0.01037
-0.00843
-0.00283
0.00358
0.00351
0.00800
0.00502
0.00004
0.00194
-0.00111
-0.00191
-0.00203
-0.00689
-0.00368
0.00380
0.00058
-0.00404
0.00218
0.00795
0.00388
-0.00075
-0.00078
-0.00125
-0.00229
-0.00313
-0.00411
0.00139
0.00268
0.00185
-0.00134
0.00132
0.00212
-0.00631
-0.00676
0.00049
0.01203
0.00308
-0.00285
0.00997
0.01836
0.01191
-0.01030
-0.02705
-0.03623
-0.04035
-0.03020
-0.00065
0.03445
0.07051
0.09575
0.09477
0.06920
-0.01070
-0.15240
-0.29865
-0.28481
-0.05005
0.25456
0.42491
0.31578
0.02687
-0.20256
-0.25867
-0.17909
-0.06985
0.01476
0.06373
0.07847
0.07580
0.05221
0.02255
-0.00177
-0.01360
-0.02677
-0.03304
-0.03011
-0.02006
-0.00484
0.00559
0.01676
0.01767
0.01310
0.00411
0.00211
0.00478
-0.00126
-0.00909
-0.00727
-0.00706
-0.00397
0.00075
0.00173
0.00321
0.00037
0.00148
-0.00042
0.00274
0.00531
0.00476
-0.00188
-0.00144
0.00000
-0.01076
-0.00740
-0.00434
0.00480
0.01038
0.00346
-0.00019
0.00459
0.00359
-0.00418
-0.00674
-0.00491
-0.00137
0.00101
0.00274
0.00155
0.00010
0.00034
-0.00031
0.00042
0.00475
0.00017
-0.00102
-0.00112
-0.00250
-0.00228
-0.00239
-0.00006
0.00304
0.00029
0.00111
0.00147
0.00041
-0.00112
-0.00543
-0.00110
0.00039
0.00077
0.00926
0.02274
0.01808
-0.00252
-0.02781
-0.04179
-0.04003
-0.02564
-0.00299
0.02446
0.05722
0.08746
0.09752
0.07080
-0.00173
-0.12588
-0.25326
-0.26951
-0.09145
0.19267
0.37964
0.31374
0.06805
-0.15487
-0.23408
-0.18007
-0.08311
0.00030
0.05317
0.07191
0.06620
0.05447
0.03150
0.00335
-0.01552
-0.02418
-0.02994
-0.02981
-0.01859
-0.00708
0.00720
0.01247
0.01170
0.01401
0.01017
0.00647
-0.00234
-0.00555
-0.00407
-0.00580
-0.00720
-0.00572
0.00238
0.00316
0.00365
0.00106
-0.00172
0.00093
0.00119
0.00396
0.00178
-0.00001
0.00156
-0.00491
-0.00566
-0.00343
0.00036
0.00308
0.00179
0.00255
0.00290
-0.00152
-0.00202
0.00007
-0.00203
0.00209
0.00136
0.00074
-0.00120
-0.00071
-0.00184
-0.00164
-0.00037
-0.00062
0.00234
0.00164
0.00311
0.00180
-0.00054
-0.00201
-0.00262
-0.00121
-0.00220
-0.00167
0.00376
0.00425
-0.00049
-0.00551
-0.00471
-0.00060
0.00245
0.00272
0.00771
0.01630
0.01891
0.00436
-0.01646
-0.03080
-0.04153
-0.03592
-0.01875
0.01069
0.04348
0.06766
0.08684
0.09046
0.05094
-0.04244
-0.17933
-0.27899
-0.21525
0.01505
0.27470
0.37490
0.23528
-0.01843
-0.19709
-0.22412
-0.14824
-0.05422
0.01939
0.06381
0.07803
0.06860
0.04361
0.01890
-0.00404
-0.02251
-0.03093
-0.03156
-0.02048
-0.00884
-0.00499
0.00799
0.01453
0.01360
0.00896
0.00470
0.00391
0.00064
-0.00265
-0.00653
-0.00322
-0.00517
-0.00621
-0.00506
0.00223
0.00729
0.00321
-0.00073
0.00112
0.00408
0.00359
0.00209
-0.00382
-0.00429
-0.00236
-0.00279
-0.00408
-0.00171
0.00286
0.00567
0.00310
0.00214
0.00273
-0.00136
-0.00438
-0.00339
-0.00042
0.00190
0.00035
-0.00051
-0.00101
-0.00051
-0.00013
0.00061
0.00102
0.00129
0.00114
0.00052
0.00339
-0.00046
-0.00266
-0.00354
-0.00283
-0.00115
-0.00044
0.00043
0.00426
0.00473
-0.00347
-0.00665
-0.00293
0.00469
0.00635
0.00747
0.01275
0.01478
0.00463
-0.01811
-0.03609
-0.04118
-0.03422
-0.01705
0.01535
0.05167
0.08138
0.09870
0.08880
0.03868
-0.07187
-0.22759
-0.31053
-0.19169
0.08958
0.35291
0.39349
0.18760
-0.08317
-0.23682
-0.22986
-0.13285
-0.02765
0.03862
0.06845
0.07604
0.06771
0.04310
0.01539
-0.00921
-0.02443
-0.03039
-0.03019
-0.02547
-0.01316
0.00344
0.00844
0.01309
0.01398
0.01059
0.00729
0.00380
-0.00057
-0.00487
-0.00566
-0.00598
-0.00405
-0.00376
-0.00277
-0.00133
0.00149
0.00419
0.00484
0.00399
0.00131
0.00026
0.00182
0.00119
-0.00277
-0.00383
-0.00220
-0.00375
-0.00753
-0.00266
0.00636
0.00801
0.00652
0.00227
0.00131
-0.00055
-0.00686
-0.00612
-0.00367
0.00205
0.00312
0.00159
0.00085
-0.00019
-0.00072
-0.00140
-0.00175
0.00153
0.00597
0.00267
0.00008
-0.00147
-0.00351
-0.00503
-0.00242
0.00336
-0.00041
-0.00475
0.00065
0.00780
0.00714
-0.00286
-0.00649
-0.00204
-0.00118
-0.00275
0.00809
0.01953
0.01895
0.00055
-0.02005
-0.03289
-0.03902
-0.03338
-0.01206
0.01971
0.05038
0.07853
0.08989
0.07827
0.02474
-0.07935
-0.21928
-0.28330
-0.15816
0.10768
0.34047
0.35916
0.15370
-0.09782
-0.23067
-0.21167
-0.11482
-0.01850
0.04597
0.07110
0.07168
0.05637
0.03397
0.01139
-0.00799
-0.02229
-0.02956
-0.03145
-0.02236
-0.00722
0.00296
0.01055
0.01402
0.01160
0.00871
0.00340
0.00035
0.00085
-0.00112
-0.00554
-0.00674
-0.00189
-0.00036
-0.00445
-0.00416
0.00100
0.00181
0.00381
0.00556
0.00595
0.00466
0.00120
-0.00481
-0.00661
-0.00542
-0.00290
-0.00191
-0.00100
0.00522
0.00233
-0.00035
0.00374
0.00850
0.00358
-0.00535
-0.00924
-0.00544
0.00114
0.00180
0.00055
0.00006
0.00336
0.00077
-0.00075
-0.00093
0.00230
0.00292
-0.00189
-0.00059
-0.00074
-0.00178
-0.00226
-0.00143
0.00095
0.00179
-0.00038
0.00203
0.00295
-0.00078
-0.00736
-0.00534
0.00309
0.00496
0.00648
0.01142
0.01536
0.00818
-0.01026
-0.02866
-0.03595
-0.03333
-0.02039
-0.00015
0.03113
0.06793
0.08765
0.08740
0.05548
-0.02512
-0.15481
-0.26917
-0.23162
-0.01870
0.24320
0.36749
0.25890
0.01570
-0.17906
-0.22666
-0.16237
-0.06199
0.01525
0.05899
0.07259
0.06836
0.05180
0.02206
-0.00507
-0.02119
-0.02719
-0.02872
-0.02430
-0.01270
-0.00189
0.00572
0.00784
0.01247
0.01462
0.00961
0.00465
-0.00284
-0.00356
-0.00381
-0.00501
-0.00692
-0.00491
-0.00138
-0.00002
0.00086
0.00307
0.00608
0.00298
0.00190
0.00303
0.00052
-0.00334
-0.00553
-0.00257
0.00053
-0.00115
-0.00412
-0.00048
0.00540
0.00253
0.00314
0.00176
0.00054
-0.00084
-0.00292
-0.00453
-0.00120
0.00384
0.00044
-0.00122
-0.00073
-0.00056
0.00022
0.00023
0.00074
0.00392
0.00131
-0.00129
-0.00212
-0.00026
0.00012
-0.00108
-0.00029
0.00129
-0.00039
-0.00424
-0.00255
0.00267
0.00304
-0.00172
-0.00217
0.00379
0.00309
0.00025
0.00851
0.01734
0.01347
-0.00856
-0.02810
-0.03739
-0.03836
-0.02728
-0.00086
0.03413
0.06891
0.09113
0.09136
0.06409
-0.01195
-0.14814
-0.27872
-0.26347
-0.05401
0.23268
0.39436
0.30252
0.04197
-0.17994
-0.24387
-0.17967
-0.07545
0.01057
0.05875
0.07490
0.07201
0.05477
0.02665
0.00142
-0.01635
-0.02890
-0.03311
-0.02973
-0.01757
-0.00257
0.00801
0.01471
0.01235
0.00982
0.00975
0.00314
0.00016
-0.00002
-0.00444
-0.00865
-0.00803
-0.00354
0.00056
0.00113
0.00053
0.00107
0.00291
0.00346
0.00271
0.00401
0.00067
-0.00301
-0.00267
-0.00261
-0.00057
-0.00144
-0.00213
-0.00174
-0.00022
0.00127
0.00161
0.00439
0.00422
0.00391
0.00102
-0.00614
-0.00557
-0.00179
-0.00283
-0.00060
0.00341
0.00387
-0.00045
-0.00219
0.00122
0.00211
0.00174
0.00115
0.00036
-0.00068
-0.00169
-0.00235
-0.00207
-0.00030
-0.00267
-0.00390
-0.00027
0.00519
0.00888
0.00301
-0.00304
-0.00361
-0.00394
-0.00104
0.01042
0.02075
0.01278
-0.00979
-0.03028
-0.03872
-0.03502
-0.01881
0.00773
0.03690
0.06633
0.08713
0.08612
0.04955
-0.03561
-0.16887
-0.27154
-0.21875
0.00202
0.26323
0.37297
0.24402
-0.00727
-0.19394
-0.22760
-0.15315
-0.05347
0.02166
0.06056
0.07363
0.06726
0.04746
0.02258
-0.00412
-0.02494
-0.03264
-0.02719
-0.01814
-0.01087
-0.00229
0.00515
0.00741
0.00906
0.01432
0.01298
0.00499
-0.00237
-0.00597
-0.00566
-0.00424
-0.00473
-0.00281
-0.00149
-0.00374
-0.00086
0.00447
0.00877
0.00556
-0.00002
-0.00113
-0.00035
0.00008
-0.00236
-0.00479
-0.00294
-0.00085
-0.00096
-0.00051
0.00234
0.00549
0.00449
-0.00067
-0.00246
0.00095
0.00147
-0.00207
-0.00561
-0.00174
0.00111
0.00053
0.00069
0.00068
0.00098
0.00084
0.00064
0.00229
0.00361
-0.00076
-0.00542
-0.00531
0.00142
0.00149
-0.00072
0.00160
-0.00006
0.00065
0.00063
0.00043
-0.00025
-0.00526
-0.00529
0.00221
0.00730
0.01136
0.01637
0.01336
-0.00218
-0.02262
-0.03789
-0.03986
-0.02685
-0.00479
0.02313
0.05285
0.07930
0.09069
0.07154
0.01034
-0.10046
-0.22776
-0.25878
-0.12002
0.13194
0.33292
0.32849
0.12427
-0.11218
-0.21993
-0.19195
-0.10412
-0.01810
0.04321
0.07137
0.06947
0.05711
0.03736
0.00875
-0.01616
-0.02796
-0.02898
-0.02344
-0.01584
-0.00872
0.00214
0.00894
0.01182
0.00994
0.00795
0.00717
0.00278
-0.00075
-0.00269
-0.00232
-0.00594
-0.00870
-0.00695
0.00032
0.00357
0.00166
0.00180
0.00422
0.00498
0.00152
0.00086
0.00256
-0.00149
-0.00670
-0.00710
-0.00252
0.00376
0.00272
-0.00208
-0.00169
0.00250
0.00426
0.00413
0.00146
0.00094
-0.00125
-0.00600
-0.00619
-0.00031
0.00394
0.00080
-0.00208
-0.00021
0.00176
0.00092
0.00258
0.00379
0.00230
-0.00223
-0.00443
-0.00183
-0.00124
-0.00226
-0.00157
0.00133
0.00193
0.00269
0.00190
-0.00141
-0.00135
-0.00211
-0.00205
-0.00011
0.00362
0.00938
0.01667
0.01575
-0.00151
-0.02299
-0.03872
-0.04235
-0.03032
-0.00311
0.02732
0.05724
0.08238
0.09404
0.07894
0.01073
-0.11670
-0.25417
-0.27961
-0.11547
0.16814
0.37696
0.34205
0.10059
-0.14289
-0.23753
-0.19451
-0.09823
-0.00933
0.04901
0.07504
0.07454
0.05668
0.03228
0.00683
-0.01345
-0.02732
-0.03138
-0.02683
-0.01895
-0.00835
0.00451
0.01278
0.01298
0.01045
0.00854
0.00618
0.00203
-0.00290
-0.00588
-0.00448
-0.00440
-0.00391
-0.00145
-0.00015
-0.00054
-0.00020
0.00088
0.00544
0.00616
0.00060
-0.00134
-0.00249
-0.00079
0.00075
-0.00074
-0.00050
-0.00088
-0.00398
-0.00398
0.00004
0.00428
0.00476
0.00246
0.00044
-0.00092
0.00076
0.00027
-0.00299
-0.00204
-0.00005
-0.00242
-0.00463
0.00066
0.00571
0.00302
-0.00006
0.00147
0.00251
0.00061
-0.00165
-0.00398
-0.00100
0.00041
-0.00414
-0.00408
0.00098
0.00352
0.00306
0.00104
0.00096
0.00094
-0.00086
-0.00107
-0.00050
0.00845
0.01729
0.01110
-0.00632
-0.02587
-0.03851
-0.03655
-0.02161
0.00427
0.03388
0.06219
0.08553
0.09001
0.05921
-0.02222
-0.15159
-0.26615
-0.24328
-0.04083
0.23597
0.38680
0.28220
0.02136
-0.18511
-0.23299
-0.16557
-0.06684
0.01078
0.05682
0.07421
0.06972
0.05111
0.02639
0.00337
-0.01793
-0.03203
-0.03424
-0.02620
-0.01382
-0.00252
0.00721
0.01405
0.01474
0.00761
0.00356
0.00675
0.00317
-0.00366
-0.00622
-0.00461
-0.00214
-0.00445
-0.00490
-0.00139
0.00322
0.00403
0.00110
-0.00036
-0.00040
0.00325
0.00504
0.00172
0.00242
0.00136
-0.00443
-0.00752
-0.00988
-0.00677
0.00082
0.00578
0.00986
0.01069
0.00434
-0.00253
-0.00493
-0.00342
-0.00127
-0.00443
-0.00624
-0.00244
0.00151
0.00536
0.00654
0.00258
-0.00144
-0.00044
0.00314
0.00193
-0.00394
-0.00670
-0.00353
0.00100
0.00226
-0.00200
-0.00180
0.00491
0.00482
-0.00089
-0.00372
-0.00040
0.00027
-0.00016
0.00972
0.01842
0.01093
-0.00720
-0.02316
-0.03347
-0.03506
-0.02465
-0.00331
0.02701
0.06009
0.08236
0.08586
0.06098
-0.00884
-0.12883
-0.24185
-0.23479
-0.06455
0.18232
0.34142
0.28699
0.06662
-0.14095
-0.21924
-0.17525
-0.08160
0.00068
0.05023
0.06927
0.06964
0.05460
0.02773
0.00043
-0.01849
-0.02691
-0.02839
-0.02535
-0.01449
-0.00235
0.00701
0.00952
0.00941
0.01210
0.00855
0.00138
-0.00188
-0.00160
-0.00104
-0.00290
-0.00507
-0.00347
-0.00130
-0.00195
-0.00333
0.00154
0.00517
0.00359
0.00315
0.00235
0.00234
-0.00097
-0.00532
-0.00466
-0.00158
0.00051
0.00070
0.00124
0.00151
-0.00077
-0.00131
0.00010
0.00220
0.00359
0.00220
-0.00124
-0.00202
-0.00078
-0.00316
-0.00459
-0.00075
0.00331
0.00197
0.00053
0.00086
0.00352
0.00283
-0.00038
-0.00172
-0.00257
-0.00333
-0.00264
-0.00080
0.00095
0.00073
0.00038
0.00352
0.00094
-0.00321
-0.00392
0.00046
0.00523
0.00842
0.01316
0.01376
0.00427
-0.01622
-0.03521
-0.04105
-0.03465
-0.01278
0.01835
0.04899
0.07756
0.09370
0.08166
0.02855
-0.07433
-0.20732
-0.27604
-0.17661
0.07200
0.31380
0.36902
0.19200
-0.06554
-0.22123
-0.22162
-0.13263
-0.03556
0.03590
0.07383
0.07709
0.06071
0.03931
0.01437
-0.00716
-0.02346
-0.03291
-0.03091
-0.02021
-0.00829
0.00116
0.00933
0.01280
0.01144
0.00973
0.00532
0.00302
-0.00081
-0.00356
-0.00347
-0.00529
-0.00537
-0.00388
-0.00209
-0.00115
0.00313
0.00377
0.00143
0.00297
0.00378
0.00175
0.00181
0.00049
-0.00370
-0.00631
-0.00599
-0.00116
0.00140
0.00167
0.00192
0.00255
0.00300
0.00224
0.00136
0.00129
-0.00151
-0.00527
-0.00408
-0.00118
0.00045
0.00037
0.00067
0.00121
0.00164
0.00199
0.00189
0.00151
0.00053
-0.00063
-0.00205
-0.00295
-0.00312
-0.00159
-0.00193
-0.00221
0.00335
0.00709
0.00375
-0.00280
-0.00233
0.00009
-0.00116
-0.00121
0.00862
0.01936
0.01464
-0.00599
-0.02765
-0.03819
-0.04202
-0.02917
0.00077
0.04077
0.07424
0.09397
0.09461
0.06049
-0.02595
-0.17038
-0.29544
-0.25877
-0.02215
0.27137
0.41191
0.29014
0.01223
-0.20560
-0.25387
-0.17791
-0.06743
0.01734
0.06712
0.08871
0.07940
0.05084
0.01920
-0.00662
-0.02341
-0.03375
-0.03215
-0.02238
-0.01057
-0.00077
0.00403
0.00989
0.01624
0.01603
0.00808
-0.00032
-0.00380
-0.00337
-0.00440
-0.00665
-0.00624
0.00003
0.00222
-0.00025
0.00438
0.00469
-0.00204
-0.00563
-0.00358
0.00431
0.00669
0.00365
-0.00016
-0.00083
-0.00119
-0.00445
-0.00812
-0.00353
0.00334
0.00416
0.00290
0.00122
0.00507
0.00199
-0.00160
-0.00235
-0.00316
-0.00208
-0.00101
-0.00277
-0.00295
0.00094
0.00472
0.00737
0.00480
-0.00137
-0.00641
-0.00357
0.00209
0.00122
-0.00228
-0.00404
-0.00271
0.00317
0.00450
0.00314
-0.00194
-0.00481
-0.00309
-0.00110
0.00293
0.01059
0.01929
0.01628
-0.00111
-0.02018
-0.03357
-0.04020
-0.03055
-0.01098
0.01467
0.04443
0.07594
0.09519
0.08353
0.02895
-0.07638
-0.20753
-0.27449
-0.17111
0.08163
0.31991
0.35705
0.16872
-0.07495
-0.21205
-0.20554
-0.12250
-0.03342
0.03083
0.06490
0.07559
0.06217
0.04119
0.01637
-0.00908
-0.02664
-0.03391
-0.02875
-0.01857
-0.00882
0.00157
0.01017
0.01383
0.01186
0.00818
0.00554
0.00358
-0.00163
-0.00722
-0.00570
-0.00243
-0.00315
-0.00345
0.00094
0.00224
-0.00107
-0.00146
0.00111
0.00161
0.00626
0.00581
0.00257
-0.00193
-0.00519
-0.00568
-0.00516
-0.00038
0.00170
0.00104
-0.00226
0.00170
0.00692
0.00639
-0.00008
-0.00303
-0.00197
-0.00204
-0.00301
-0.00290
-0.00135
-0.00006
0.00167
0.00238
0.00309
0.00254
0.00197
0.00033
-0.00099
-0.00273
-0.00339
-0.00343
-0.00142
0.00096
0.00088
-0.00000
0.00447
0.00527
-0.00122
-0.00695
-0.00721
0.00040
0.00642
0.01512
0.02146
0.01476
-0.01058
-0.03489
-0.04246
-0.03729
-0.02060
0.00410
0.03493
0.06670
0.08958
0.08814
0.05956
-0.01821
-0.15136
-0.26880
-0.25031
-0.04636
0.22957
0.38472
0.29789
0.03825
-0.18284
-0.24161
-0.17820
-0.07378
0.01108
0.06096
0.07945
0.07326
0.05480
0.02575
-0.00234
-0.02322
-0.03111
-0.03128
-0.02610
-0.01399
-0.00230
0.00954
0.01189
0.01234
0.01320
0.00858
0.00154
-0.00373
-0.00229
-0.00320
-0.00506
-0.00625
-0.00347
0.00127
0.00135
0.00033
-0.00073
0.00098
0.00135
0.00197
0.00442
0.00503
0.00235
-0.00231
-0.00542
-0.00382
-0.00339
-0.00495
-0.00356
0.00079
0.00724
0.00837
0.00430
0.00070
-0.00058
-0.00234
-0.00463
-0.00350
-0.00169
-0.00180
-0.00125
-0.00018
0.00196
0.00628
0.00503
0.00044
-0.00102
-0.00221
-0.00109
-0.00296
-0.00014
0.00088
-0.00303
-0.00498
-0.00202
0.00432
0.00618
0.00571
-0.00090
-0.00494
-0.00422
-0.00470
0.00203
0.01809
0.02314
0.01204
-0.01197
-0.03108
-0.04057
-0.04151
-0.02638
0.00382
0.04047
0.07182
0.09343
0.09463
0.06438
-0.02150
-0.16441
-0.29454
-0.27143
-0.03891
0.26588
0.42403
0.30605
0.01670
-0.21068
-0.25963
-0.17613
-0.06464
0.01879
0.06485
0.08099
0.07566
0.05169
0.02146
-0.00318
-0.02175
-0.02976
-0.02986
-0.02352
-0.01177
-0.00489
0.00140
0.00969
0.01398
0.01530
0.00933
0.00286
0.00165
-0.00326
-0.00455
-0.00618
-0.00397
-0.00258
-0.00510
-0.00357
-0.00028
0.00179
0.00351
0.00798
0.00869
0.00179
-0.00199
-0.00345
-0.00309
-0.00315
-0.00472
-0.00333
-0.00275
0.00218
0.00608
0.00698
0.00221
-0.00171
-0.00420
-0.00067
0.00111
-0.00124
-0.00123
-0.00166
0.00230
0.00174
-0.00108
-0.00084
-0.00135
-0.00162
0.00099
0.00312
0.00376
0.00131
-0.00037
-0.00134
-0.00439
-0.00462
-0.00303
0.00113
0.00333
0.00126
0.00316
0.00018
-0.00345
-0.00344
0.00663
0.02171
0.02027
0.00095
-0.02087
-0.03524
-0.04068
-0.03264
-0.01319
0.01739
0.04885
0.07204
0.08698
0.08276
0.03633
-0.05883
-0.19493
-0.28046
-0.19469
0.05333
0.30992
0.37694
0.19911
-0.06130
-0.21379
-0.21591
-0.13299
-0.04174
0.02838
0.06837
0.07772
0.06501
0.04093
0.01773
-0.00591
-0.02762
-0.03598
-0.02994
-0.01694
-0.00721
0.00247
0.01000
0.01051
0.00880
0.00577
0.00609
0.00503
0.00188
-0.00126
-0.00499
-0.00432
-0.00313
-0.00408
-0.00724
-0.00350
0.00132
0.00195
0.00529
0.00736
0.00725
0.00304
0.00077
-0.00302
-0.00621
-0.00697
-0.00638
-0.00426
0.00037
0.00597
0.00651
0.00439
0.00329
0.00138
-0.00216
-0.00237
-0.00084
-0.00179
-0.00467
-0.00491
-0.00068
0.00288
0.00273
0.00277
0.00374
0.00598
0.00023
-0.00423
-0.00403
-0.00081
-0.00223
-0.00466
-0.00199
0.00175
0.00347
0.00214
0.00505
-0.00110
-0.00347
-0.00337
-0.00138
0.00311
0.01382
0.02322
0.00899
-0.01321
-0.03010
-0.03843
-0.03446
-0.01957
0.00336
0.03205
0.06232
0.08605
0.09173
0.06269
-0.02258
-0.15108
-0.26336
-0.24569
-0.04482
0.22870
0.38013
0.28830
0.03235
-0.17910
-0.23536
-0.17093
-0.06830
0.00971
0.05663
0.07597
0.06981
0.05024
0.02697
0.00104
-0.01951
-0.03198
-0.02878
-0.02158
-0.01619
-0.00657
0.00521
0.01466
0.01395
0.00868
0.00468
0.00642
0.00549
-0.00367
-0.00857
-0.00401
-0.00270
-0.00312
-0.00616
-0.00201
0.00089
0.00214
0.00319
0.00676
0.00753
-0.00038
-0.00183
-0.00399
-0.00091
-0.00076
-0.00365
-0.00462
-0.00058
0.00164
0.00205
0.00290
0.00322
0.00239
-0.00070
-0.00132
-0.00219
0.00043
-0.00011
-0.00213
-0.00211
-0.00139
0.00031
0.00134
0.00267
0.00247
0.00245
0.00071
-0.00033
-0.00257
-0.00295
-0.00351
-0.00087
0.00125
-0.00153
0.00118
0.00173
0.00450
-0.00026
-0.00494
-0.00312
0.00099
0.01001
0.01930
0.01618
0.00111
-0.01935
-0.03723
-0.04288
-0.03529
-0.01026
0.02189
0.05057
0.08180
0.09792
0.08537
0.03164
-0.08880
-0.23444
-0.29970
-0.17032
0.10699
0.36336
0.39293
0.16129
-0.11289
-0.24241
-0.21547
-0.12117
-0.02696
0.04255
0.08115
0.07744
0.06043
0.03711
0.01096
-0.01138
-0.02805
-0.03031
-0.02527
-0.01705
-0.01125
-0.00374
0.00854
0.01418
0.01122
0.01135
0.01031
0.00386
-0.00370
-0.00521
-0.00478
-0.00401
-0.00629
-0.00752
-0.00079
0.00443
0.00326
0.00025
0.00223
0.00486
0.00245
-0.00113
0.00191
0.00135
-0.00126
-0.00468
-0.00555
-0.00187
-0.00071
-0.00172
-0.00152
0.00311
0.00905
0.00796
0.00206
-0.00134
-0.00480
-0.00520
-0.00827
-0.00459
-0.00013
0.00494
0.00462
0.00423
0.00781
0.00114
-0.00161
-0.00420
-0.00720
-0.00393
0.00028
0.00223
0.00018
-0.00212
-0.00090
0.00515
0.00628
-0.00118
-0.00247
-0.00541
-0.00307
0.00535
0.02053
0.02309
0.00559
-0.01820
-0.03908
-0.04894
-0.03912
-0.01097
0.01885
0.05236
0.08251
0.10242
0.09255
0.03721
-0.07246
-0.22517
-0.32290
-0.21816
0.08056
0.37333
0.43145
0.20802
-0.09580
-0.25620
-0.24391
-0.13954
-0.03243
0.04150
0.07807
0.08173
0.07030
0.04628
0.01839
-0.01324
-0.02690
-0.03526
-0.03370
-0.02525
-0.01310
0.00435
0.01348
0.01562
0.01431
0.01062
0.00557
0.00088
-0.00277
-0.00442
-0.00448
-0.00298
-0.00979
-0.00278
0.00202
0.00202
0.00049
-0.00111
0.00457
0.00389
0.00161
0.00232
0.00051
0.00035
0.00146
-0.00563
-0.00811
-0.00357
0.00059
-0.00003
0.00289
0.00513
0.00629
0.00035
-0.00121
-0.00033
-0.00261
0.00051
-0.00214
-0.00350
-0.00359
-0.00387
0.00214
0.00972
0.00817
0.00083
-0.00657
-0.00396
-0.00051
-0.00085
0.00069
-0.00174
-0.00432
0.00294
0.00293
-0.00004
0.00336
-0.00300
-0.00523
-0.00157
0.00388
0.01452
0.02195
0.01199
-0.01159
-0.02507
-0.03539
-0.03851
-0.02902
-0.00230
0.03175
0.05709
0.08437
0.09034
0.07078
0.00367
-0.11531
-0.25532
-0.28019
-0.09885
0.18098
0.37921
0.33383
0.08722
-0.15279
-0.23853
-0.19106
-0.09097
-0.00573
0.04833
0.07525
0.07404
0.05676
0.03210
0.00774
-0.01503
-0.02846
-0.02664
-0.02697
-0.02193
-0.01073
-0.00045
0.01112
0.01943
0.01393
0.00708
0.00920
0.00299
-0.00320
-0.00896
-0.00473
-0.00357
-0.00404
-0.00685
-0.00279
0.00041
0.00138
0.00646
0.00964
0.00703
-0.00252
-0.00354
-0.00235
0.00109
-0.00424
-0.00324
-0.00478
-0.00077
0.00602
0.00155
-0.00245
-0.00023
0.00505
0.00708
-0.00016
-0.00410
-0.00372
-0.00112
-0.00543
-0.00426
0.00848
0.00009
0.00215
0.00211
0.00216
0.00004
-0.00150
-0.00442
-0.00062
0.00313
-0.00513
-0.00235
-0.00114
0.00601
0.00540
-0.00111
-0.00334
-0.00452
-0.00491
-0.00044
0.01183
0.02208
0.01986
0.00195
-0.02335
-0.03630
-0.03954
-0.02947
-0.01305
0.01417
0.04396
0.07150
0.09458
0.08885
0.03851
-0.06560
-0.20903
-0.29111
-0.18778
0.06518
0.32899
0.39026
0.18796
-0.08301
-0.22563
-0.21908
-0.12959
-0.03112
0.03605
0.07093
0.07824
0.06563
0.03866
0.01209
-0.00954
-0.02529
-0.03523
-0.02859
-0.01891
-0.00798
0.00050
0.01015
0.01446
0.01358
0.00827
0.00426
0.00330
0.00034
-0.00798
-0.00821
0.00113
-0.00269
-0.00278
-0.00745
-0.00385
0.00435
0.00595
0.00669
0.00592
0.00342
-0.00113
-0.00383
-0.00447
-0.00457
-0.00290
-0.00091
-0.00108
0.00030
0.00678
0.00197
-0.00018
0.00330
0.00124
0.00073
-0.00476
-0.00395
-0.00362
0.00210
0.00134
-0.00011
0.00095
0.00047
0.00172
0.00093
0.00153
0.00016
0.00035
-0.00071
0.00055
-0.00330
-0.00895
-0.00387
0.00447
0.00810
0.00332
-0.00347
-0.00204
-0.00099
-0.00008
0.00336
0.01606
0.02325
0.00898
-0.01892
-0.03516
-0.04145
-0.03923
-0.01849
0.00900
0.04242
0.07398
0.09891
0.09803
0.05957
-0.03776
-0.19796
-0.32232
-0.25302
0.01793
0.32515
0.43540
0.25664
-0.03627
-0.23455
-0.25349
-0.16001
-0.04813
0.03109
0.07167
0.08113
0.07325
0.04775
0.01647
-0.00634
-0.02251
-0.02788
-0.03476
-0.02342
-0.01403
-0.00270
0.00614
0.01320
0.01638
0.01337
0.00859
0.00012
0.00227
-0.00291
-0.00701
-0.00929
-0.00183
-0.00444
-0.00372
0.00064
0.00303
0.00396
-0.00142
0.00202
0.00456
0.00543
0.00477
0.00090
-0.00582
-0.00738
-0.00375
-0.00402
-0.00679
0.00186
0.00571
0.00872
0.00504
0.00287
0.00101
-0.00222
-0.00609
-0.00833
-0.00100
0.00137
0.00189
0.00089
0.00190
0.00043
0.00053
0.00294
0.00725
-0.00053
-0.00539
-0.00616
-0.00269
-0.00395
-0.00525
0.00373
0.00671
0.00793
0.00127
-0.00341
-0.00010
-0.00074
-0.00187
0.01178
0.01861
0.01188
-0.01420
-0.03604
-0.03991
-0.03649
-0.01759
0.01089
0.04561
0.08034
0.09769
0.09134
0.04840
-0.05569
-0.20986
-0.32044
-0.23047
0.05658
0.35035
0.42562
0.22265
-0.06935
-0.24487
-0.24503
-0.14355
-0.03760
0.03895
0.07315
0.07822
0.06775
0.04389
0.01716
-0.00672
-0.02085
-0.03038
-0.03368
-0.02585
-0.01269
-0.00045
0.00628
0.01295
0.01768
0.01281
0.00830
0.00184
-0.00152
-0.00515
-0.00487
-0.00532
-0.00670
-0.00295
-0.00162
0.00109
-0.00055
0.00391
0.00405
0.00043
0.00234
0.00511
0.00753
-0.00015
-0.00939
-0.01069
-0.00397
-0.00116
0.00077
0.00476
0.00519
0.00558
0.00098
-0.00263
-0.00140
0.00285
-0.00230
-0.00638
-0.00279
0.00173
0.00202
0.00199
0.00138
-0.00002
0.00262
-0.00001
-0.00301
0.00003
0.00387
-0.00351
-0.00658
-0.00514
0.00295
0.00844
0.00492
-0.00012
-0.00377
-0.00740
-0.00647
0.00245
0.01810
0.02846
0.01219
-0.00950
-0.03144
-0.04350
-0.03914
-0.02637
0.00203
0.03740
0.06672
0.09199
0.09382
0.05842
-0.02143
-0.15078
-0.26983
-0.25130
-0.04669
0.23359
0.38739
0.28891
0.03209
-0.18155
-0.23430
-0.16903
-0.07138
0.00877
0.05431
0.07676
0.06773
0.04859
0.03246
0.00460
-0.01722
-0.03384
-0.03281
-0.02336
-0.01374
-0.00696
0.00155
0.01300
0.01655
0.01325
0.00747
0.00503
0.00139
-0.00181
-0.00789
-0.00729
-0.00572
-0.00387
-0.00286
0.00086
0.00387
0.00542
0.00097
-0.00230
0.00205
0.00621
0.00368
-0.00218
-0.00306
-0.00164
-0.00673
-0.00670
0.00031
0.00401
0.00562
-0.00012
0.00315
0.00213
0.00289
-0.00134
-0.00358
-0.00279
-0.00459
-0.00482
0.00117
0.00723
0.00480
0.00014
-0.00090
0.00300
-0.00161
-0.00458
-0.00505
0.00339
0.00302
-0.00379
-0.00267
0.00306
0.00315
-0.00275
-0.00335
-0.00055
0.00171
0.00368
0.00856
0.01758
0.01582
-0.00023
-0.02405
-0.03772
-0.03941
-0.03160
-0.00936
0.02008
0.05797
0.08134
0.09181
0.08087
0.02394
-0.09190
-0.23631
-0.29254
-0.15048
0.12904
0.35895
0.36292
0.14229
-0.11319
-0.23488
-0.20702
-0.11417
-0.01980
0.04136
0.07154
0.07543
0.06221
0.03865
0.01385
-0.01040
-0.02718
-0.03437
-0.03306
-0.02182
-0.00679
0.00500
0.00804
0.01401
0.01651
0.01320
0.00456
0.00013
-0.00286
-0.00662
-0.00768
-0.00511
-0.00365
-0.00114
-0.00099
-0.00065
0.00565
0.00446
0.00303
-0.00110
-0.00076
0.00351
0.00137
-0.00071
-0.00137
-0.00540
-0.00164
-0.00332
-0.00301
0.00002
0.00411
0.00590
0.00402
0.00537
-0.00163
-0.00259
-0.00817
-0.00377
-0.00011
0.00060
0.00167
0.00195
0.00278
0.00190
0.00123
-0.00118
0.00088
-0.00046
-0.00113
-0.00507
-0.00332
-0.00255
0.00047
0.00465
0.00576
0.00195
-0.00460
-0.00338
-0.00107
0.00410
0.01297
0.01738
0.01033
-0.00607
-0.02623
-0.03966
-0.03726
-0.02359
-0.00459
0.02730
0.06250
0.09058
0.09972
0.07517
-0.00074
-0.14090
-0.28965
-0.28782
-0.07445
0.22916
0.41725
0.32712
0.05110
-0.18551
-0.25508
-0.18861
-0.07873
0.01122
0.05845
0.07623
0.07357
0.05650
0.03123
0.00289
-0.01719
-0.03009
-0.03462
-0.03073
-0.02169
-0.00690
0.00806
0.01608
0.01867
0.01681
0.01517
0.00827
-0.00600
-0.01179
-0.01507
-0.01279
-0.00628
-0.00033
0.00442
0.00643
0.00795
0.00671
0.00518
0.01055
0.00471
-0.01369
-0.02128
-0.01455
-0.00542
0.00604
0.01503
0.01746
0.01245
-0.00267
-0.01049
-0.01152
-0.00272
0.00008
-0.00426
-0.00054
0.00490
0.00464
0.00463
0.00349
-0.00178
-0.00653
-0.00757
0.00089
0.00733
0.00525
-0.00012
-0.00115
-0.00075
-0.00228
-0.00709
-0.00630
-0.00160
0.00624
0.01207
0.00511
-0.00207
-0.00736
-0.00463
-0.00257
-0.00005
0.01372
0.02108
0.01175
-0.00711
-0.02295
-0.03721
-0.04120
-0.02847
-0.00251
0.03352
0.07066
0.09396
0.09437
0.06017
-0.02033
-0.15478
-0.28149
-0.25690
-0.04330
0.24754
0.40604
0.29482
0.01870
-0.19863
-0.24244
-0.16680
-0.06892
0.01055
0.06046
0.07815
0.07352
0.05377
0.02870
0.00064
-0.02502
-0.03561
-0.03368
-0.02470
-0.01063
0.00073
0.00644
0.00795
0.01427
0.01283
0.00776
0.00612
-0.00060
-0.00460
-0.00923
-0.00634
-0.00015
-0.00163
-0.00262
-0.00005
-0.00155
0.00138
0.00146
0.00229
0.00653
0.00619
0.00244
-0.00436
-0.00300
-0.00558
-0.00528
-0.00247
-0.00061
0.00297
0.00426
0.00102
0.00312
0.00523
-0.00073
-0.00356
-0.00445
-0.00055
0.00032
-0.00063
0.00013
0.00013
0.00083
0.00014
0.00007
0.00265
0.00026
-0.00109
0.00098
-0.00007
-0.00345
-0.00359
0.00339
0.00379
-0.00177
-0.00741
-0.00675
0.00252
0.00712
0.01170
0.01806
0.01789
0.00111
-0.01867
-0.03555
-0.04076
-0.03255
-0.01641
0.01225
0.04273
0.07700
0.09099
0.08209
0.03653
-0.05446
-0.18163
-0.26978
-0.19673
0.03240
0.28082
0.36239
0.21430
-0.03254
-0.19633
-0.21490
-0.14147
-0.04725
0.02621
0.06140
0.06809
0.06271
0.04774
0.02110
-0.00525
-0.02058
-0.02892
-0.02969
-0.02344
-0.01361
-0.00270
0.00636
0.01292
0.01603
0.01336
0.00769
0.00243
-0.00237
-0.00508
-0.00670
-0.00643
-0.00604
-0.00131
0.00341
0.00013
-0.00021
0.00105
0.00380
0.00303
0.00228
0.00131
0.00093
-0.00050
-0.00588
-0.00416
-0.00026
-0.00005
-0.00027
0.00125
0.00201
0.00188
0.00081
-0.00043
0.00011
0.00127
0.00050
-0.00149
-0.00282
-0.00188
-0.00071
0.00116
0.00189
0.00240
0.00129
0.00006
-0.00222
0.00019
0.00032
-0.00216
-0.00071
-0.00227
-0.00101
0.00031
0.00404
0.00156
-0.00297
-0.00219
-0.00167
0.00438
0.01575
0.01776
0.00761
-0.00850
-0.02549
-0.03807
-0.03712
-0.02152
0.00108
0.03005
0.05870
0.08324
0.09160
0.06644
-0.01005
-0.13934
-0.26004
-0.25138
-0.06196
0.21167
0.37701
0.29276
0.04051
-0.16833
-0.22463
-0.16651
-0.07364
0.00335
0.05026
0.07005
0.06824
0.05145
0.02810
0.00524
-0.01500
-0.02763
-0.03066
-0.02623
-0.01680
-0.00596
0.00405
0.01115
0.01521
0.01255
0.00721
0.00518
0.00185
-0.00358
-0.00668
-0.00558
-0.00303
-0.00273
-0.00512
-0.00255
0.00244
0.00539
0.00292
0.00070
0.00165
0.00494
0.00337
-0.00290
-0.00228
-0.00449
-0.00368
-0.00409
-0.00029
0.00273
-0.00028
0.00207
0.00454
0.00554
0.00310
-0.00139
-0.00428
-0.00486
-0.00609
-0.00383
0.00143
0.00637
0.00444
0.00257
0.00199
-0.00001
-0.00185
-0.00455
-0.00247
0.00123
-0.00024
-0.00250
-0.00159
0.00137
0.00435
0.00160
-0.00257
-0.00329
-0.00053
0.00099
0.00332
0.01234
0.02090
0.01263
-0.00740
-0.02988
-0.04441
-0.04263
-0.02606
0.00285
0.03911
0.07204
0.08814
0.09246
0.06934
-0.01022
-0.15520
-0.29091
-0.27458
-0.05231
0.25029
0.41028
0.30410
0.03434
-0.18567
-0.24780
-0.18342
-0.07823
0.00820
0.06116
0.08285
0.07861
0.05468
0.02419
0.00004
-0.01998
-0.03261
