-0.00033
-0.00726
-0.02035
-0.02413
-0.02484
-0.01437
0.00845
0.03609
0.05334
0.05352
0.04209
0.01466
-0.03472
-0.11427
-0.18837
-0.14954
0.03111
0.23100
0.28808
0.14963
-0.06610
-0.18534
-0.16706
-0.08530
-0.01181
0.03660
0.05206
0.05253
0.04441
0.02695
0.00818
-0.01154
-0.01824
-0.01804
-0.01809
-0.01745
-0.00868
-0.00115
0.00698
0.01032
0.01084
0.01092
0.00315
-0.00081
-0.00140
0.00030
-0.00464
-0.00508
-0.00447
-0.00392
-0.00092
-0.00227
0.00067
0.00532
0.00745
0.00466
0.00342
0.00017
-0.00275
-0.00471
-0.00820
-0.00674
0.00028
0.00529
0.00442
0.00437
0.00372
-0.00101
-0.00317
-0.00453
-0.00194
-0.00055
0.00198
0.00247
0.00302
0.00315
0.00170
-0.00102
-0.00398
-0.00088
-0.00868
-0.00941
-0.00388
0.00906
0.01372
0.00738
-0.00093
-0.00389
0.00187
0.00260
-0.00229
-0.00216
0.00485
0.00330
-0.00396
-0.01859
-0.02527
-0.02117
-0.00795
0.01011
0.03151
0.05124
0.06396
0.05823
0.02692
-0.03551
-0.13153
-0.21561
-0.17639
0.01450
0.23237
0.32553
0.19924
-0.03838
-0.19033
-0.19421
-0.11889
-0.03347
0.02860
0.06099
0.06784
0.05404
0.03262
0.01164
-0.00557
-0.01792
-0.02511
-0.02914
-0.01817
-0.00615
-0.00179
0.00556
0.01117
0.01391
0.00926
0.00106
0.00249
0.00476
0.00144
-0.00697
-0.00915
-0.00748
-0.00604
-0.00070
0.00334
0.00571
0.00136
0.00141
0.00314
0.00759
0.00423
-0.00221
-0.00607
-0.00853
-0.00596
-0.00511
0.00212
0.00831
0.00825
0.00087
0.00079
-0.00108
-0.00070
-0.00172
-0.00705
-0.00104
0.00047
0.00035
0.00272
0.00185
0.00353
0.00386
0.00180
-0.00327
-0.00425
-0.00113
-0.00792
-0.00961
-0.00228
0.01076
0.01189
0.00402
0.00043
0.00342
0.00578
-0.00292
-0.01114
-0.00804
0.00277
0.00626
0.00040
-0.00875
-0.02047
-0.02315
-0.00873
0.01397
0.03576
0.04688
0.05374
0.04504
0.00956
-0.04647
-0.12532
-0.19174
-0.14077
0.05300
0.25216
0.29020
0.12854
-0.08618
-0.19038
-0.16146
-0.08000
-0.00914
0.03647
0.05449
0.05725
0.04580
0.02436
0.00583
-0.01024
-0.02220
-0.02268
-0.01812
-0.01218
-0.00462
-0.00130
0.00463
0.00931
0.01077
0.00696
0.00637
0.00257
-0.00160
-0.00288
-0.00454
-0.00369
-0.00431
-0.00348
-0.00524
-0.00004
0.00450
0.00570
0.00347
0.00247
0.00119
0.00397
0.00179
-0.00614
-0.00584
-0.00655
-0.00336
-0.00132
0.00296
0.00827
0.00351
0.00198
0.00633
0.00018
-0.00656
-0.00754
-0.00298
0.00139
-0.00208
-0.00352
0.00081
0.00530
0.00897
0.00598
0.00090
-0.00186
-0.00173
-0.00357
-0.00567
-0.00722
-0.01097
-0.01000
0.00474
0.02134
0.01839
0.00837
-0.00556
-0.00300
-0.00213
-0.00882
-0.01055
-0.00152
0.00735
0.00210
-0.00558
-0.01441
-0.01448
-0.01265
-0.00106
0.01865
0.04113
0.05458
0.05202
0.02934
-0.01497
-0.08366
-0.17236
-0.19415
-0.05515
0.17454
0.31130
0.23573
0.01140
-0.16809
-0.19970
-0.12793
-0.03922
0.02482
0.05258
0.05666
0.05311
0.03846
0.01894
-0.00697
-0.02297
-0.02211
-0.01827
-0.01555
-0.01118
-0.00392
0.00075
0.00653
0.01083
0.01633
0.01275
0.00326
-0.00503
-0.00694
-0.00479
-0.00647
-0.00605
-0.00279
0.00050
0.00736
0.00768
-0.00224
-0.00630
-0.00328
0.00384
0.00850
0.00612
0.00003
-0.00429
-0.00683
-0.00405
-0.00506
-0.00181
0.00235
0.00337
0.00556
0.00453
-0.00092
0.00138
0.00073
-0.00036
-0.00429
-0.00653
0.00201
0.00090
-0.00009
-0.00120
0.00306
-0.00263
-0.00246
-0.00228
0.00376
0.00906
0.00460
0.00333
0.00184
-0.00174
-0.00973
-0.01360
-0.01470
-0.00461
0.00533
0.01739
0.01782
0.00956
-0.00123
-0.00280
-0.00282
-0.00625
-0.00896
-0.00078
0.00892
-0.00195
-0.01259
-0.02215
-0.02038
-0.00933
0.01138
0.03011
0.04728
0.05890
0.05464
0.01892
-0.03332
-0.10528
-0.19647
-0.18089
-0.01190
0.21231
0.32196
0.20956
-0.02377
-0.18196
-0.19627
-0.12127
-0.03527
0.02765
0.06141
0.06090
0.05216
0.03556
0.01394
-0.00291
-0.02040
-0.02779
-0.02485
-0.01422
-0.00767
-0.00349
0.00236
0.00797
0.01438
0.01101
0.01022
0.00149
-0.00274
-0.00409
-0.00552
0.00016
-0.00508
-0.00464
-0.00591
-0.00242
0.00432
0.00062
0.00545
0.00449
0.00675
0.00702
-0.00066
-0.00204
-0.00751
-0.01261
-0.01037
0.00186
0.00599
0.00510
0.00535
0.00704
0.00230
0.00052
-0.00187
-0.00639
-0.00214
-0.00108
-0.00233
-0.00292
-0.00167
-0.00053
0.00183
0.00335
0.00535
0.00559
0.00548
0.00288
-0.00025
-0.00546
-0.00985
-0.01435
-0.01547
-0.00426
0.01224
0.02167
0.01541
0.00421
0.00298
0.00161
-0.00472
-0.01484
-0.01125
0.00018
0.00500
-0.00017
-0.01367
-0.01936
-0.01805
-0.00252
0.01623
0.03543
0.05486
0.06505
0.04682
0.00526
-0.06675
-0.16515
-0.22243
-0.12557
0.10541
0.30778
0.31089
0.10048
-0.12953
-0.21471
-0.16488
-0.07840
-0.00317
0.04405
0.06908
0.06358
0.04523
0.01928
0.00420
-0.01209
-0.01985
-0.02089
-0.01934
-0.01504
-0.01316
-0.00340
0.00565
0.01617
0.01158
0.01041
0.00168
0.00370
0.00456
0.00146
-0.00391
-0.01006
-0.01093
-0.00962
-0.00479
0.00162
0.00639
0.00857
0.00973
0.00417
0.00256
-0.00093
-0.00161
-0.00514
-0.00722
-0.00759
-0.00166
0.00210
0.00375
0.00077
-0.00188
0.00346
0.01096
0.00781
-0.00285
-0.00446
-0.00455
-0.00675
-0.00868
-0.00382
0.00051
0.00596
0.00544
0.00549
0.00913
0.00774
-0.00035
-0.00365
-0.00808
-0.01173
-0.01471
-0.01502
0.00235
0.01859
0.02276
0.01060
0.00108
0.00110
-0.00321
-0.01333
-0.01038
0.00016
0.00743
0.00487
-0.00653
-0.01632
-0.02208
-0.02205
-0.00311
0.02695
0.04632
0.05908
0.05691
0.03599
-0.01254
-0.08484
-0.17546
-0.19730
-0.06992
0.14585
0.29966
0.25629
0.04729
-0.14439
-0.19656
-0.13987
-0.05675
0.00731
0.04772
0.05870
0.05472
0.04099
0.02008
0.00227
-0.01217
-0.02196
-0.02100
-0.02192
-0.01592
-0.00695
-0.00052
0.01040
0.01748
0.01410
0.00356
-0.00059
0.00026
0.00364
-0.00233
-0.00644
-0.00584
-0.00500
-0.00564
-0.00225
0.00429
0.00462
0.00342
0.00106
0.00221
0.00163
0.00366
0.00261
-0.00214
-0.00236
-0.00551
-0.00748
-0.00723
0.00031
0.00555
0.00641
0.00550
0.00390
0.00317
-0.00418
-0.00777
0.00162
0.00757
-0.00064
-0.00421
-0.00821
-0.00815
-0.00344
0.00088
0.01046
0.01013
0.00507
0.00472
0.00379
0.00184
-0.00628
-0.01517
-0.01435
-0.00734
-0.00339
0.00421
0.01026
0.01548
0.01392
0.00234
0.00312
0.00024
-0.01001
-0.01804
-0.00535
0.01098
0.01087
-0.00538
-0.02605
-0.02790
-0.01854
0.00225
0.02770
0.04921
0.06119
0.06382
0.04347
-0.00812
-0.09393
-0.20677
-0.23337
-0.07085
0.18729
0.34666
0.27218
0.03149
-0.16591
-0.21632
-0.15289
-0.05789
0.01509
0.05584
0.06664
0.05789
0.04135
0.01897
-0.00187
-0.01238
-0.01886
-0.02278
-0.02272
-0.02087
-0.00772
0.00447
0.01089
0.01326
0.01154
0.00969
0.00738
0.00312
-0.00754
-0.00857
-0.00648
-0.00610
-0.00043
0.00315
0.00334
-0.00170
-0.00649
-0.00116
0.00612
0.00521
0.00496
0.00613
0.00200
-0.00174
-0.01197
-0.00998
-0.00223
0.00101
0.00385
0.00437
0.00690
0.00098
-0.00204
-0.00303
0.00097
0.00215
-0.00108
-0.00447
0.00005
0.00426
0.00023
0.00004
-0.00378
-0.00382
-0.00226
-0.00174
0.00048
0.00638
0.00843
0.00825
0.00337
-0.00447
-0.00712
-0.00716
-0.00553
-0.00915
-0.00863
-0.00116
0.01184
0.01680
0.01310
0.00556
0.00101
-0.00351
-0.00941
-0.01283
-0.00406
0.01014
0.00330
-0.00795
-0.02232
-0.02289
-0.01162
0.00303
0.02369
0.04736
0.06311
0.06233
0.03247
-0.02193
-0.10447
-0.20151
-0.19390
-0.03397
0.18594
0.31598
0.23938
0.01408
-0.16295
-0.20276
-0.13668
-0.04832
0.01432
0.05362
0.06303
0.05764
0.04194
0.02098
-0.00205
-0.02014
-0.02399
-0.02626
-0.02107
-0.01374
-0.00396
0.00819
0.01468
0.01333
0.00545
0.00367
0.00494
0.00174
-0.00459
-0.00241
-0.00503
-0.00506
-0.00380
-0.00113
-0.00076
-0.00069
0.00047
0.00400
0.00723
0.00283
0.00247
-0.00117
0.00174
-0.00322
-0.00633
-0.00485
-0.00498
0.00092
0.00196
0.00281
0.00488
0.00544
0.00266
-0.00038
-0.00144
-0.00416
-0.00444
-0.00232
0.00110
0.00222
-0.00121
-0.00513
-0.00171
0.00440
0.00603
0.00593
0.00454
0.00228
-0.00118
-0.00498
-0.00867
-0.01099
-0.01108
-0.00422
0.00740
0.01470
0.01289
0.00994
0.00504
0.00426
-0.00634
-0.01559
-0.00867
0.00083
0.00319
-0.00823
-0.01735
-0.01819
-0.01114
-0.00098
0.02052
0.04475
0.06267
0.06445
0.04192
-0.01073
-0.09993
-0.20742
-0.22131
-0.05525
0.19416
0.34113
0.25224
0.01558
-0.16895
-0.20504
-0.14052
-0.05432
0.01605
0.05419
0.06505
0.05565
0.03815
0.02029
0.00150
-0.01293
-0.02289
-0.02617
-0.02296
-0.02089
-0.00511
0.01233
0.01504
0.01300
0.00511
0.00409
0.00425
0.00093
-0.00111
-0.00479
-0.00515
-0.00320
-0.00199
-0.00117
-0.00240
-0.00478
-0.00091
0.00301
0.00817
0.00955
0.00679
0.00214
-0.00624
-0.00975
-0.00998
-0.00524
0.00351
0.00622
-0.00004
-0.00000
0.00335
0.00631
0.00652
-0.00281
-0.00355
-0.00422
-0.00340
-0.00347
-0.00439
0.00039
0.00212
0.00381
0.00411
0.00493
0.00360
0.00234
-0.00134
-0.00083
-0.00438
-0.01092
-0.01466
-0.00433
0.00916
0.01004
0.00981
0.00502
0.00329
0.00274
0.00087
-0.00599
-0.00485
0.00298
0.00086
-0.00640
-0.01240
-0.02217
-0.02177
-0.00828
0.00928
0.03103
0.04980
0.05990
0.05642
0.02981
-0.03009
-0.12127
-0.20481
-0.18128
-0.00676
0.21600
0.31562
0.20685
-0.01379
-0.17024
-0.19546
-0.13015
-0.04158
0.02424
0.05896
0.06627
0.05557
0.03459
0.01384
-0.00338
-0.01816
-0.02636
-0.02708
-0.01842
-0.00911
-0.00043
0.00699
0.01210
0.01108
0.00696
0.00582
0.00238
-0.00115
-0.00326
-0.00377
-0.00335
-0.00236
-0.00186
-0.00207
-0.00386
0.00055
0.00183
0.00060
0.00120
0.00542
0.00845
0.00558
-0.00202
-0.00525
-0.00640
-0.00947
-0.00725
-0.00168
0.00767
0.00800
0.00611
0.00253
0.00231
-0.00119
-0.00363
-0.00254
-0.00268
-0.00204
-0.00400
-0.00287
-0.00037
0.00170
0.00325
0.00745
0.00827
0.00641
-0.00000
-0.00495
-0.00848
-0.01539
-0.01415
-0.00459
0.00942
0.01847
0.01237
0.00173
0.00500
0.00990
-0.00146
-0.01884
-0.01854
0.00113
0.00983
0.00291
-0.00814
-0.01552
-0.01888
-0.01346
0.00504
0.03227
0.05478
0.06303
0.04778
0.01227
-0.04803
-0.14674
-0.20960
-0.13278
0.07558
0.26557
0.28696
0.12203
-0.08751
-0.19010
-0.16640
-0.08935
-0.01460
0.03921
0.06565
0.06616
0.04593
0.02240
0.00200
-0.01226
-0.02066
-0.02458
-0.02390
-0.01441
-0.00203
0.00322
0.00795
0.01198
0.01011
0.00566
0.00446
0.00106
-0.00253
-0.00504
-0.00627
-0.00318
-0.00216
0.00086
0.00080
-0.00181
-0.00191
0.00130
0.00404
0.00474
0.00679
0.00375
-0.00374
-0.00672
-0.00699
-0.00478
-0.00037
0.00062
0.00302
0.00419
0.00487
0.00112
0.00044
0.00478
-0.00032
-0.00567
-0.00618
-0.00641
-0.00385
0.00201
0.00374
0.00553
0.00620
0.00353
0.00153
0.00047
0.00123
-0.00439
-0.00951
-0.00831
-0.00814
-0.00231
0.00800
0.01059
0.00833
0.00203
0.00119
0.00657
0.00189
-0.00530
-0.00896
-0.00188
0.00777
-0.00189
-0.01588
-0.02379
-0.02322
-0.00992
0.01156
0.03127
0.05256
0.06736
0.05998
0.02649
-0.04024
-0.13828
-0.22202
-0.17296
0.02651
0.24918
0.32036
0.17924
-0.04660
-0.18863
-0.18777
-0.11026
-0.02523
0.03007
0.05258
0.05884
0.05171
0.03446
0.01423
-0.00367
-0.01536
-0.02307
-0.02483
-0.02472
-0.01546
-0.00274
0.00870
0.01850
0.01844
0.01103
0.00135
-0.00389
-0.00364
-0.00419
-0.00151
-0.00004
-0.00745
-0.00589
-0.00176
0.00173
0.00340
0.00395
0.00600
0.00392
0.00146
-0.00215
-0.00189
-0.00216
-0.00629
-0.00322
-0.00192
0.00048
0.00297
0.00240
0.00524
0.00434
0.00326
-0.00070
-0.00576
-0.00760
-0.00353
0.00048
0.00076
0.00124
0.00196
0.00308
0.00350
0.00346
0.00216
0.00022
-0.00262
-0.00522
-0.00726
-0.00734
-0.00511
0.00411
0.00987
0.00563
0.00090
0.00289
0.00914
0.00429
-0.00579
-0.00735
-0.00093
0.00483
0.00054
-0.01585
-0.02480
-0.02216
-0.01272
0.00457
0.02984
0.05460
0.06578
0.06311
0.03223
-0.03006
-0.12642
-0.21596
-0.18612
-0.00465
0.21914
0.31975
0.21046
-0.01028
-0.17304
-0.19668
-0.12626
-0.04266
0.02116
0.05322
0.06044
0.05868
0.04040
0.01642
-0.00260
-0.01749
-0.02293
-0.02664
-0.02419
-0.01309
-0.00064
0.00494
0.01050
0.01441
0.01280
0.00736
0.00350
-0.00137
-0.00486
-0.00438
-0.00564
-0.00675
-0.00588
-0.00240
0.00102
0.00656
0.00448
0.00200
0.00307
0.00337
0.00154
0.00051
-0.00245
-0.00669
-0.00458
-0.00350
-0.00271
-0.00126
0.00320
0.00951
0.00731
0.00282
0.00121
-0.00295
-0.00527
-0.00771
-0.00770
-0.00358
0.00192
0.00543
0.00775
0.01054
0.00584
-0.00069
-0.00663
-0.00571
-0.00352
-0.00814
-0.01080
-0.00338
0.00774
0.01212
0.00608
-0.00005
0.00776
0.01119
0.00085
-0.01359
-0.01063
0.00277
0.00498
-0.00395
-0.01508
-0.02245
-0.01843
-0.00449
0.01279
0.02910
0.04627
0.06201
0.05710
0.02463
-0.04090
-0.14095
-0.21611
-0.15575
0.04368
0.25144
0.30244
0.15475
-0.06022
-0.18466
-0.17740
-0.09876
-0.01790
0.03138
0.05462
0.06026
0.04821
0.02834
0.00720
-0.00830
-0.01601
-0.02387
-0.02281
-0.01499
-0.00362
0.00250
0.00417
0.00660
0.00699
0.00596
0.00410
0.00633
0.00679
-0.00130
-0.00958
-0.00806
-0.00266
-0.00366
-0.00571
-0.00153
0.00708
0.01007
0.00465
0.00070
0.00055
0.00018
-0.00542
-0.00774
-0.00267
0.00104
0.00303
0.00108
-0.00105
0.00319
0.00388
0.00232
-0.00042
-0.00223
-0.00366
-0.00546
-0.00230
0.00233
0.00230
0.00155
0.00513
0.00342
0.00035
-0.00076
-0.00189
-0.00289
-0.00546
-0.00659
-0.00320
0.00249
0.00770
0.00562
-0.00026
0.00118
0.00527
0.00456
-0.00252
-0.00681
0.00207
0.00695
-0.00098
-0.01110
-0.02067
-0.02385
-0.01677
0.00012
0.02235
0.04508
0.05811
0.06048
0.04364
-0.00627
-0.09577
-0.19313
-0.19600
-0.05115
0.16553
0.29574
0.23295
0.03270
-0.14067
-0.18778
-0.13541
-0.05362
0.00932
0.04595
0.05964
0.05652
0.04181
0.01950
-0.00250
-0.01742
-0.02330
-0.02480
-0.02077
-0.01065
0.00078
0.00557
0.00883
0.01156
0.00908
0.00469
0.00045
0.00085
-0.00000
-0.00331
-0.00567
-0.00508
-0.00468
-0.00249
0.00103
0.00311
0.00355
0.00222
0.00271
0.00226
0.00184
0.00104
-0.00285
-0.00638
-0.00310
-0.00031
-0.00089
0.00086
0.00381
0.00135
-0.00015
0.00107
0.00092
0.00163
-0.00031
-0.00342
-0.00171
0.00092
-0.00084
-0.00330
-0.00138
0.00538
0.00641
0.00280
-0.00045
-0.00306
-0.00613
-0.00941
-0.00447
0.00575
0.00743
0.00155
-0.00188
0.00614
0.01150
-0.00007
-0.01044
-0.00330
0.00918
0.00828
-0.00630
-0.01963
-0.02477
-0.02592
-0.01444
0.00870
0.03732
0.06009
0.06945
0.06165
0.02340
-0.04922
-0.15143
-0.22353
-0.15610
0.04723
0.25318
0.30820
0.16501
-0.05098
-0.18638
-0.18970
-0.11089
-0.02338
0.03312
0.05912
0.06451
0.05453
0.03259
0.00823
-0.01114
-0.02154
-0.02462
-0.02292
-0.01623
-0.00644
0.00125
0.00441
0.01054
0.01259
0.00952
0.00637
0.00115
-0.00516
-0.00399
-0.00392
-0.00459
0.00111
0.00090
-0.00425
-0.00504
-0.00139
0.00262
0.00475
0.00468
0.00496
0.00504
0.00223
-0.00406
-0.00762
-0.00611
-0.00517
-0.00425
0.00046
0.00504
0.00852
0.00938
0.00500
-0.00177
-0.00678
-0.00796
-0.00556
-0.00298
-0.00083
0.00232
0.00583
0.00874
0.00566
-0.00149
-0.00260
-0.00010
-0.00071
-0.00873
-0.01550
-0.00646
0.00796
0.01661
0.00911
-0.00323
-0.00212
0.00540
0.00358
-0.00654
-0.00695
0.00300
0.00875
0.00209
-0.00853
-0.01803
-0.02368
-0.01884
-0.00442
0.01426
0.03671
0.05643
0.06122
0.04802
0.01105
-0.06246
-0.16270
-0.21070
-0.11179
0.10076
0.27511
0.26947
0.09638
-0.09425
-0.18310
-0.15653
-0.07956
-0.00987
0.03471
0.05560
0.05793
0.04706
0.02946
0.00886
-0.01247
-0.02427
-0.02593
-0.02105
-0.01182
-0.00575
-0.00007
0.00626
0.01016
0.01188
0.00972
0.00473
0.00282
-0.00034
-0.00709
-0.00760
-0.00242
-0.00210
-0.00485
-0.00358
0.00129
0.00470
0.00393
0.00397
0.00452
0.00290
0.00111
-0.00363
-0.00673
-0.00565
-0.00277
0.00005
0.00111
0.00405
0.00500
0.00266
0.00044
-0.00098
-0.00133
-0.00318
-0.00448
-0.00094
0.00159
0.00213
0.00239
0.00418
0.00472
-0.00102
-0.00503
-0.00414
-0.00477
-0.00600
-0.00186
0.00550
0.00858
0.00400
-0.00207
-0.00165
0.00576
0.00564
-0.00320
-0.00624
-0.00002
0.00750
0.00456
-0.00764
-0.02042
-0.02601
-0.02078
-0.00578
0.01789
0.04211
0.05965
0.06595
0.05005
0.00436
-0.07760
-0.17739
-0.21080
-0.09822
0.11448
0.28489
0.27918
0.09495
-0.11041
-0.19778
-0.16216
-0.07841
-0.00605
0.04032
0.06201
0.06271
0.04776
0.02453
0.00394
-0.01124
-0.02142
-0.02586
-0.02393
-0.01533
-0.00568
0.00292
0.00873
0.01146
0.01140
0.00720
0.00261
0.00129
0.00160
-0.00131
-0.00748
-0.00775
-0.00259
-0.00063
-0.00208
-0.00032
0.00253
0.00085
0.00030
0.00264
0.00843
0.00907
-0.00004
-0.00766
-0.00819
-0.00750
-0.00557
-0.00132
0.00469
0.01027
0.00633
0.00184
0.00101
-0.00150
-0.00476
-0.00729
-0.00642
-0.00107
0.00354
0.00598
0.00857
0.00783
0.00148
-0.00574
-0.01054
-0.00998
-0.00551
-0.00153
0.00503
0.01157
0.00870
-0.00106
-0.00334
0.00374
0.00570
-0.00354
-0.00577
0.00013
0.00477
0.00283
-0.00972
-0.02028
-0.02138
-0.01418
-0.00255
0.01773
0.04087
0.05519
0.05866
0.04350
-0.00032
-0.07755
-0.17258
-0.20376
-0.08243
0.13877
0.29126
0.24949
0.05777
-0.12623
-0.18826
-0.14349
-0.06490
0.00542
0.04450
0.05805
0.05687
0.04376
0.02268
-0.00067
-0.01687
-0.02366
-0.02311
-0.01891
-0.01315
-0.00307
0.00681
0.00909
0.00693
0.00945
0.00838
0.00472
0.00019
-0.00337
-0.00365
-0.00567
-0.00389
-0.00228
-0.00150
-0.00155
-0.00027
0.00008
0.00177
0.00490
0.00647
0.00615
0.00317
-0.00305
-0.00939
-0.00857
-0.00426
-0.00084
0.00268
0.00513
0.00553
0.00528
0.00067
-0.00501
-0.00382
0.00031
-0.00060
-0.00128
-0.00029
0.00117
0.00211
0.00179
0.00232
0.00136
-0.00060
-0.00255
-0.00600
-0.00716
-0.00534
0.00260
0.00991
0.00841
0.00242
-0.00111
0.00277
0.00123
-0.00476
-0.00367
0.00411
0.00899
0.00164
-0.01488
-0.02854
-0.02908
-0.01629
0.00566
0.03204
0.05652
0.06888
0.06213
0.03246
-0.02900
-0.12163
-0.21166
-0.19796
-0.01932
0.22000
0.33083
0.22289
-0.00933
-0.17870
-0.20085
-0.12936
-0.04081
0.01963
0.05431
0.06436
0.05641
0.03978
0.01875
-0.00280
-0.02087
-0.02834
-0.02304
-0.01527
-0.01268
-0.00516
0.00518
0.00986
0.00980
0.01186
0.01184
0.00582
-0.00185
-0.00567
-0.00593
-0.00531
-0.00721
-0.00822
-0.00178
0.00593
0.00918
0.00475
-0.00188
-0.00002
0.00178
0.00172
0.00216
-0.00226
-0.00547
-0.00605
-0.00639
0.00193
0.00809
0.00608
0.00260
-0.00075
-0.00013
-0.00171
-0.00480
-0.00607
-0.00302
0.00098
0.00544
0.00802
0.00695
0.00132
-0.00392
-0.00404
-0.00327
-0.00622
-0.01145
-0.00725
0.00766
0.01918
0.01012
-0.00390
-0.00495
0.00153
0.00211
-0.00462
-0.00565
0.00187
0.01098
0.00786
-0.00625
-0.01959
-0.02755
-0.02303
-0.00711
0.01546
0.03935
0.05613
0.05877
0.04443
0.00847
-0.05468
-0.14188
-0.19602
-0.12284
0.06765
0.24983
0.27696
0.12082
-0.08069
-0.18018
-0.15858
-0.08562
-0.01389
0.03483
0.05674
0.05778
0.04307
0.02492
0.01083
-0.00712
-0.02336
-0.02613
-0.01979
-0.01169
-0.00511
-0.00134
0.00482
0.00855
0.01051
0.00967
0.00629
0.00566
0.00023
-0.00669
-0.00839
-0.00477
-0.00445
-0.00374
0.00021
0.00132
0.00152
0.00359
0.00450
0.00557
0.00482
0.00075
-0.00488
-0.00728
-0.00421
-0.00281
-0.00250
0.00149
0.00550
0.00334
0.00019
0.00195
0.00203
-0.00084
-0.00035
-0.00367
-0.00262
0.00013
-0.00230
-0.00119
0.00328
0.00549
0.00599
0.00121
-0.00268
-0.00748
-0.01068
-0.00546
0.00122
0.00911
0.00866
0.00226
0.00034
0.00612
0.00112
-0.00791
-0.00563
0.00588
0.01044
0.00216
-0.01133
-0.02534
-0.02854
-0.01872
-0.00244
0.02422
0.05126
0.06436
0.06482
0.04141
-0.01097
-0.09488
-0.18924
-0.20736
-0.06995
0.15514
0.30694
0.26127
0.05804
-0.13713
-0.20601
-0.15739
-0.06605
0.00892
0.04865
0.06600
0.06419
0.04567
0.02210
-0.00161
-0.01843
-0.02617
-0.02814
-0.02224
-0.01286
0.00221
0.00767
0.00817
0.01004
0.00951
0.00654
0.00291
0.00094
-0.00180
-0.00511
-0.00459
-0.00323
-0.00297
-0.00315
-0.00275
-0.00086
0.00155
0.00792
0.00494
0.00190
0.00155
0.00270
-0.00071
-0.00622
-0.00443
-0.00243
-0.00365
-0.00324
0.00116
0.00350
0.00757
0.00573
0.00125
0.00063
-0.00240
-0.00345
-0.00559
-0.00486
-0.00066
-0.00023
0.00112
0.00522
0.00726
0.00444
0.00123
-0.00235
-0.00515
-0.00699
-0.00658
-0.00399
0.00173
0.00591
0.00491
0.00417
0.00671
0.00233
-0.00468
-0.00649
-0.00118
0.01091
0.01146
-0.00035
-0.01631
-0.02926
-0.02807
-0.01533
0.00403
0.02937
0.04642
0.05385
0.05350
0.03681
-0.00518
-0.07669
-0.16758
-0.19935
-0.08033
0.13633
0.28978
0.25168
0.05264
-0.13103
-0.18898
-0.14005
-0.05628
0.00920
0.04424
0.05360
0.05269
0.03848
0.01713
0.00356
-0.00798
-0.01984
-0.02426
-0.02102
-0.01107
-0.00425
-0.00008
0.00627
0.01072
0.01198
0.00858
0.00473
0.00163
-0.00334
-0.00573
-0.00282
-0.00302
-0.00401
-0.00534
-0.00584
0.00038
0.00465
0.00805
0.00806
0.00429
0.00142
-0.00241
-0.00503
-0.00564
-0.00403
-0.00257
-0.00390
-0.00233
0.00760
0.00789
0.00400
0.00227
0.00012
-0.00083
-0.00621
-0.00644
0.00015
0.00036
0.00109
0.00172
0.00206
0.00045
-0.00294
-0.00093
-0.00063
0.00522
0.00591
0.00260
-0.00019
-0.00358
-0.00913
-0.01160
-0.00527
0.00723
0.00835
0.00459
0.00479
0.00467
0.00377
-0.00329
-0.00747
-0.00632
0.00745
0.01361
0.00525
-0.01526
-0.03091
-0.03181
-0.01743
0.00689
0.02832
0.04957
0.06602
0.06447
0.03495
-0.01946
-0.10491
-0.19354
-0.19737
-0.04835
0.17540
0.31228
0.24527
0.02707
-0.15790
-0.20217
-0.13626
-0.05043
0.01500
0.04944
0.05973
0.05580
0.04025
0.01979
0.00057
-0.01431
-0.02408
-0.02353
-0.02074
-0.01396
-0.00617
0.00250
0.01146
0.01376
0.01023
0.00775
0.00618
-0.00010
-0.00326
-0.00713
-0.00605
-0.00177
-0.00261
-0.00388
-0.00477
0.00112
0.00379
0.00348
0.00519
0.00619
0.00495
0.00186
-0.00342
-0.00569
-0.00588
-0.00963
-0.00549
-0.00103
0.00874
0.01135
0.00462
0.00037
-0.00015
0.00002
-0.00337
-0.00433
-0.00233
-0.00180
-0.00446
0.00024
0.00474
0.00347
0.00037
-0.00008
0.00115
0.00361
0.00263
0.00057
-0.00081
-0.00365
-0.00854
-0.01100
-0.00446
0.00790
0.00907
0.00516
0.00521
0.00471
0.00312
-0.00482
-0.00905
-0.00533
0.01082
0.01511
-0.00114
-0.01944
-0.02998
-0.02935
-0.01728
0.00793
0.03524
0.05695
0.06773
0.06193
0.03192
-0.02843
-0.12223
-0.21542
-0.19803
-0.01867
0.21855
0.33681
0.22734
-0.01090
-0.18162
-0.20252
-0.13019
-0.04348
0.02115
0.05359
0.06288
0.06036
0.04236
0.01742
-0.00214
-0.01984
-0.02739
-0.02551
-0.02060
-0.01337
-0.00320
0.00720
0.01262
0.01341
0.00984
0.00459
0.00207
0.00221
-0.00013
-0.00587
-0.00743
-0.00365
-0.00357
-0.00441
-0.00254
-0.00063
0.00637
0.00632
0.00396
0.00597
0.00393
0.00073
-0.00881
-0.00894
-0.00358
-0.00108
0.00008
0.00375
0.00426
-0.00028
-0.00078
-0.00060
0.00485
0.00403
0.00070
-0.00230
-0.00163
-0.00461
-0.00766
-0.00041
0.00260
0.00449
0.00251
0.00096
-0.00018
0.00044
0.00282
-0.00223
-0.00459
-0.00006
0.00324
0.00200
0.00133
-0.00071
-0.00464
-0.00755
-0.00489
0.00428
0.00770
0.00262
-0.00033
0.00392
0.00692
-0.00233
-0.00894
-0.00234
0.01053
0.01257
-0.00139
-0.01704
-0.02720
-0.02600
-0.01676
0.00410
0.02846
0.04734
0.05926
0.05987
0.03808
-0.01383
-0.09639
-0.19119
-0.20036
-0.04888
0.17703
0.30827
0.23333
0.02188
-0.15347
-0.19142
-0.12921
-0.05184
0.01108
0.04515
0.05898
0.05943
0.04327
0.01612
-0.00151
-0.01428
-0.02403
-0.02489
-0.01808
-0.01157
-0.00821
0.00290
0.01074
0.01254
0.01305
0.00768
0.00322
0.00321
-0.00335
-0.00917
-0.00702
-0.00294
-0.00217
-0.00335
-0.00244
0.00220
0.00385
0.00549
0.00416
0.00383
0.00243
-0.00130
-0.00344
-0.00378
-0.00316
-0.00556
-0.00505
0.00160
0.00697
0.00358
0.00255
0.00253
0.00136
-0.00030
-0.00308
-0.00301
-0.00138
-0.00178
-0.00073
0.00094
0.00180
-0.00119
-0.00310
-0.00058
0.00507
0.00726
0.00228
-0.00009
-0.00198
-0.00196
-0.00539
-0.00675
-0.00355
-0.00166
0.00228
0.00526
0.00831
0.00079
-0.00109
0.00494
0.00377
-0.00038
-0.00734
0.00177
0.00847
0.00038
-0.00924
-0.02207
-0.02832
-0.02213
-0.00161
0.02429
0.04239
0.05999
0.06711
0.05250
0.00437
-0.07724
-0.18152
-0.23332
-0.11554
0.12481
0.31757
0.30508
0.09525
-0.13013
-0.21850
-0.16942
-0.07694
-0.00120
0.04558
0.06572
0.06449
0.04722
0.02688
0.00562
-0.01436
-0.02626
-0.02858
-0.02134
-0.01328
-0.00353
0.00072
0.00766
0.01214
0.00904
0.00985
0.00504
0.00140
-0.00133
-0.00207
-0.00341
-0.00611
-0.00583
-0.00573
-0.00255
-0.00015
0.00132
0.00585
0.00706
0.00499
0.00413
0.00164
0.00052
-0.00341
-0.01051
-0.01069
-0.00472
0.00203
0.00457
0.00658
0.00825
0.00408
0.00125
-0.00159
-0.00170
-0.00363
-0.00496
-0.00675
-0.00393
0.00380
0.00305
0.00299
0.00283
0.00296
0.00255
0.00199
0.00051
-0.00122
-0.00357
-0.00533
-0.00643
-0.00531
-0.00193
0.00489
0.00805
0.00510
0.00260
0.00068
0.00387
0.00594
-0.00655
-0.01335
-0.00059
0.01200
0.01212
-0.00330
-0.02452
-0.03189
-0.02297
-0.00844
0.01823
0.04127
0.06357
0.07104
0.05037
0.00646
-0.06671
-0.16571
-0.23398
-0.13672
0.10576
0.31026
0.31515
0.10448
-0.12244
-0.21060
-0.16987
-0.08093
-0.00484
0.04542
0.06325
0.06060
0.04376
0.02901
0.00833
-0.00839
-0.02312
-0.02987
-0.02496
-0.01988
-0.00784
0.00506
0.01486
0.01497
0.01256
0.00518
0.00150
-0.00047
-0.00285
-0.00294
-0.00393
-0.00333
-0.00484
-0.00444
0.00045
-0.00180
0.00153
0.00536
0.00607
0.00714
0.00340
-0.00330
-0.00450
-0.00339
-0.00734
-0.00295
-0.00170
0.00277
0.00357
0.00340
0.00576
0.00288
0.00065
-0.00462
-0.00485
-0.00470
-0.00255
0.00242
0.00318
0.00506
0.00146
-0.00248
-0.00268
0.00109
0.00378
0.00082
-0.00201
-0.00424
-0.00463
-0.00311
0.00141
0.00678
0.00590
-0.00464
-0.00395
0.00251
0.00562
0.00270
-0.00416
0.00268
0.01366
0.00731
-0.01042
-0.02381
-0.02835
-0.02364
-0.00823
0.00924
0.03061
0.05326
0.06636
0.06101
0.02652
-0.03147
-0.12971
-0.21653
-0.17661
0.01121
0.23111
0.32243
0.18704
-0.04149
-0.17822
-0.18374
-0.11433
-0.03351
0.02852
0.05319
0.06246
0.05507
0.03696
0.00764
-0.01000
-0.01699
-0.02551
-0.02218
-0.01239
-0.00627
-0.00220
0.00131
0.00745
0.01049
0.01157
0.00715
0.00016
0.00051
-0.00062
-0.00165
-0.00594
-0.00617
-0.00469
-0.00277
-0.00382
0.00141
0.00594
0.00810
0.00440
0.00319
0.00047
-0.00046
-0.00393
-0.01000
-0.00538
0.00069
0.00446
0.00130
0.00277
-0.00027
0.00358
0.00004
-0.00006
0.00216
-0.00067
-0.00030
-0.00711
-0.00706
-0.00065
0.00599
0.00759
0.00308
-0.00227
0.00070
0.00305
-0.00071
-0.00372
-0.00632
-0.00622
-0.00415
0.00188
0.00500
0.00624
0.00223
0.00309
0.00958
0.00196
-0.00833
-0.00808
0.00383
0.01203
0.00501
-0.01712
-0.02792
-0.02715
-0.01607
0.00133
0.02384
0.04747
0.06242
0.06828
0.04702
-0.00310
-0.08989
-0.20356
-0.23085
-0.08595
0.16152
0.34336
0.29112
0.04954
-0.16290
-0.21989
-0.15625
-0.06140
0.00966
0.05475
0.06617
0.06023
0.04537
0.02134
0.00163
-0.01134
-0.02812
-0.03064
-0.02334
-0.01563
-0.00301
0.00541
0.01550
0.01478
0.01095
0.00253
0.00300
0.00056
-0.00156
-0.00627
-0.00579
-0.00401
-0.00301
-0.00214
-0.00280
0.00551
0.00217
0.00231
0.00075
0.00195
0.00595
0.00649
-0.00098
-0.00802
-0.00834
-0.00823
-0.00525
0.00472
0.01003
0.00484
0.00275
0.00233
0.00183
-0.00108
-0.00877
-0.00441
-0.00080
-0.00154
0.00042
0.00140
0.00361
0.00355
0.00382
0.00135
0.00430
0.00021
-0.00718
-0.00988
-0.00891
-0.00647
0.00089
0.00992
0.01282
0.00986
0.00215
-0.00086
0.00214
-0.00848
-0.00943
0.00700
0.00708
0.00072
-0.01914
-0.02771
-0.02352
-0.01028
0.00906
0.03042
0.05640
0.06978
0.06309
0.02686
-0.03507
-0.13394
-0.23164
-0.19812
0.01695
0.25871
0.35159
0.20275
-0.05486
-0.20786
-0.20402
-0.11498
-0.02493
0.03727
0.05912
0.06686
0.05059
0.03184
0.01265
-0.00625
-0.01615
-0.02543
-0.02487
-0.02110
-0.01210
0.00021
0.00839
0.01232
0.01109
0.00640
0.00804
0.00329
0.00131
-0.00103
-0.00578
-0.00651
-0.00606
-0.00779
-0.00468
0.00065
0.00532
0.00739
0.00872
0.00267
0.00045
0.00053
-0.00149
-0.00176
-0.00984
-0.00731
-0.00602
0.00348
0.00700
0.01097
0.00713
-0.00040
-0.00563
-0.00720
-0.00121
-0.00163
-0.00026
-0.00123
-0.00174
0.00413
0.00913
-0.00056
-0.00190
0.00170
0.00386
-0.00335
-0.01075
-0.01115
-0.00018
0.00888
0.00994
0.00352
-0.00228
-0.00321
-0.00163
0.00624
0.00379
-0.00436
-0.00286
0.00852
0.00998
-0.00055
-0.02558
-0.03029
-0.02381
-0.00828
0.01446
0.03408
0.05507
0.06496
0.05356
0.01285
-0.04036
-0.13262
-0.21547
-0.16149
0.04613
0.26435
0.30609
0.14478
-0.07229
-0.19007
-0.17188
-0.09387
-0.01774
0.03203
0.05489
0.05932
0.05004
0.03344
0.01045
-0.00890
-0.02189
-0.02752
-0.02180
-0.01657
-0.00924
-0.00185
0.00926
0.01345
0.01111
0.01269
0.00563
0.00151
-0.00378
-0.00581
-0.00552
-0.00550
-0.00552
-0.00207
0.00057
0.00113
0.00085
0.00350
0.00545
0.00509
0.00360
-0.00111
0.00083
-0.00403
-0.00909
-0.00735
-0.00263
0.00279
0.00581
0.00199
0.00585
0.00642
0.00149
-0.00438
-0.00670
-0.00284
-0.00270
-0.00272
-0.00066
0.00591
0.00298
0.00340
0.00339
0.00148
-0.00076
-0.00399
-0.00642
-0.00309
-0.00241
-0.00439
0.00160
0.00492
0.00600
0.00588
0.00375
0.00183
0.00055
-0.00648
-0.00113
0.00527
0.00670
-0.00470
-0.02292
-0.02710
-0.02200
-0.00605
0.01644
0.03756
0.05383
0.06016
0.04827
0.01640
-0.04141
-0.13018
-0.21623
-0.16547
0.03949
0.26201
0.32572
0.15731
-0.07902
-0.20324
-0.17791
-0.09354
-0.01808
0.03801
0.05865
0.05864
0.04922
0.03159
0.01262
-0.01199
-0.02691
-0.02352
-0.01746
-0.01609
-0.00876
-0.00103
0.00652
0.01073
0.01052
0.01004
0.00810
0.00379
-0.00292
-0.00504
-0.00444
-0.00484
-0.00840
-0.00520
0.00023
0.00312
0.00283
0.00225
0.00297
0.00906
0.00655
-0.00176
-0.00394
-0.00543
-0.00530
-0.00662
-0.00408
-0.00081
0.00013
0.00874
0.01283
0.00473
-0.00007
-0.00491
-0.00295
-0.00558
-0.00664
-0.00137
0.00002
0.00135
0.00262
0.00301
0.00284
0.00657
0.00489
0.00248
-0.00452
-0.01127
-0.01128
-0.00986
-0.00059
0.01041
0.01018
0.00880
0.00750
0.00293
-0.00117
-0.01036
-0.01065
0.00160
0.01406
0.00742
-0.01143
-0.02638
-0.02626
-0.01231
0.00188
0.02068
0.04116
0.05069
0.05117
0.03887
0.00222
-0.05832
-0.15911
-0.20825
-0.09692
0.12038
0.28638
0.25931
0.06475
-0.12035
-0.18446
-0.14319
-0.06517
0.00097
0.04240
0.05468
0.05346
0.04414
0.02660
0.00319
-0.01588
-0.02276
-0.02266
-0.02482
-0.01588
0.00015
0.00784
0.00934
0.01059
0.00787
0.00573
0.00495
0.00014
-0.00446
-0.00495
-0.00267
-0.00433
-0.00284
-0.00133
-0.00008
-0.00078
0.00276
0.00394
0.00404
0.00138
0.00087
0.00326
-0.00153
-0.00503
-0.00701
-0.00598
0.00256
0.00569
0.00072
0.00375
0.00189
0.00111
0.00037
-0.00358
-0.00387
-0.00165
-0.00078
0.00000
0.00518
0.00385
-0.00077
-0.00260
-0.00070
0.00196
0.00035
-0.00147
-0.00234
-0.00418
-0.00526
0.00082
0.00585
0.00667
0.00253
-0.00024
0.00215
0.00161
-0.00591
-0.00548
0.00955
0.01388
0.00214
-0.02120
-0.02919
-0.02771
-0.01514
0.00735
0.03204
0.05495
0.06350
0.05956
0.02713
-0.02669
-0.12021
-0.21335
-0.18475
0.00593
0.23315
0.31282
0.18516
-0.03338
-0.17514
-0.18410
-0.11106
-0.03190
0.02368
0.05435
0.05992
0.05234
0.03645
0.01366
-0.00803
-0.02013
-0.02342
-0.02347
-0.01921
-0.00823
0.00126
0.00850
0.00910
0.00766
0.00998
0.00662
0.00372
-0.00207
-0.00401
-0.00366
-0.00628
-0.00636
-0.00070
0.00384
-0.00185
-0.00175
0.00149
0.00411
0.00462
0.00296
0.00234
0.00015
-0.00177
-0.00571
-0.00454
-0.00112
-0.00272
-0.00271
0.00322
0.00580
0.00665
0.00250
-0.00078
0.00040
-0.00391
-0.00573
-0.00565
-0.00341
0.00266
0.00671
0.00435
0.00389
0.00266
0.00083
-0.00239
-0.00502
-0.00735
-0.00727
-0.00511
0.00062
0.00879
0.01210
0.00836
0.00022
0.00008
-0.00212
-0.00666
-0.00860
-0.00080
0.00994
0.01070
-0.00551
-0.02225
-0.02420
-0.01707
-0.00327
0.02004
0.03980
0.05246
0.05113
0.03664
0.00235
-0.06535
-0.15451
-0.20012
-0.09044
0.12641
0.28838
0.24993
0.05090
-0.13409
-0.18483
-0.13026
-0.05597
0.00845
0.04090
0.05550
0.05353
0.03835
0.01920
-0.00035
-0.01426
-0.01862
-0.02116
-0.02138
-0.01305
-0.00302
0.00391
0.01063
0.01012
0.00791
0.00689
0.00440
-0.00033
-0.00293
-0.00221
-0.00700
-0.00535
-0.00144
0.00051
-0.00117
-0.00285
0.00016
0.00548
0.00765
0.00560
0.00224
-0.00087
-0.00475
-0.00866
-0.00596
-0.00385
0.00211
0.00674
0.00325
0.00306
0.00266
-0.00039
-0.00171
-0.00029
-0.00009
-0.00271
-0.00521
-0.00276
0.00109
0.00159
0.00011
0.00614
0.00985
0.00127
-0.00432
-0.00642
-0.00459
-0.00305
-0.00523
-0.00180
0.00442
0.00575
0.00464
0.00369
0.00344
0.00120
-0.00328
-0.00795
0.00122
0.01332
0.00843
-0.00642
-0.01887
-0.02603
-0.02838
-0.01384
0.01049
0.03446
0.05324
0.06534
0.06098
0.03160
-0.03285
-0.13922
-0.22273
-0.17172
0.02038
0.23537
0.31881
0.18628
-0.03653
-0.18228
-0.19337
-0.11229
-0.02931
0.02575
0.05520
0.06415
0.05606
0.03510
0.00920
-0.00941
-0.02091
-0.02342
-0.01898
-0.01537
-0.00809
-0.00178
0.00116
0.00635
0.01320
0.01272
0.00804
0.00058
-0.00410
-0.00156
-0.00070
-0.00308
-0.00684
-0.00656
-0.00273
-0.00241
0.00569
0.00839
0.00241
0.00065
-0.00126
0.00173
0.00411
-0.00051
-0.00600
-0.00608
-0.00265
-0.00022
0.00131
0.00272
0.00190
0.00194
0.00169
0.00358
0.00199
-0.00268
-0.00547
-0.00647
-0.00230
0.00321
0.00480
0.00410
0.00247
-0.00027
-0.00353
-0.00313
0.00305
0.00078
-0.00678
-0.00532
0.00127
0.00285
0.00312
0.00358
0.00580
0.00231
-0.00396
-0.00703
0.00120
0.01374
0.00954
-0.00268
-0.01647
-0.02412
-0.02653
-0.01976
-0.00090
0.02456
0.04905
0.06265
0.06053
0.03935
-0.00726
-0.08577
-0.18420
-0.20646
-0.07257
0.15394
0.30553
0.25029
0.04704
-0.13953
-0.19435
-0.14181
-0.06122
0.00639
0.04589
0.06169
0.06019
0.04284
0.01915
-0.00049
-0.01377
-0.02391
-0.02769
-0.02182
-0.01056
-0.00154
0.00231
0.01089
0.01260
0.01030
0.00698
0.00378
0.00091
-0.00443
-0.00671
-0.00658
-0.00303
-0.00163
-0.00289
-0.00067
0.00450
0.00299
0.00031
0.00195
0.00552
0.00521
-0.00048
-0.00470
-0.00636
-0.00305
-0.00309
-0.00454
0.00242
0.00647
0.00398
0.00346
0.00105
-0.00052
-0.00189
-0.00250
-0.00214
-0.00228
0.00105
-0.00026
-0.00061
0.00048
0.00049
-0.00015
0.00175
0.00413
0.00589
-0.00000
-0.00399
-0.00191
-0.00755
-0.01093
-0.00600
0.00626
0.01113
0.01013
0.00636
0.00179
-0.00058
-0.00824
-0.01064
0.00041
0.01403
0.01202
-0.00860
-0.02392
-0.02761
-0.01765
-0.00380
0.01055
0.03340
0.05409
0.06349
0.05178
0.01568
-0.05073
-0.14550
-0.21137
-0.14274
0.06217
0.26523
0.30032
0.13261
-0.08090
-0.19108
-0.17244
-0.08932
-0.01403
0.03608
0.05521
0.05661
0.04975
0.03316
0.01101
-0.00853
-0.02111
-0.02643
-0.02783
-0.02154
-0.00357
0.00748
0.00922
0.00608
0.00739
0.01147
0.00962
0.00139
-0.00251
-0.00351
-0.00308
-0.00602
-0.00790
-0.00488
-0.00216
0.00204
0.00191
0.00577
0.00689
0.00472
0.00116
0.00154
0.00139
-0.00781
-0.01033
-0.00437
-0.00239
0.00038
0.00690
0.00716
0.00532
0.00110
-0.00183
-0.00291
-0.00157
-0.00122
-0.00158
-0.00096
-0.00289
-0.00160
-0.00189
0.00100
0.00578
0.00731
0.00398
-0.00052
-0.00170
-0.00176
-0.00602
-0.00734
-0.00331
-0.00012
0.00325
0.00538
0.00529
0.00068
-0.00172
-0.00129
0.00191
0.00231
-0.00317
-0.00132
0.01298
0.01372
-0.00442
-0.01998
-0.02783
-0.02637
-0.01521
0.00093
0.02447
0.04877
0.06198
0.05987
0.03858
-0.00671
-0.08776
-0.18508
-0.20134
-0.06671
0.14934
0.29772
0.24831
0.04825
-0.13456
-0.19196
-0.14135
-0.06040
0.00552
0.04409
0.06041
0.05877
0.04509
0.01954
-0.00303
-0.01691
-0.02351
-0.02228
-0.01845
-0.01137
-0.00265
0.00363
0.00799
0.01055
0.00822
0.00749
0.00581
-0.00136
-0.00330
-0.00256
-0.00418
-0.00491
-0.00392
-0.00047
-0.00108
-0.00225
0.00092
0.00456
0.00603
0.00621
0.00352
-0.00142
-0.00396
-0.00590
-0.00580
-0.00244
0.00018
0.00142
0.00169
0.00305
0.00350
0.00093
0.00161
0.00136
0.00080
-0.00251
-0.00463
-0.00461
-0.00353
0.00208
0.00261
0.00172
0.00253
0.00265
0.00167
-0.00009
-0.00024
0.00183
-0.00109
-0.00555
-0.00606
-0.00414
-0.00208
0.00300
0.00665
0.00564
0.00193
0.00265
0.00561
-0.00056
-0.01080
-0.00859
0.01088
0.01646
0.00008
-0.01822
-0.02631
-0.02179
-0.01275
-0.00089
0.01993
0.04358
0.06444
0.06422
0.03810
-0.01240
-0.09477
-0.18924
-0.20062
-0.05399
0.17104
0.30510
0.23627
0.02750
-0.14888
-0.18982
-0.13418
-0.05296
0.01111
0.04768
0.06080
0.05667
0.03871
0.01615
-0.00272
-0.01342
-0.01908
-0.02555
-0.02099
-0.00863
-0.00147
0.00137
0.00556
0.00875
0.01202
0.01054
0.00483
0.00006
-0.00367
-0.00575
-0.00306
-0.00447
-0.00715
-0.00398
-0.00064
0.00382
0.00661
0.00492
0.00367
0.00234
0.00099
-0.00106
-0.00597
-0.00803
-0.00258
0.00024
0.00071
0.00399
0.00312
0.00194
0.00326
0.00173
-0.00291
-0.00277
-0.00244
-0.00175
-0.00189
-0.00133
0.00243
0.00628
0.00528
-0.00074
-0.00421
-0.00493
-0.00549
-0.00297
0.00219
0.00549
0.00608
0.00703
0.00477
-0.00360
-0.00778
-0.00766
-0.00764
-0.00347
0.00423
0.00577
0.00616
0.00358
-0.00293
-0.00122
0.00596
0.00308
-0.00570
-0.00482
0.00564
0.01324
0.00766
-0.01217
-0.02831
-0.03151
-0.02208
-0.00319
0.02186
0.04778
0.06163
0.06253
0.04245
0.00318
-0.07034
-0.16938
-0.20971
-0.10398
0.10974
0.28213
0.27506
0.09216
-0.10696
-0.19189
-0.15686
-0.07678
-0.00469
0.03955
0.05694
0.05839
0.04613
0.02761
0.00566
-0.01384
-0.02428
-0.02380
-0.01986
-0.01322
-0.00545
0.00282
0.00846
0.00884
0.00872
0.00569
0.00401
0.00141
0.00169
0.00180
-0.00152
-0.00587
-0.00861
-0.00874
-0.00450
0.00035
0.00310
0.00758
0.00753
0.00637
0.00518
0.00185
-0.00504
-0.01024
-0.00835
-0.00365
0.00030
0.00239
0.00365
0.00320
0.00223
0.00430
0.00130
-0.00171
-0.00116
-0.00033
0.00019
-0.00065
-0.00326
-0.00591
-0.00349
-0.00134
0.00350
0.00834
0.00608
0.00132
-0.00083
-0.00095
-0.00154
-0.00300
-0.00250
-0.00239
-0.00437
-0.00285
0.00309
0.00641
0.00488
0.00063
-0.00471
-0.00501
0.00297
0.00756
0.00219
-0.00386
0.00057
0.00931
0.00687
-0.00351
-0.01747
-0.02665
-0.02422
-0.01193
0.00574
0.02527
0.04558
0.06037
0.05790
0.03396
-0.01586
-0.10245
-0.19102
-0.18404
-0.03075
0.18244
0.29426
0.21096
0.00886
-0.14976
-0.18165
-0.12392
-0.04707
0.01562
0.05283
0.06031
0.04901
0.03238
0.01648
-0.00045
-0.01471
-0.02175
-0.02427
-0.01860
-0.00956
-0.00186
0.00511
0.00781
0.00849
0.01005
0.00837
0.00431
-0.00131
-0.00569
-0.00373
-0.00086
-0.00251
-0.00441
-0.00448
-0.00321
-0.00072
0.00273
0.00719
0.00733
0.00548
0.00108
-0.00378
-0.00469
-0.00439
-0.00300
-0.00261
-0.00258
0.00069
0.00592
0.00447
0.00003
0.00105
0.00061
-0.00111
0.00066
0.00041
-0.00257
-0.00405
-0.00224
-0.00021
0.00174
0.00342
0.00244
0.00145
0.00074
-0.00198
-0.00402
-0.00287
-0.00112
0.00096
0.00299
0.00451
0.00261
-0.00051
0.00002
-0.00052
-0.00169
-0.00259
-0.00483
-0.00482
-0.00187
0.00199
0.00391
0.00307
0.00276
0.00604
0.00810
0.00216
-0.00561
-0.00516
0.00215
0.00403
-0.00354
-0.01642
-0.02604
-0.02238
-0.01009
0.00876
0.03198
0.05284
0.06617
0.06237
0.03165
-0.03469
-0.13688
-0.22342
-0.18553
0.01296
0.24749
0.33096
0.19373
-0.04016
-0.18767
-0.19434
-0.11983
-0.03386
0.03014
0.06146
0.06409
0.05500
0.03344
0.00863
-0.00847
-0.01912
-0.02162
-0.01901
-0.01566
-0.01171
-0.00474
0.00332
0.00887
0.01188
0.01033
0.00788
0.00541
0.00141
-0.00392
-0.00795
-0.00630
-0.00189
-0.00054
-0.00506
-0.00594
-0.00059
0.00586
0.00863
0.00755
0.00502
0.00057
-0.00375
-0.00598
-0.00525
-0.00416
-0.00379
-0.00093
0.00269
0.00585
0.00453
0.00251
0.00412
0.00016
-0.00573
-0.00589
-0.00352
-0.00133
0.00225
0.00447
0.00449
0.00225
-0.00279
-0.00542
-0.00089
0.00369
0.00074
-0.00439
-0.00433
0.00103
0.00395
0.00423
0.00410
0.00331
0.00187
-0.00268
-0.00727
-0.00892
-0.00662
-0.00238
0.00461
0.00912
0.00722
-0.00006
-0.00153
0.00550
0.00582
-0.00232
-0.00782
-0.00039
0.00594
0.00256
-0.00915
-0.01964
-0.02339
-0.01939
-0.00342
0.02106
0.04366
0.05750
0.05813
0.04253
0.00172
-0.07541
-0.16969
-0.20302
-0.08921
0.11969
0.28019
0.26376
0.07962
-0.11402
-0.19103
-0.15271
-0.07052
0.00098
0.04038
0.05609
0.05588
0.04564
0.02667
0.00537
-0.01135
-0.02323
-0.02748
-0.02263
-0.01350
-0.00491
0.00344
0.00776
0.00999
0.01287
0.01083
0.00347
0.00027
-0.00217
-0.00373
-0.00602
-0.00816
-0.00450
-0.00156
0.00034
0.00126
0.00367
0.00521
0.00323
0.00255
0.00265
0.00045
-0.00226
-0.00476
-0.00488
-0.00386
-0.00246
0.00013
0.00383
0.00615
0.00344
0.00050
-0.00180
-0.00057
0.00056
-0.00126
-0.00274
-0.00212
-0.00004
0.00029
0.00092
0.00150
0.00186
0.00204
-0.00040
-0.00274
-0.00239
-0.00165
-0.00066
0.00064
0.00183
0.00282
0.00306
0.00260
0.00109
-0.00097
-0.00345
-0.00532
-0.00609
-0.00457
-0.00055
0.00405
0.00716
0.00567
0.00130
0.00124
0.00561
0.00194
-0.00467
-0.00231
0.00405
0.00249
-0.00994
-0.02299
-0.02499
-0.01399
0.00198
0.01906
0.03457
0.04939
0.05638
0.04322
0.01148
-0.04857
-0.14220
-0.20356
-0.13521
0.06428
0.26129
0.29280
0.12854
-0.08412
-0.19023
-0.16779
-0.08659
-0.01125
0.03793
0.05666
0.05401
0.04236
0.02992
0.01400
-0.00627
-0.01944
-0.02566
-0.02747
-0.02056
-0.00907
0.00480
0.01290
0.01332
0.01348
0.00791
0.00135
-0.00389
-0.00444
-0.00362
-0.00126
-0.00145
-0.00329
-0.00002
-0.00328
-0.00377
0.00328
0.00610
0.00457
0.00072
-0.00182
0.00145
0.00177
-0.00117
-0.00463
-0.00721
-0.00196
0.00427
0.00380
0.00123
0.00010
0.00105
0.00094
-0.00010
-0.00081
-0.00158
-0.00028
0.00122
-0.00000
-0.00073
-0.00112
-0.00147
-0.00161
-0.00047
0.00352
0.00257
-0.00054
-0.00015
0.00023
-0.00018
0.00027
0.00343
0.00394
-0.00352
-0.00874
-0.00812
-0.00123
0.00517
0.00726
0.00478
-0.00211
-0.00353
0.00114
0.00516
0.00448
-0.00163
-0.00182
0.00533
0.00715
-0.00292
-0.02028
-0.02646
-0.02222
-0.00938
0.00577
0.02573
0.04985
0.06432
0.06165
0.03204
-0.02679
-0.11928
-0.20580
-0.17949
-0.00756
0.20518
0.30606
0.20607
-0.00694
-0.16497
-0.19097
-0.12338
-0.04229
0.01842
0.05337
0.06448
0.05751
0.03832
0.01504
-0.00835
-0.02015
-0.02412
-0.02253
-0.01885
-0.01102
0.00044
0.00708
0.00961
0.01012
0.00939
0.00566
0.00240
0.00022
-0.00195
-0.00545
-0.00474
-0.00405
-0.00308
0.00045
0.00096
-0.00249
-0.00133
0.00124
0.00376
0.00769
0.00619
0.00267
-0.00249
-0.00478
-0.00724
-0.00610
-0.00220
0.00027
0.00395
0.00388
0.00178
-0.00263
0.00065
0.00534
0.00434
0.00281
0.00052
-0.00409
-0.00999
-0.00976
-0.00561
0.00416
0.01037
0.00874
0.00389
-0.00105
-0.00422
-0.00271
0.00141
0.00116
0.00090
-0.00091
-0.00576
-0.00850
-0.00434
0.00427
0.00776
0.00535
0.00005
-0.00114
0.00522
0.00596
-0.00129
-0.00599
-0.00115
0.00600
0.00346
-0.00805
-0.01976
-0.02282
-0.01671
-0.00485
0.01402
0.03436
0.05138
0.06006
0.05020
0.01282
-0.05337
-0.14708
-0.20649
-0.12921
0.07221
0.26014
0.28534
0.12349
-0.08388
-0.18702
-0.16451
-0.08630
-0.01381
0.03609
0.05838
0.06034
0.04587
0.02497
0.00753
-0.00793
-0.01992
-0.02511
-0.02345
-0.01676
-0.00533
0.00163
0.00842
0.01262
0.00877
0.00604
0.00578
0.00377
-0.00053
-0.00562
-0.00567
-0.00467
-0.00375
-0.00307
-0.00138
0.00174
0.00268
0.00236
0.00083
0.00296
0.00593
0.00588
-0.00158
-0.00761
-0.00655
-0.00520
-0.00372
0.00185
0.00676
0.00542
0.00181
-0.00104
-0.00088
-0.00023
-0.00128
-0.00091
0.00199
0.00020
-0.00143
-0.00137
-0.00195
-0.00151
-0.00195
-0.00036
0.00413
0.00671
0.00092
-0.00207
0.00157
0.00411
-0.00001
-0.00849
-0.00748
-0.00353
-0.00371
0.00221
0.00811
0.00660
0.00210
-0.00043
0.00567
0.00372
-0.00731
-0.00807
0.00285
0.01306
0.00783
-0.00894
-0.02745
-0.03250
-0.02150
-0.00336
0.02005
0.04614
0.06709
0.07114
0.05191
-0.00044
-0.08752
-0.19552
-0.23020
-0.09156
0.15207
0.32229
0.27622
0.06400
-0.13511
-0.20673
-0.15787
-0.07147
0.00585
0.05181
0.06287
0.05781
0.04168
0.02221
0.00337
-0.01128
-0.01941
-0.02509
-0.02646
-0.01867
-0.00522
0.00677
0.01209
0.01187
0.00969
0.00698
0.00389
0.00211
-0.00022
-0.00448
-0.00854
-0.00918
-0.00348
0.00191
0.00385
0.00114
-0.00282
-0.00151
0.00475
0.00858
0.00566
0.00203
-0.00169
-0.00696
-0.01021
-0.00622
0.00068
0.00255
0.00324
0.00498
0.00552
0.00161
-0.00070
-0.00299
-0.00233
0.00020
-0.00027
-0.00265
-0.00169
0.00384
-0.00171
-0.00437
0.00048
0.00444
0.00340
0.00011
0.00030
0.00042
-0.00010
-0.00088
-0.00103
0.00154
-0.00070
-0.00526
-0.00713
-0.00139
0.00640
0.00422
0.00043
0.00207
0.00406
0.00187
0.00051
-0.00489
0.00088
0.00879
0.00743
-0.00274
-0.01819
-0.02831
-0.02593
-0.01308
0.00723
0.03104
0.04995
0.06344
0.05752
0.03144
-0.02370
-0.11134
-0.20222
-0.18885
-0.01740
0.21036
0.31457
0.20193
-0.01268
-0.16540
-0.18796
-0.12053
-0.03934
0.01975
0.05257
0.06119
0.05120
0.03707
0.02042
-0.00122
-0.01882
-0.03007
-0.02723
-0.01879
-0.00877
-0.00138
0.00636
0.01390
0.01218
0.00936
0.00612
0.00322
-0.00000
-0.00601
-0.00855
-0.00456
-0.00427
-0.00355
0.00010
0.00227
0.00335
0.00279
0.00231
0.00367
0.00338
0.00042
-0.00260
-0.00169
-0.00397
-0.00750
-0.00126
0.00236
0.00372
0.00084
0.00047
0.00421
0.00221
0.00044
-0.00406
-0.00227
0.00121
0.00125
-0.00051
-0.00175
-0.00172
-0.00180
-0.00081
-0.00024
0.00137
0.00216
0.00372
0.00377
0.00421
0.00129
-0.00360
-0.00661
-0.00668
-0.00483
-0.00312
-0.00061
0.00547
0.00724
0.00406
0.00388
0.00538
0.00316
-0.00358
-0.00937
-0.00669
0.01092
0.01247
-0.00479
-0.01807
-0.02658
-0.02427
-0.01237
0.00553
0.03216
0.05811
0.06861
0.05888
0.02998
-0.03591
-0.13904
-0.22263
-0.18018
0.01904
0.24339
0.33206
0.19627
-0.04793
-0.19726
-0.19564
-0.11168
-0.02510
0.03371
0.05479
0.06073
0.05492
0.03317
0.01176
-0.00764
-0.02221
-0.02169
-0.02040
-0.01754
-0.00730
-0.00180
0.00407
0.00609
0.00865
0.01045
0.00955
0.00625
-0.00155
-0.00569
-0.00153
-0.00450
-0.00663
-0.00137
-0.00158
-0.00314
-0.00435
0.00155
0.00811
0.00805
0.00382
0.00246
0.00264
-0.00033
-0.00623
-0.01344
-0.00969
-0.00038
0.00643
0.00823
0.00614
0.00375
0.00069
-0.00127
-0.00317
-0.00262
-0.00374
-0.00320
-0.00038
0.00188
0.00168
0.00277
0.00574
0.00094
-0.00739
-0.00614
-0.00124
0.00321
0.00611
0.00495
0.00359
0.00124
-0.00445
-0.01261
-0.00945
-0.00026
0.00819
0.00517
0.00038
0.00107
0.00727
0.00716
-0.00302
-0.00925
-0.00281
0.01105
0.01062
-0.00241
-0.01607
-0.02339
-0.02985
-0.01722
0.00271
0.02761
0.05026
0.06546
0.06392
0.03499
-0.01953
-0.10805
-0.19695
-0.19469
-0.03411
0.18755
0.31276
0.22562
0.00702
-0.16060
-0.19355
-0.12744
-0.04374
0.01867
0.05006
0.06103
0.05166
0.03689
0.01666
-0.00040
-0.01461
-0.02723
-0.02540
-0.01615
-0.00652
-0.00290
0.00294
0.00486
0.01014
0.01191
0.00595
0.00720
0.00122
-0.00381
-0.00577
-0.00475
-0.00545
-0.00454
-0.00159
0.00197
0.00208
-0.00121
0.00095
0.00338
0.00751
0.00632
0.00123
-0.00405
-0.00523
-0.00739
-0.00531
-0.00375
0.00361
0.00470
0.00291
0.00577
0.00183
0.00019
-0.00211
-0.00083
-0.00165
-0.00115
-0.00244
-0.00247
-0.00149
-0.00031
0.00125
0.00231
0.00331
0.00331
0.00297
0.00144
-0.00033
-0.00281
-0.00465
-0.00589
-0.00500
-0.00200
-0.00087
0.00274
0.00733
0.00870
0.00906
0.00117
-0.00553
-0.00864
-0.00362
0.00556
0.01204
0.00440
-0.01390
-0.02486
-0.02606
-0.01700
-0.00557
0.01641
0.04369
0.06445
0.07071
0.05569
0.00615
-0.08371
-0.19689
-0.24084
-0.10585
0.15033
0.33540
0.29545
0.06790
-0.14567
-0.21242
-0.15969
-0.07302
-0.00056
0.04940
0.06698
0.06651
0.04675
0.02222
0.00178
-0.01692
-0.02430
-0.02686
-0.01928
-0.01183
-0.00813
-0.00187
0.00943
0.01519
0.01579
0.00824
0.00361
0.00135
-0.00659
-0.00668
-0.00256
-0.00151
-0.00716
-0.00587
0.00061
0.00336
0.00388
0.00037
0.00349
0.00941
0.00403
-0.00244
-0.00738
-0.00234
-0.00114
-0.00405
-0.00348
-0.00201
-0.00076
0.00493
0.00706
0.00184
0.00619
0.00128
-0.00253
-0.00519
-0.00385
-0.00269
-0.00348
-0.00036
0.00036
-0.00031
0.00147
0.00668
0.00893
0.00288
-0.00450
-0.00575
-0.00529
0.00022
0.00269
-0.00086
-0.00235
-0.00266
-0.00452
0.00131
0.00415
0.00526
0.00694
0.00263
0.00080
-0.00179
-0.01023
-0.00421
0.00897
0.01389
0.00238
-0.01283
-0.02248
-0.02588
-0.02038
-0.00396
0.02136
0.04321
0.06133
0.06200
0.04551
-0.00013
-0.07846
-0.18366
-0.21842
-0.08442
0.14835
0.30759
0.26592
0.05413
-0.14276
-0.20134
-0.14501
-0.05586
0.01168
0.04376
0.05587
0.05881
0.04092
0.02081
-0.00242
-0.01257
-0.01885
-0.02435
-0.02184
-0.01200
-0.00379
0.00238
0.00849
0.01099
0.01188
0.00675
0.00278
-0.00143
-0.00222
0.00009
-0.00476
-0.00461
-0.00447
-0.00404
-0.00127
0.00014
0.00452
0.00275
0.00370
0.00369
0.00085
0.00171
0.00383
-0.00589
-0.00871
-0.00456
0.00073
0.00053
-0.00181
0.00243
0.00669
0.00445
0.00250
0.00110
-0.00346
-0.00412
-0.00360
-0.00021
-0.00151
-0.00093
-0.00068
0.00080
0.00152
0.00291
0.00314
0.00346
0.00226
0.00089
-0.00180
-0.00405
-0.00648
-0.00697
-0.00596
-0.00157
0.00511
0.00994
0.01057
0.00665
0.00358
-0.00556
-0.01247
-0.00906
0.00621
0.01645
0.01065
-0.00734
-0.02009
-0.03295
-0.03056
-0.01193
0.01370
0.04229
0.06545
0.07178
0.06339
0.02130
-0.05809
-0.16887
-0.25062
-0.15905
0.07635
0.30768
0.33715
0.14186
-0.09904
-0.21692
-0.18630
-0.09635
-0.01195
0.04120
0.06551
0.06411
0.05186
0.02649
0.00440
-0.00827
-0.01861
-0.02506
-0.02397
-0.01725
-0.00792
0.00168
0.00462
0.01009
0.01323
0.00964
0.00565
0.00193
-0.00032
-0.00141
-0.00582
-0.00987
-0.00337
0.00204
-0.00310
-0.00527
0.00165
0.00637
0.00526
0.00182
0.00221
0.00453
0.00469
-0.00428
-0.01138
-0.00299
-0.00253
-0.00535
0.00063
0.00591
0.00752
0.00119
0.00304
0.00354
-0.00249
-0.00493
-0.00511
0.00225
0.00019
-0.00030
-0.00145
-0.00125
-0.00215
-0.00137
0.00315
0.00463
0.00441
0.00093
-0.00004
0.00037
0.00285
-0.00296
-0.00603
-0.00600
-0.00658
-0.00735
-0.00248
0.00749
0.01726
0.01974
0.00871
-0.00887
-0.01877
-0.01342
-0.00125
0.01228
0.01685
0.00365
-0.01580
-0.03103
-0.03165
-0.01609
0.00722
0.03430
0.05799
0.07104
0.06178
0.03040
-0.03318
-0.13603
-0.23397
-0.19833
0.01608
0.27011
0.35448
0.18696
-0.06544
-0.20486
-0.19343
-0.11066
-0.02372
0.03690
0.06072
0.05729
0.04859
0.03940
0.01357
-0.00994
-0.02070
-0.02384
-0.02350
-0.01805
-0.00894
0.00016
0.00832
0.00868
0.00693
0.00808
0.00871
0.00444
0.00145
-0.00022
-0.00541
-0.00982
-0.00902
-0.00383
0.00517
0.00256
-0.00187
0.00188
0.00382
0.00400
0.00229
-0.00151
0.00222
0.00316
-0.00398
-0.00423
-0.00738
-0.00403
-0.00089
0.00203
0.00572
0.00769
0.00608
-0.00209
-0.00200
-0.00345
-0.00233
-0.00377
-0.00402
0.00187
0.00267
0.00366
-0.00128
-0.00149
0.00201
0.00019
0.00219
0.00427
0.00078
-0.00168
-0.00358
-0.00318
-0.00600
-0.01071
-0.00337
0.00631
0.01640
0.01602
0.00399
-0.00476
-0.01308
-0.00878
0.00631
0.01268
0.00989
-0.01148
-0.03080
-0.03120
-0.02022
-0.00024
0.02192
0.04369
0.06490
0.07091
0.04819
0.00116
-0.07991
-0.18466
-0.23150
-0.11030
0.13589
0.32115
0.29572
0.08061
-0.13670
-0.21028
-0.16261
-0.07420
0.00047
0.04644
0.06635
0.06018
0.04694
0.02567
0.00573
-0.01555
-0.02800
-0.02832
-0.02077
-0.00946
-0.00553
0.00243
0.00892
0.01257
0.00914
0.00915
0.00372
-0.00102
0.00023
-0.00546
-0.00775
-0.00244
-0.00244
-0.00221
0.00149
-0.00037
0.00058
0.00067
0.00328
0.00468
0.00311
-0.00046
0.00096
0.00074
-0.00366
-0.00612
-0.00700
-0.00102
0.00115
0.00239
0.00499
0.00503
0.00338
0.00009
0.00062
0.00021
-0.00339
-0.00553
-0.00578
-0.00588
0.00002
0.00527
0.00602
0.00568
0.00553
0.00409
-0.00228
-0.00467
-0.00649
-0.00322
-0.00321
-0.00650
-0.00701
-0.00003
0.00915
0.01448
0.01525
0.00755
-0.00515
-0.01817
-0.01093
0.00769
0.01285
0.00492
-0.01091
-0.02812
-0.02925
-0.01620
0.00017
0.02084
0.04710
0.06401
0.06861
0.04907
-0.00033
-0.08483
-0.20233
-0.23808
-0.09501
0.15765
0.34064
0.29588
0.06199
-0.15626
-0.21884
-0.15851
-0.06976
0.00540
0.05246
0.06668
0.06003
0.04641
0.02552
0.00616
-0.01390
-0.02909
-0.02946
-0.02136
-0.01459
-0.00955
0.00211
0.01343
0.01738
0.01587
0.00715
-0.00163
-0.00077
-0.00142
-0.00200
-0.00709
-0.00675
-0.00339
-0.00309
-0.00172
0.00005
0.00543
0.00509
0.00340
0.00558
0.00570
-0.00157
-0.00722
-0.00293
-0.00155
-0.00927
-0.00660
0.00339
0.00870
0.00520
0.00244
0.00202
0.00187
-0.00115
-0.00347
-0.00420
-0.00641
0.00147
0.00390
-0.00014
0.00160
0.00201
-0.00251
-0.00383
0.00357
0.00684
-0.00067
0.00092
-0.00102
-0.00269
-0.00168
-0.00811
-0.00867
-0.00166
0.00794
0.01211
0.01259
0.00320
-0.00926
-0.00933
-0.00002
0.01075
0.01109
-0.00018
-0.01689
-0.02632
-0.02775
-0.01867
0.00224
0.02642
0.04883
0.05583
0.06034
0.04464
-0.00341
-0.08396
-0.18920
-0.21336
-0.07383
0.15788
0.30988
0.25343
0.04211
-0.14508
-0.19317
-0.13739
-0.05591
0.00799
0.04144
0.05793
0.05844
0.04249
0.02017
0.00028
-0.01593
-0.02294
-0.02417
-0.01717
-0.00854
-0.00494
-0.00098
0.00742
0.01157
0.00811
0.00745
0.00656
0.00372
0.00005
-0.00536
-0.00759
-0.00781
-0.00436
-0.00051
-0.00114
-0.00117
0.00424
0.00725
0.00452
0.00382
0.00203
0.00011
-0.00606
-0.00561
-0.00464
-0.00305
0.00122
0.00014
0.00237
0.00526
0.00221
0.00421
0.00143
-0.00045
-0.00341
-0.00816
-0.00239
0.00089
0.00230
-0.00078
-0.00055
0.00079
0.00576
0.00387
-0.00129
0.00029
0.00355
-0.00081
-0.00766
-0.00578
-0.00377
-0.00916
-0.00122
0.01175
0.01314
0.01228
0.00163
-0.00737
-0.01072
-0.00592
0.00410
0.01531
0.00970
-0.00614
-0.02171
-0.03452
-0.02842
-0.01060
0.01440
0.04207
0.06499
0.07256
0.05514
0.01564
-0.05420
-0.16171
-0.23153
-0.15003
0.06688
0.27979
0.31964
0.14520
-0.08294
-0.19900
-0.17998
-0.10034
-0.01795
0.03356
0.05923
0.06538
0.05532
0.03390
0.00828
-0.01288
-0.02459
-0.02606
-0.02523
-0.01563
-0.00701
0.00558
0.00820
0.00855
0.01064
0.00732
0.00731
0.00365
-0.00008
-0.00530
-0.00775
-0.00717
-0.00702
-0.00116
0.00347
0.00295
0.00076
0.00278
0.00649
0.00109
0.00037
-0.00190
-0.00043
-0.00032
-0.00432
-0.00346
-0.00077
0.00071
-0.00250
0.00046
0.00384
0.00432
0.00326
0.00029
-0.00017
0.00203
-0.00163
-0.00500
-0.00664
-0.00398
0.00087
0.00210
0.00264
0.00310
0.00375
0.00400
0.00391
0.00316
-0.00187
-0.00840
-0.00722
-0.00617
-0.00844
-0.00558
0.00478
0.01527
0.01817
0.00995
-0.00196
-0.00892
-0.01314
-0.00844
0.00376
0.01210
0.01017
-0.00404
-0.01851
-0.02847
-0.02525
-0.01040
0.01150
0.03892
0.06229
0.06910
0.05579
0.01600
-0.05938
-0.16596
-0.23280
-0.14029
0.08976
0.29554
0.30574
0.11858
-0.09592
-0.19752
-0.17415
-0.09435
-0.01361
0.03914
0.06421
0.06722
0.04925
0.02753
0.00436
-0.01341
-0.02193
-0.02366
-0.02123
-0.01635
-0.00822
-0.00113
0.00915
0.01376
0.01232
0.00741
0.00685
-0.00029
-0.00422
-0.00273
-0.00197
-0.00275
-0.00801
-0.00596
-0.00326
0.00118
0.00212
0.00733
0.01016
0.00600
-0.00101
-0.00301
-0.00495
-0.00617
-0.00534
-0.00234
0.00325
0.00110
0.00310
0.00440
0.00166
0.00001
0.00050
-0.00331
0.00018
0.00173
-0.00130
-0.00324
-0.00443
-0.00033
0.00117
0.00227
0.00260
0.00320
0.00257
0.00190
-0.00003
-0.00175
-0.00400
-0.00508
-0.00536
-0.00329
0.00063
0.00336
0.00623
0.00990
0.00504
-0.00490
-0.00784
-0.00509
0.00579
0.01501
0.01011
-0.00317
-0.01405
-0.02651
-0.03135
-0.02269
-0.00209
0.02387
0.04431
0.06227
0.07037
0.05368
0.00679
-0.08101
-0.18877
-0.22633
-0.10612
0.12731
0.30486
0.28541
0.08966
-0.11617
-0.20036
-0.16303
-0.07953
-0.00571
0.04039
0.06045
0.06195
0.04875
0.02936
0.00895
-0.01383
-0.02821
-0.02924
-0.02211
-0.01411
-0.00507
0.00708
0.01167
0.01067
0.00821
0.00344
0.00308
0.00349
-0.00106
-0.00410
-0.00317
-0.00285
-0.00471
-0.00244
-0.00111
-0.00040
0.00128
-0.00040
0.00126
0.00456
0.00831
0.00460
-0.00201
-0.00164
-0.00367
-0.00734
-0.01191
-0.00414
0.00807
0.00898
0.00401
0.00410
0.00483
-0.00287
-0.00729
-0.00264
0.00161
-0.00357
-0.00466
-0.00148
0.00413
0.00426
0.00318
0.00362
0.00122
-0.00066
-0.00111
0.00131
-0.00467
-0.00989
-0.01062
-0.00197
0.00926
0.01298
0.00902
0.00457
0.00035
-0.00584
-0.01106
-0.01178
0.00488
0.01911
0.01538
-0.00373
-0.02105
-0.03010
-0.02865
-0.01406
0.00985
0.03564
0.05498
0.06512
0.05719
0.02598
-0.03859
-0.13944
-0.21565
-0.16120
0.03771
0.24792
0.30116
0.15810
-0.05382
-0.17902
-0.17615
-0.10267
-0.02488
0.02869
0.05390
0.06301
0.05352
0.03135
0.00786
-0.01032
-0.02020
-0.02364
-0.02320
-0.01590
-0.00402
0.00041
0.00536
0.00934
0.01155
0.00853
0.00378
-0.00053
-0.00018
-0.00079
-0.00170
-0.00523
-0.00640
-0.00256
-0.00255
-0.00083
0.00019
0.00388
0.00662
0.00429
0.00179
0.00227
0.00052
-0.00404
-0.00636
-0.00404
-0.00387
-0.00155
0.00050
0.00321
0.00679
0.00565
0.00207
-0.00024
0.00032
-0.00319
-0.00716
-0.00507
-0.00090
0.00067
0.00083
0.00131
0.00473
0.00548
0.00386
0.00197
-0.00084
-0.00336
-0.00583
-0.00670
-0.00601
-0.00614
-0.00134
0.00760
0.01411
0.01364
0.00362
-0.00485
-0.00783
-0.00828
-0.00036
0.01280
0.00967
-0.00578
-0.01998
-0.02914
-0.02510
-0.01254
0.00719
0.03425
0.05907
0.07271
0.06802
0.03040
-0.04344
-0.15205
-0.23576
-0.17910
0.02849
0.25881
0.33486
0.19287
-0.04354
-0.19451
-0.19867
-0.12241
-0.03581
0.02774
0.06003
0.06930
0.06134
0.03982
0.01372
-0.00914
-0.02566
-0.02978
-0.02545
-0.01868
-0.00687
0.00362
0.00855
0.00949
0.00766
0.00758
0.00634
0.00386
0.00177
-0.00194
-0.00288
-0.00504
-0.00582
-0.00553
-0.00504
-0.00292
0.00049
0.00455
0.00659
0.00829
0.00790
0.00282
-0.00284
-0.00573
-0.00910
-0.00677
-0.00495
-0.00173
0.00384
0.00672
0.00826
0.00580
0.00171
-0.00237
-0.00464
-0.00552
-0.00617
-0.00130
0.00528
0.00366
0.00014
-0.00273
-0.00223
-0.00076
0.00591
0.00927
0.00142
-0.00456
-0.00357
-0.00461
-0.00596
-0.00150
-0.00340
-0.00106
0.00368
0.00909
0.01216
0.00523
-0.00278
-0.00934
-0.00965
0.00175
0.01302
0.00951
-0.00113
-0.01725
-0.02870
-0.02643
-0.01318
0.00862
0.03041
0.04934
0.05903
0.05738
0.03289
-0.02257
-0.11304
-0.20099
-0.17940
-0.01371
0.20018
0.30170
0.20349
-0.00548
-0.16160
-0.18532
-0.11947
-0.04053
0.01693
0.04952
0.06225
0.05509
0.03465
0.01427
-0.00227
-0.01701
-0.02493
-0.02236
-0.01619
-0.01132
-0.00513
0.00539
0.01194
0.01165
0.00788
0.00501
0.00320
0.00152
-0.00165
-0.00441
-0.00418
-0.00462
-0.00466
-0.00410
-0.00158
0.00231
0.00300
0.00395
0.00547
0.00465
0.00263
-0.00242
-0.00345
-0.00210
-0.00363
-0.00518
-0.00277
-0.00011
0.00222
0.00480
0.00314
0.00399
0.00337
-0.00124
-0.00354
-0.00278
-0.00213
-0.00220
-0.00144
-0.00019
0.00066
0.00119
0.00065
0.00203
0.00472
0.00461
0.00124
-0.00162
-0.00170
-0.00622
-0.01167
-0.01044
-0.00204
0.00905
0.01607
0.01467
0.00722
-0.00359
-0.01386
-0.01116
0.00401
0.01254
0.00643
-0.00531
-0.01827
-0.02756
-0.02673
-0.01313
0.01287
0.04156
0.06103
0.06663
0.05682
0.01898
-0.05575
-0.15812
-0.21958
-0.14395
0.05991
0.26501
0.30842
0.14882
-0.07410
-0.19470
-0.17934
-0.09785
-0.01612
0.03403
0.05588
0.06225
0.05359
0.03109
0.00675
-0.01198
-0.02130
-0.02297
-0.01979
-0.01421
-0.00956
-0.00241
0.00475
0.01190
0.01331
0.00916
0.00469
0.00034
0.00105
-0.00220
-0.00527
-0.00544
-0.00528
-0.00225
-0.00248
-0.00188
0.00130
0.00518
0.00538
0.00365
0.00288
0.00199
0.00114
-0.00328
-0.00466
-0.00611
-0.00788
-0.00358
0.00344
0.00757
0.00682
0.00421
0.00225
0.00088
-0.00316
-0.00549
-0.00495
-0.00239
-0.00058
-0.00028
0.00073
0.00192
0.00302
0.00366
0.00358
0.00268
0.00087
-0.00149
-0.00407
-0.00598
-0.00662
-0.00743
-0.00563
0.00417
0.01363
0.01322
0.00831
0.00099
-0.00488
-0.01038
-0.00647
0.00671
0.01081
0.00191
-0.01277
-0.02274
-0.02545
-0.02180
-0.00581
0.02160
0.04899
0.06915
0.07165
0.05081
-0.00267
-0.09809
-0.20689
-0.22846
-0.08168
0.16637
0.33046
0.27483
0.05706
-0.14303
-0.20916
-0.16006
-0.07071
0.00616
0.05136
0.06598
0.06065
0.04438
0.02394
0.00134
-0.01639
-0.02368
-0.02306
-0.02043
-0.01619
-0.00500
0.00290
0.00665
0.01025
0.01217
0.01023
0.00611
0.00259
-0.00294
-0.00481
-0.00402
-0.00682
-0.00831
-0.00474
-0.00090
0.00362
0.00688
0.00581
0.00347
0.00159
0.00041
-0.00110
-0.00039
-0.00090
-0.00479
-0.00614
-0.00393
-0.00146
0.00286
0.00737
0.00494
0.00116
0.00080
0.00130
0.00041
-0.00259
-0.00545
-0.00665
-0.00408
0.00140
0.00456
0.00477
0.00452
0.00343
0.00175
-0.00061
-0.00305
-0.00283
-0.00404
-0.00629
-0.00623
-0.00387
0.00347
0.00978
0.01423
0.00981
-0.00238
-0.00936
-0.00931
0.00096
0.00911
0.00808
-0.00238
-0.01424
-0.02120
-0.02647
-0.01895
0.00173
0.02713
0.05084
0.06642
0.06420
0.03489
-0.02362
-0.11205
-0.20042
-0.19073
-0.02557
0.19912
0.30731
0.21157
0.00431
-0.15507
-0.18873
-0.12804
-0.04632
0.01539
0.05079
0.06320
0.05638
0.03650
0.01494
-0.00496
-0.01685
-0.02130
-0.02350
-0.01755
-0.00831
-0.00317
0.00102
0.00818
0.01073
0.00913
0.00691
0.00495
0.00410
-0.00043
-0.00616
-0.00872
-0.00620
-0.00193
-0.00138
-0.00250
-0.00031
0.00267
0.00413
0.00656
0.00739
0.00377
-0.00219
-0.00602
-0.00557
-0.00349
-0.00455
-0.00312
0.00174
0.00378
0.00425
0.00440
0.00514
0.00211
-0.00203
-0.00494
-0.00718
-0.00444
0.00239
0.00249
0.00003
0.00190
0.00261
0.00194
-0.00016
0.00160
0.00265
-0.00128
-0.00437
-0.00327
-0.00473
-0.00831
-0.00402
0.00508
0.01283
0.01504
0.00730
-0.00485
-0.01031
-0.00723
0.00249
0.01058
0.00507
-0.01046
-0.02219
-0.02466
-0.01875
-0.00518
0.01554
0.03785
0.05738
0.06656
0.05188
0.00968
-0.06430
-0.16276
-0.21273
-0.12531
0.08444
0.27655
0.29374
0.12012
-0.09286
-0.19376
-0.16791
-0.08740
-0.01404
0.03603
0.05912
0.05993
0.04911
0.03053
0.01097
-0.00978
-0.02345
-0.02695
-0.02351
-0.01796
-0.01006
0.00277
0.01176
0.01364
0.01124
0.00767
0.00393
0.00077
-0.00128
-0.00219
-0.00476
-0.00703
-0.00719
-0.00319
0.00200
0.00338
0.00084
-0.00037
0.00462
0.00590
0.00293
0.00047
0.00015
-0.00082
-0.00560
-0.00766
-0.00450
-0.00125
0.00033
0.00438
0.00681
0.00665
0.00308
-0.00304
-0.00080
-0.00006
-0.00420
-0.00595
-0.00636
-0.00313
0.00281
0.00643
0.00697
0.00705
0.00361
-0.00297
-0.00542
-0.00297
-0.00289
-0.00406
-0.00607
-0.00546
0.00014
0.00580
0.01027
0.01242
0.00879
-0.00224
-0.01257
-0.00900
0.00473
0.01170
0.00567
-0.00955
-0.02166
-0.02728
-0.02483
-0.00955
0.01547
0.04254
0.06448
0.07131
0.05652
0.01519
-0.06609
-0.17485
-0.23186
-0.14144
0.08791
0.29937
0.31841
0.12938
-0.10147
-0.20677
-0.17993
-0.09357
-0.01252
0.03798
0.06285
0.06683
0.05336
0.02907
0.00618
-0.01029
-0.02169
-0.02998
-0.02821
-0.01655
-0.00219
0.00696
0.00971
0.00979
0.00786
0.00411
0.00263
0.00384
0.00398
-0.00104
-0.00712
-0.00661
-0.00340
-0.00119
-0.00242
-0.00287
0.00044
0.00212
0.00273
0.00430
0.00700
0.00749
0.00301
-0.00490
-0.01020
-0.00831
-0.00754
-0.00361
0.00469
0.00736
0.00840
0.00785
0.00172
-0.00303
-0.00378
-0.00430
-0.00776
-0.00467
0.00263
0.00230
0.00195
0.00620
0.00666
0.00086
-0.00409
-0.00382
0.00061
-0.00084
-0.00384
-0.00457
-0.00514
-0.00485
0.00324
0.01234
0.01319
0.01043
-0.00072
-0.01300
-0.01648
-0.00601
0.01308
0.01828
0.00638
-0.01392
-0.02949
-0.02674
-0.01654
-0.00052
0.02223
0.04841
0.06607
0.06374
0.03537
-0.02052
-0.10149
-0.18711
-0.19008
-0.04509
0.17501
0.30342
0.22983
0.01849
-0.15018
-0.18905
-0.13468
-0.05127
0.01367
0.04903
0.06164
0.05783
0.04110
0.01780
-0.00381
-0.01748
-0.02370
-0.02535
-0.01876
-0.01031
-0.00577
0.00389
0.01179
0.01480
0.01261
0.00559
0.00143
-0.00221
-0.00438
-0.00575
-0.00479
-0.00145
-0.00188
-0.00229
0.00024
0.00107
0.00092
0.00152
0.00355
0.00355
0.00310
0.00225
-0.00135
-0.00256
-0.00465
-0.00685
-0.00426
0.00095
0.00177
0.00278
0.00568
0.00743
0.00287
-0.00293
-0.00223
-0.00433
-0.00597
-0.00546
-0.00113
0.00378
0.00595
0.00497
0.00270
0.00173
-0.00070
-0.00136
-0.00261
-0.00314
-0.00387
-0.00837
-0.00677
0.00174
0.00841
0.01293
0.01280
0.00448
-0.00734
-0.01305
-0.00541
0.00982
0.01355
0.00118
-0.01597
-0.02813
-0.02743
-0.01663
-0.00062
0.02300
0.04956
0.06782
0.06674
0.04294
-0.00854
-0.09230
-0.19306
-0.21827
-0.08032
0.15173
0.31660
0.27776
0.06697
-0.14151
-0.21445
-0.15976
-0.06771
0.00731
0.05081
0.06454
0.05992
0.04640
0.02514
0.00095
-0.01731
-0.02376
-0.02396
-0.02340
-0.01785
-0.00395
0.00524
0.00938
0.01335
0.01353
0.00852
0.00161
-0.00122
-0.00214
-0.00355
-0.00587
-0.00467
-0.00308
-0.00298
-0.00213
0.00039
0.00475
0.00573
0.00103
0.00014
0.00167
0.00599
0.00655
-0.00376
-0.01236
-0.01201
-0.00428
0.00395
0.00810
0.00554
0.00300
0.00135
0.00041
-0.00094
-0.00142
-0.00038
-0.00230
-0.00308
-0.00247
-0.00234
-0.00103
0.00274
0.00590
0.00672
0.00358
0.00037
-0.00326
-0.00803
-0.00713
-0.00496
-0.00427
0.00011
0.00794
0.01382
0.01636
0.00262
-0.01527
-0.01788
-0.00194
0.01805
0.01718
0.00069
-0.02045
-0.02932
-0.02772
-0.01739
0.00329
0.02960
0.05129
0.06338
0.06103
0.03398
-0.02014
-0.10048
-0.18980
-0.19479
-0.04314
0.17579
0.30232
0.23170
0.02656
-0.14890
-0.19297
-0.13520
-0.05242
0.01082
0.04760
0.06017
0.05598
0.04387
0.02194
-0.00154
-0.01823
-0.02417
-0.02627
-0.02076
-0.00917
-0.00263
0.00298
0.00896
0.01260
0.01050
0.00498
0.00312
0.00216
0.00113
-0.00489
-0.00885
-0.00637
-0.00178
-0.00077
-0.00094
-0.00027
0.00048
0.00329
0.00508
0.00486
0.00442
0.00342
-0.00259
-0.00534
-0.00498
-0.00776
-0.00661
-0.00082
0.00498
0.00813
0.00655
0.00602
0.00254
-0.00386
-0.00565
-0.00596
-0.00550
-0.00136
0.00043
0.00182
0.00425
0.00780
0.00531
-0.00110
-0.00337
-0.00227
-0.00208
-0.00419
-0.00561
-0.00643
-0.00206
0.00297
0.01182
0.01397
0.00766
-0.00172
-0.01212
-0.01074
0.00242
0.01384
0.01220
-0.00387
-0.02320
-0.03230
-0.02788
-0.01230
0.01088
0.03796
0.06111
0.07252
0.06067
0.02320
-0.04382
-0.14325
-0.22484
-0.18154
0.02143
0.25598
0.33947
0.19441
-0.04964
-0.19772
-0.19968
-0.11919
-0.03109
0.03019
0.06040
0.06909
0.05963
0.03689
0.01103
-0.01020
-0.02259
-0.02880
-0.02423
-0.01470
-0.00789
-0.00233
0.00481
0.01060
0.01192
0.01017
0.00919
0.00598
-0.00113
-0.00812
-0.00767
-0.00253
-0.00349
-0.00580
-0.00526
-0.00049
0.00292
0.00906
0.00729
0.00397
0.00320
-0.00029
-0.00242
-0.00721
-0.00627
-0.00566
-0.00222
0.00108
0.00454
0.00535
0.00533
0.00364
0.00057
0.00056
-0.00285
-0.00731
-0.00333
-0.00155
-0.00243
-0.00180
0.00134
0.00864
0.00508
0.00494
0.00348
0.00037
-0.00618
-0.00717
-0.00652
-0.00983
-0.00748
0.00087
0.01378
0.01433
0.01332
0.00668
-0.00564
-0.01234
-0.01396
-0.00216
0.01095
0.01021
0.00168
-0.01339
-0.02542
-0.02469
-0.01240
0.00571
0.02740
0.05149
0.06315
0.05596
0.02545
-0.03051
-0.11349
-0.19740
-0.18019
-0.00418
0.21701
0.30779
0.19407
-0.02445
-0.17078
-0.18595
-0.11644
-0.03546
0.02550
0.05764
0.05926
0.04977
0.03412
0.01486
-0.00333
-0.01967
-0.02689
-0.02476
-0.01782
-0.00440
0.00045
0.00624
0.00809
0.00951
0.00721
0.00691
0.00460
-0.00286
-0.00247
-0.00430
-0.00224
-0.00431
-0.00465
-0.00243
-0.00038
0.00014
0.00153
0.00502
0.00652
0.00333
0.00220
-0.00102
-0.00218
-0.00388
-0.00656
-0.00451
-0.00117
0.00005
0.00121
0.00680
0.00621
0.00486
-0.00239
-0.00213
-0.00044
-0.00332
-0.00498
-0.00665
-0.00019
0.00463
0.00497
0.00403
0.00314
0.00360
-0.00029
-0.00421
-0.00602
-0.00368
-0.00516
-0.00876
-0.00074
0.01084
0.01359
0.00958
0.00559
-0.00528
-0.01451
-0.01272
0.00683
0.01969
0.01377
-0.00724
-0.02705
-0.03117
-0.02789
-0.01250
0.01447
0.04288
0.06161
0.06571
0.05550
0.02346
-0.04365
-0.14576
-0.23100
-0.17541
0.03679
0.26937
0.33618
0.17784
-0.06135
-0.20303
-0.19738
-0.11292
-0.02227
0.03445
0.06148
0.06534
0.05534
0.03571
0.00875
-0.01115
-0.01883
-0.02308
-0.02686
-0.01999
-0.00985
0.00313
0.00630
0.00934
0.01165
0.01047
0.01029
0.00214
-0.00066
-0.00681
-0.00716
-0.00651
-0.00452
-0.00030
-0.00050
-0.00061
0.00211
0.00328
0.00348
0.00285
0.00446
0.00294
0.00012
-0.00331
-0.00761
-0.00537
-0.00610
-0.00037
0.00173
0.00647
0.01008
0.00640
-0.00266
-0.00366
-0.00189
-0.00553
-0.00578
-0.00354
0.00065
0.00477
0.00543
0.00600
0.00436
-0.00046
-0.00276
-0.00396
-0.00287
-0.00408
-0.00496
-0.01024
-0.00288
0.00884
0.01457
0.01453
0.00749
-0.00463
-0.01250
-0.01089
0.00185
0.01440
0.00769
-0.00785
-0.02097
-0.02697
-0.02495
-0.01303
0.01024
0.04118
0.06474
0.07313
0.05946
0.02068
-0.05049
-0.16079
-0.24429
-0.17279
0.05875
0.28911
0.34236
0.17344
-0.07722
-0.21603
-0.20210
-0.10859
-0.01799
0.03791
0.06248
0.06604
0.05952
0.03746
0.00977
-0.01372
-0.02567
-0.02925
-0.02442
-0.01507
-0.00595
-0.00123
0.00738
0.01372
0.01276
0.01000
0.00513
-0.00217
-0.00490
-0.00154
-0.00201
-0.00186
-0.00262
-0.00640
-0.00574
0.00104
0.00322
0.00364
0.00314
0.00163
0.00242
0.00482
0.00471
-0.00016
-0.00581
-0.00921
-0.00903
-0.00782
0.00181
0.00889
0.01002
0.01006
0.00270
-0.00195
-0.00601
-0.00414
-0.00656
-0.00723
-0.00147
0.00304
0.00752
0.00598
0.00512
0.00198
0.00001
-0.00322
-0.00393
-0.00553
-0.01190
-0.01050
0.00017
0.01300
0.01944
0.01510
0.00427
-0.01127
-0.01928
-0.01014
0.01287
0.02079
0.00517
-0.01355
-0.03204
-0.03180
-0.01839
-0.00210
0.02523
0.05106
0.06211
0.06307
0.04432
0.00027
-0.07646
-0.17989
-0.22516
-0.10853
0.12735
0.31165
0.29086
0.08864
-0.12040
-0.21143
-0.16883
-0.07925
-0.00021
0.04972
0.06426
0.05978
0.04557
0.02443
0.00385
-0.01173
-0.02005
-0.02380
-0.02491
-0.01667
-0.00619
0.00324
0.00582
0.01004
0.01208
0.01189
0.00663
0.00131
-0.00229
-0.00506
-0.00602
-0.00692
-0.00216
-0.00367
-0.00435
0.00164
0.00560
0.00482
0.00574
0.00173
0.00026
0.00068
-0.00099
-0.00538
-0.00249
-0.00121
-0.00469
-0.00229
0.00088
0.00600
0.00804
0.00320
-0.00286
-0.00187
-0.00408
-0.00054
-0.00237
-0.00220
-0.00050
0.00149
0.00313
0.00372
0.00789
0.00083
-0.00238
-0.00561
-0.00848
-0.00434
-0.00815
-0.00358
0.00822
0.01258
0.01558
0.00912
-0.00146
-0.01523
-0.01477
-0.00091
0.01476
0.01285
-0.00126
-0.01933
-0.02998
-0.02407
-0.01365
0.00609
0.03301
0.05770
0.06517
0.06101
0.02812
-0.02913
-0.12467
-0.22376
-0.19411
-0.00252
0.23461
0.34212
0.21944
-0.02999
-0.19694
-0.20760
-0.12794
-0.03195
0.03085
0.06318
0.06696
0.05521
0.03657
0.01117
-0.00796
-0.01906
-0.02439
-0.02812
-0.01831
-0.00916
0.00350
0.00701
0.00868
0.01103
0.00724
0.00424
0.00364
0.00050
-0.00132
-0.00177
-0.00621
-0.00556
-0.00384
-0.00092
-0.00150
-0.00024
-0.00003
0.00327
0.00559
0.00577
0.00433
0.00482
-0.00258
-0.00785
-0.00816
-0.00760
-0.00399
0.00101
0.00996
0.00833
0.00463
-0.00053
-0.00216
-0.00380
-0.00303
-0.00140
-0.00262
-0.00089
0.00069
0.00331
0.00385
0.00429
0.00197
-0.00014
-0.00408
-0.00617
-0.00310
-0.00619
-0.00753
0.00059
0.01380
0.01578
0.00618
-0.00001
-0.00547
-0.01117
-0.00922
0.00619
0.01965
0.00522
-0.01157
-0.02150
-0.03191
-0.02650
-0.00614
0.02028
0.04744
0.06731
0.06822
0.04815
0.00518
-0.06804
-0.17684
-0.23995
-0.13242
0.11597
0.31927
0.31583
0.10883
-0.12023
-0.22011
-0.17933
-0.08486
-0.00789
0.04618
0.06676
0.06692
0.05349
0.02803
0.00342
-0.01153
-0.02258
-0.03115
-0.02682
-0.01440
-0.00435
0.00340
0.00517
0.00773
0.01469
0.01405
0.00910
-0.00368
-0.00411
-0.00065
-0.00291
-0.00647
-0.00765
-0.00447
-0.00411
0.00111
0.00079
0.00698
0.00807
0.00613
0.00403
-0.00144
-0.00301
-0.00387
-0.01055
-0.00316
0.00230
-0.00081
0.00088
0.00141
0.00805
0.00238
0.00114
-0.00224
-0.00062
-0.00141
-0.00322
-0.00400
-0.00264
0.00293
0.00407
0.00334
0.00266
0.00533
-0.00118
-0.00800
-0.00750
-0.00574
-0.00566
0.00113
0.01042
0.01475
0.00861
-0.00080
-0.00942
-0.00901
-0.00328
0.01096
0.01559
0.00146
-0.01478
-0.02881
-0.02918
-0.01851
0.00036
0.02575
0.04481
0.06291
0.06548
0.03981
-0.00446
-0.07882
-0.18038
-0.21989
-0.09384
0.13418
0.32011
0.29081
0.06202
-0.14701
-0.21356
-0.15545
-0.06316
0.00854
0.05250
0.06558
0.05918
0.04086
0.02089
0.00170
-0.01806
-0.02520
-0.02478
-0.01786
-0.01162
-0.00377
0.00410
0.01000
0.00935
0.00643
0.00816
0.00420
0.00168
-0.00035
-0.00046
-0.00536
-0.00926
-0.00406
-0.00408
-0.00074
0.00171
0.00252
0.00223
0.00539
0.00685
0.00129
0.00266
0.00102
-0.00513
-0.00975
-0.00922
-0.00606
0.00366
0.00874
0.00797
0.00574
-0.00002
-0.00008
-0.00282
-0.00454
-0.00487
-0.00545
-0.00166
0.00496
0.00897
0.00435
0.00114
-0.00090
-0.00094
-0.00357
-0.00731
-0.00672
-0.00529
0.00154
0.00452
0.00660
0.01249
0.01366
-0.00035
-0.01337
-0.01443
-0.00094
0.01095
0.01099
0.00072
-0.01416
-0.02167
-0.02801
-0.01901
-0.00056
0.02682
0.05244
0.06793
0.06686
0.03849
-0.01797
-0.10522
-0.21493
-0.22317
-0.04629
0.20917
0.35571
0.25424
0.00006
-0.19046
-0.21315
-0.13680
-0.04281
0.02033
0.05692
0.06936
0.05562
0.03842
0.01895
-0.00090
-0.01733
-0.02806
-0.02839
-0.02003
-0.01040
-0.00222
0.00270
0.01302
0.01369
0.01011
0.00816
0.00396
-0.00209
-0.00409
-0.00791
-0.00290
-0.00103
-0.00617
-0.00093
-0.00311
-0.00070
0.00454
0.00396
0.00648
0.00734
0.00090
-0.00372
-0.00153
-0.00393
-0.00605
-0.00672
-0.00462
0.00425
0.00860
0.00743
0.00103
-0.00096
0.00001
-0.00235
-0.00416
-0.00382
-0.00453
0.00002
0.00621
0.01081
0.00528
-0.00251
-0.00572
-0.00510
-0.00354
-0.00574
-0.00510
-0.00116
0.00620
0.00669
0.00841
0.01021
0.00502
-0.00557
-0.01467
-0.00998
0.00860
0.01391
0.00709
-0.00940
-0.02139
-0.02716
-0.02765
-0.00645
0.01553
0.04462
0.06601
0.06907
0.05533
0.00846
-0.06611
-0.17834
-0.24101
-0.13383
0.09882
0.31635
0.32908
0.11793
-0.11996
-0.22358
-0.18132
-0.08701
-0.00101
0.04808
0.06154
0.06340
0.04995
0.02830
0.00594
-0.01190
-0.02150
-0.02731
-0.02504
-0.01735
-0.00675
0.00394
0.00810
0.00975
0.01395
0.01143
0.00429
-0.00004
-0.00243
-0.00341
-0.00730
-0.00764
-0.00188
-0.00105
-0.00143
0.00256
0.00472
0.00089
-0.00024
0.00209
0.00126
0.00663
0.00519
-0.00606
-0.00850
-0.00449
-0.00332
-0.00400
0.00368
0.00744
0.00392
0.00300
0.00078
-0.00131
-0.00314
-0.00185
-0.00308
-0.00207
0.00406
0.00021
-0.00029
0.00317
0.00472
0.00094
-0.00340
-0.00615
-0.00749
-0.00541
-0.00101
0.00684
0.01055
0.01152
0.00345
-0.00238
-0.01096
-0.00952
0.00477
0.01740
0.01328
-0.01107
-0.03013
-0.03241
-0.02097
-0.00743
0.01647
0.03957
0.06069
0.06667
0.05648
0.01713
-0.04855
-0.14852
-0.23873
-0.17116
0.05685
0.29515
0.33816
0.14971
-0.08876
-0.20682
-0.18542
-0.10338
-0.01956
0.04168
0.06381
0.06221
0.05050
0.03339
0.01260
-0.01148
-0.02270
-0.02799
-0.02249
-0.01549
-0.01090
-0.00242
0.00994
0.01243
0.01098
0.00909
0.00639
0.00482
-0.00106
-0.00047
-0.00438
-0.01166
-0.00836
-0.00352
-0.00385
0.00189
0.00251
0.00688
0.01006
0.00682
0.00173
-0.00085
-0.00295
-0.00758
-0.00650
-0.00942
-0.00361
0.00231
0.00666
0.01149
0.00878
0.00427
-0.00334
-0.01013
-0.01094
-0.00626
0.00075
0.00674
0.00689
0.00790
0.00259
-0.00311
-0.00076
-0.00366
-0.00256
-0.00516
-0.00674
-0.00515
-0.00103
0.00666
0.01121
0.01334
0.00786
-0.00046
-0.01398
-0.01610
0.00037
0.01402
0.01239
-0.00031
-0.01481
-0.02593
-0.02795
-0.01653
0.00525
0.03040
0.05059
0.06307
0.05811
0.03005
-0.01885
-0.10185
-0.20037
-0.20288
-0.03453
0.20180
0.32608
0.22837
-0.00195
-0.17217
-0.20002
-0.12851
-0.04126
0.01937
0.05456
0.06543
0.05584
0.03372
0.01414
-0.00147
-0.01715
-0.02277
-0.02429
-0.01615
-0.01177
-0.00861
0.00380
0.00966
0.01453
0.01319
0.01061
0.00361
-0.00341
-0.00633
-0.00687
-0.00367
-0.00300
-0.00445
-0.00327
0.00295
0.00268
0.00146
-0.00130
0.00383
0.00809
0.00709
0.00145
-0.00683
-0.00715
-0.00807
-0.00461
-0.00183
0.00224
0.00825
0.00715
0.00201
-0.00047
-0.00177
-0.00107
-0.00089
-0.00234
-0.00242
-0.00233
-0.00166
0.00140
0.00516
0.00736
0.00184
-0.00282
-0.00125
-0.00445
-0.01238
-0.00888
0.00255
0.00965
0.01507
0.01063
0.00194
-0.00789
-0.01387
-0.00384
0.01304
0.01390
0.00067
-0.01543
-0.02563
-0.02595
-0.01883
-0.00307
0.01917
0.04543
0.06243
0.06354
0.04818
0.00667
-0.07038
-0.17889
-0.22954
-0.11822
0.11462
0.31217
0.30712
0.09963
-0.12438
-0.21750
-0.17404
-0.07819
0.00123
0.04678
0.06447
0.06428
0.04772
0.02634
0.00232
-0.01466
-0.02257
-0.02605
-0.02349
-0.01612
-0.00640
0.00329
0.01147
0.01246
0.01145
0.00912
0.00263
-0.00097
-0.00241
-0.00289
-0.00257
-0.00581
-0.00673
-0.00235
0.00108
-0.00201
0.00255
0.00292
0.00465
0.00548
0.00455
0.00408
-0.00175
-0.00578
-0.01079
-0.00782
-0.00493
0.00381
0.00861
0.00951
0.00430
-0.00108
-0.00198
-0.00449
-0.00239
-0.00125
-0.00189
-0.00262
0.00165
0.00293
0.00267
0.00491
0.00396
-0.00265
-0.00283
-0.00327
-0.00702
-0.00931
-0.00536
0.00660
0.01363
0.01538
0.00509
-0.00534
-0.01165
-0.01074
0.00300
0.01638
0.01472
-0.00160
-0.02103
-0.03290
-0.02832
-0.01696
0.00336
0.03065
0.05884
0.07275
0.06315
0.03204
-0.02294
-0.11334
-0.21736
-0.21010
-0.02804
0.21830
0.33895
0.22601
-0.00765
-0.17419
-0.19940
-0.12806
-0.04682
0.01993
0.05716
0.06161
0.05297
0.03497
0.01668
0.00143
-0.01432
-0.02413
-0.02484
-0.02282
-0.01009
-0.00165
0.00701
0.00987
0.00827
0.01080
0.00647
0.00250
-0.00337
-0.00529
-0.00411
-0.00091
-0.00028
0.00385
-0.00008
-0.00568
-0.00465
-0.00361
0.00207
0.00519
0.00402
0.00166
0.00352
0.00659
0.00222
-0.00857
-0.01313
-0.00742
0.00286
0.00483
0.00436
0.00626
0.00513
-0.00082
-0.00365
-0.00465
-0.00510
-0.00207
0.00165
0.00352
0.00342
0.00369
0.00237
0.00085
-0.00194
-0.00424
-0.00631
-0.00642
-0.00464
0.00000
0.00684
0.01171
0.01175
0.00158
-0.00701
-0.01066
-0.00650
0.01038
0.01645
0.00893
-0.00731
-0.02511
-0.03205
-0.02752
-0.01219
0.01142
0.03529
0.05866
0.06936
0.06125
0.02743
-0.03482
-0.12920
-0.22065
-0.18878
-0.00126
0.23286
0.33264
0.21025
-0.02181
-0.18514
-0.20227
-0.12388
-0.03822
0.02414
0.05767
0.06461
0.05598
0.03851
0.01672
-0.00561
-0.01966
-0.02705
-0.02478
-0.01798
-0.00984
-0.00357
0.00686
0.01108
0.00936
0.01059
0.00738
0.00412
0.00073
-0.00402
-0.00604
-0.00489
-0.00448
-0.00341
-0.00043
-0.00018
-0.00343
0.00033
0.00434
0.00757
0.00813
0.00318
0.00069
-0.00246
-0.00665
-0.00965
-0.00834
-0.00348
0.00415
0.00932
0.00676
0.00472
0.00258
-0.00362
-0.00412
-0.00280
-0.00318
-0.00241
-0.00050
0.00154
0.00281
0.00653
0.00258
-0.00137
-0.00093
-0.00284
-0.00486
-0.00876
-0.00390
0.00220
0.00543
0.01210
0.01206
0.00339
-0.01051
-0.01479
-0.00481
0.01113
0.01743
0.00662
-0.00897
-0.02367
-0.03069
-0.02397
-0.00631
0.01402
0.03855
0.05900
0.06383
0.05286
0.01451
-0.05137
-0.15200
-0.22187
-0.14172
0.07217
0.27678
0.29895
0.12633
-0.08646
-0.19307
-0.16815
-0.08786
-0.01220
0.03575
0.05532
0.05775
0.04692
0.02821
0.01200
-0.00673
-0.02068
-0.02686
-0.02548
-0.01564
-0.00520
-0.00006
0.00681
0.01201
0.01207
0.00847
0.00515
0.00109
-0.00107
-0.00321
-0.00697
-0.00509
-0.00322
-0.00058
-0.00383
-0.00078
0.00223
0.00508
0.00516
0.00099
0.00335
0.00434
-0.00055
-0.00527
-0.00545
-0.00930
-0.00442
0.00450
0.00658
0.00540
0.00249
0.00034
-0.00151
-0.00094
-0.00199
-0.00310
-0.00062
0.00045
-0.00185
-0.00119
0.00413
0.00605
0.00540
-0.00000
-0.00375
-0.00595
-0.00735
-0.00655
-0.00338
0.00293
0.00772
0.00926
0.00914
0.00719
-0.00161
-0.01206
-0.01168
0.00288
0.01284
0.00767
-0.00820
-0.01695
-0.02327
-0.02395
-0.01079
0.00984
0.03901
0.05886
0.06215
0.04763
0.01416
-0.04326
-0.13756
-0.21046
-0.15314
0.04366
0.25550
0.30870
0.15344
-0.06753
-0.19053
-0.17995
-0.09980
-0.01766
0.03431
0.05524
0.06254
0.05367
0.02929
0.00582
-0.00999
-0.01877
-0.02310
-0.02148
-0.01474
-0.00811
-0.00146
0.00594
0.00833
0.00831
0.00664
0.00814
0.00755
0.00430
-0.00140
-0.00728
-0.00890
-0.00695
-0.00577
-0.00585
-0.00106
0.00347
0.01048
0.00980
0.00527
0.00253
-0.00112
-0.00412
-0.00658
-0.00670
-0.00514
-0.00311
-0.00040
0.00494
0.00858
0.00621
0.00322
-0.00030
-0.00355
-0.00348
-0.00384
-0.00585
-0.00242
0.00272
0.00416
0.00364
0.00226
0.00369
0.00191
-0.00119
-0.00389
-0.00507
-0.00821
-0.00593
-0.00007
0.00488
0.00954
0.01232
0.00650
-0.00346
-0.00923
-0.00896
0.00215
0.01202
0.01132
-0.00498
-0.02018
-0.02555
-0.02224
-0.01441
0.00270
0.03161
0.05804
0.06563
0.05364
0.02454
-0.02930
-0.11912
-0.20289
-0.17611
-0.00099
0.21841
0.30709
0.19010
-0.02307
-0.16794
-0.18406
-0.11589
-0.03590
0.02349
0.05102
0.05989
0.05376
0.03462
0.01459
-0.00506
-0.01630
-0.02189
-0.02414
-0.02046
-0.01146
-0.00142
0.00466
0.00891
0.01305
0.01325
0.00974
0.00288
-0.00476
-0.00717
-0.00499
-0.00543
-0.00335
0.00006
0.00002
-0.00076
-0.00053
0.00106
0.00458
0.00395
0.00331
0.00376
0.00060
-0.00261
-0.00647
-0.00563
-0.00238
-0.00182
-0.00293
0.00222
0.00993
0.00799
0.00223
-0.00157
-0.00473
-0.00487
-0.00414
-0.00323
0.00153
0.00441
0.00167
0.00047
0.00249
0.00308
-0.00048
-0.00211
-0.00158
0.00015
-0.00164
-0.00931
-0.00948
-0.00033
0.01041
0.01718
0.01380
0.00046
-0.01270
-0.01466
-0.00244
0.01322
0.01387
-0.00440
-0.02005
-0.02464
-0.02289
-0.01182
0.00886
0.03265
0.05113
0.05768
0.04888
0.02051
-0.02784
-0.10959
-0.19082
-0.16349
0.00176
0.20175
0.28937
0.18587
-0.01948
-0.16295
-0.18130
-0.11560
-0.03421
0.02620
0.05809
0.06374
0.04872
0.02881
0.01030
-0.00664
-0.01714
-0.02343
-0.02450
-0.01813
-0.00786
0.00297
0.00989
0.01083
0.01015
0.00727
0.00363
-0.00071
-0.00446
-0.00401
-0.00129
-0.00185
-0.00324
-0.00115
0.00165
-0.00034
-0.00236
0.00033
0.00250
0.00277
0.00324
0.00384
0.00156
-0.00351
-0.00547
-0.00378
-0.00214
-0.00192
0.00106
0.00579
0.00526
0.00089
-0.00354
-0.00207
0.00218
0.00084
-0.00231
-0.00099
0.00084
-0.00175
-0.00509
0.00001
0.00764
0.00628
0.00047
0.00037
-0.00166
-0.00660
-0.00974
-0.00743
0.00188
0.00722
0.01042
0.01085
0.00476
-0.00490
-0.01135
-0.00803
0.00736
0.01463
0.00567
-0.00950
-0.02202
-0.02627
-0.02148
-0.00530
0.01659
0.03730
0.05282
0.05945
0.04653
0.01127
-0.05467
-0.14789
-0.20033
-0.11906
0.08064
0.25541
0.26586
0.10981
-0.08095
-0.17783
-0.15882
-0.08115
-0.00686
0.03469
0.05263
0.05512
0.04500
0.02541
0.00520
-0.00900
-0.01652
-0.01960
-0.02244
-0.01870
-0.00892
0.00068
0.00677
0.01087
0.01366
0.01164
0.00609
-0.00145
-0.00517
-0.00171
-0.00227
-0.00398
-0.00585
-0.00867
-0.00373
0.00110
0.00475
0.00699
0.00787
0.00690
0.00372
0.00014
-0.00685
-0.00893
-0.00865
-0.00689
-0.00044
0.00433
0.00612
0.00876
0.00821
0.00162
-0.00322
-0.00488
-0.00368
-0.00234
-0.00392
-0.00368
-0.00212
0.00060
0.00403
0.00549
0.00697
0.00571
0.00127
-0.00146
-0.00250
-0.00644
-0.01020
-0.01042
-0.00629
0.00031
0.00952
0.01838
0.01829
0.00879
-0.00702
-0.01852
-0.01691
-0.00505
0.01047
0.01668
0.00665
-0.00744
-0.01973
-0.02543
-0.01877
-0.00366
0.01631
0.03808
0.05508
0.06081
0.04287
-0.00329
-0.07713
-0.16410
-0.19010
-0.07915
0.12706
0.27584
0.24267
0.05789
-0.12078
-0.18037
-0.13580
-0.06129
0.00263
0.04164
0.05541
0.05208
0.03706
0.02164
0.00659
-0.00882
-0.02229
-0.02607
-0.01887
-0.01285
-0.00783
0.00171
0.00959
0.01289
0.00947
0.00756
0.00808
0.00173
-0.00604
-0.00777
-0.00375
-0.00201
-0.00312
-0.00507
-0.00320
0.00235
0.00400
0.00427
0.00550
0.00503
0.00240
-0.00028
-0.00353
-0.00759
-0.00758
-0.00313
0.00133
0.00435
0.00447
0.00295
0.00078
-0.00117
-0.00000
0.00197
0.00200
-0.00033
-0.00312
-0.00446
-0.00491
-0.00240
0.00272
0.00275
0.00252
0.00439
0.00327
0.00159
-0.00058
-0.00060
-0.00055
-0.00491
-0.00795
-0.00655
-0.00258
0.00154
0.00557
0.01099
0.01142
0.00493
-0.00534
-0.01105
-0.00550
0.00651
0.01398
0.00705
-0.01075
-0.02567
-0.02949
-0.02276
-0.00569
0.01661
0.03654
0.05474
0.06610
0.05903
0.02435
-0.04805
-0.15136
-0.22431
-0.16401
0.04109
0.26209
0.32510
0.17292
-0.05878
-0.19699
-0.19264
-0.11094
-0.02617
0.03223
0.06456
0.06784
0.05003
0.02816
0.00944
-0.00288
-0.01508
-0.02598
-0.02640
-0.01868
-0.01066
-0.00260
0.00608
0.01185
0.01228
0.01059
0.00794
0.00296
-0.00099
-0.00353
-0.00474
-0.00507
-0.00518
-0.00574
-0.00480
-0.00022
0.00284
0.00434
0.00671
0.00734
0.00594
0.00213
-0.00456
-0.00948
-0.00906
-0.00314
0.00003
0.00130
0.00424
0.00502
0.00348
0.00052
0.00041
0.00087
-0.00076
-0.00235
-0.00195
-0.00259
-0.00225
0.00123
0.00017
-0.00303
-0.00088
0.00407
0.00674
0.00443
-0.00056
-0.00350
-0.00197
0.00155
-0.00014
-0.00655
-0.00706
-0.00102
0.00204
-0.00022
0.00180
0.00977
0.01230
0.00408
-0.01028
-0.01193
-0.00267
0.00936
0.01440
0.00513
-0.00920
-0.02527
-0.03072
-0.02175
-0.00431
0.01876
0.04227
0.05998
0.06512
0.04745
0.00280
-0.07273
-0.16542
-0.20522
-0.10380
0.10889
0.27954
0.26963
0.08529
-0.10883
-0.18578
-0.14935
-0.07289
-0.00637
0.03787
0.05633
0.05698
0.04249
0.02445
0.00867
-0.01000
-0.02179
-0.02340
-0.02131
-0.01484
-0.00927
-0.00129
0.00988
0.01419
0.01155
0.00813
0.00447
0.00174
-0.00128
-0.00546
-0.00528
-0.00469
-0.00464
-0.00278
0.00034
0.00000
-0.00142
0.00149
0.00607
0.00734
0.00464
0.00240
-0.00039
-0.00446
-0.00673
-0.00736
-0.00601
0.00065
0.00401
0.00306
0.00328
0.00350
0.00243
0.00046
0.00284
0.00523
-0.00164
-0.01134
-0.01078
-0.00464
0.00175
0.00538
0.00622
0.00652
0.00383
0.00047
-0.00105
-0.00074
-0.00091
-0.00370
-0.00608
-0.00477
-0.00418
-0.00361
0.00190
0.00727
0.01127
0.01406
0.00602
-0.00795
-0.01590
-0.01043
0.00465
0.01529
0.00978
-0.00676
-0.02166
-0.02792
-0.02124
-0.00548
0.01571
0.03793
0.05664
0.06334
0.04828
0.00421
-0.06601
-0.15565
-0.20038
-0.11025
0.09296
0.26873
0.27200
0.10048
-0.09992
-0.18700
-0.15437
-0.07781
-0.00702
0.03795
0.05644
0.05716
0.04568
0.02790
0.00765
-0.01230
-0.02521
-0.02494
-0.02080
-0.01555
-0.00593
0.00286
0.01024
0.01383
0.00973
0.00555
0.00430
-0.00008
-0.00257
-0.00378
-0.00328
-0.00232
-0.00345
-0.00547
-0.00205
0.00214
-0.00002
0.00210
0.00515
0.00599
0.00475
0.00063
-0.00266
-0.00331
-0.00485
-0.00614
-0.00384
-0.00112
0.00093
0.00318
0.00704
0.00935
0.00476
-0.00310
-0.00646
-0.00475
-0.00424
-0.00208
-0.00067
-0.00087
0.00264
0.00399
0.00360
0.00293
-0.00012
-0.00176
-0.00140
-0.00013
0.00318
0.00040
-0.00418
-0.00581
-0.00488
-0.00433
-0.00007
0.00517
0.00802
0.01067
0.00613
-0.00024
-0.00783
-0.01026
-0.00013
0.01266
0.01056
-0.00395
-0.01960
-0.02743
-0.02407
-0.01354
0.00289
0.02754
0.05432
0.07128
0.06782
0.03592
-0.02694
-0.12800
-0.22082
-0.19823
-0.01871
0.22215
0.33926
0.22732
-0.01009
-0.18218
-0.20420
-0.13239
-0.04663
0.02013
0.05947
0.06710
0.05880
0.04196
0.01878
-0.00282
-0.02330
-0.03027
-0.02700
-0.02097
-0.01115
0.00165
0.01049
0.01082
0.00996
0.00720
0.00595
0.00690
0.00456
-0.00357
-0.00871
-0.00902
-0.00984
-0.00437
0.00096
0.00459
0.00655
0.00305
0.00019
0.00156
0.00397
0.00334
0.00104
-0.00175
-0.00606
-0.00856
-0.00720
-0.00124
0.00564
0.00495
0.00287
0.00587
0.00431
0.00033
-0.00308
-0.00311
-0.00249
-0.00476
-0.00278
0.00026
0.00177
0.00026
-0.00163
0.00101
0.00585
0.00521
0.00425
0.00391
-0.00043
-0.00771
-0.01210
-0.01246
-0.00388
0.00438
0.00691
0.01088
0.01263
0.00808
-0.00430
-0.01014
-0.00880
0.00403
0.01379
0.00559
-0.01161
-0.02161
-0.02134
-0.01981
-0.01037
0.01004
0.03370
0.05070
0.05945
0.05210
0.02341
-0.03417
-0.12095
-0.19889
-0.16393
0.01369
0.22081
0.29812
0.17187
-0.03483
-0.16958
-0.17659
-0.10582
-0.03055
0.02491
0.05570
0.06018
0.04676
0.03088
0.01181
-0.00462
-0.01672
-0.02505
-0.02539
-0.01656
-0.00609
0.00150
0.00809
0.01037
0.00813
0.00440
0.00375
0.00578
0.00124
-0.00463
-0.00551
-0.00317
-0.00175
-0.00331
-0.00190
-0.00192
0.00046
0.00359
0.00273
0.00370
0.00292
0.00093
0.00152
0.00134
-0.00437
-0.00620
-0.00458
-0.00450
-0.00072
0.00469
0.00606
0.00502
0.00564
0.00156
-0.00499
-0.00728
-0.00362
-0.00146
0.00183
0.00120
-0.00084
0.00076
0.00230
0.00282
0.00250
0.00083
-0.00050
-0.00013
-0.00226
-0.00117
-0.00348
-0.00699
-0.00638
0.00001
0.00501
0.01048
0.01161
0.00825
-0.00239
-0.01238
-0.00963
0.00339
0.01498
0.00903
-0.00794
-0.02475
-0.03028
-0.02673
-0.00907
0.01691
0.04381
0.06266
0.06884
0.05614
0.01641
-0.05752
-0.16358
-0.23393
-0.15274
0.07136
0.28733
0.32418
0.14871
-0.08338
-0.20974
-0.18867
-0.10048
-0.01410
0.04131
0.06143
0.06228
0.05069
0.03115
0.00950
-0.00754
-0.01887
-0.02613
-0.02867
-0.02038
-0.00726
0.00256
0.00924
0.01112
0.01293
0.00937
0.00517
0.00133
-0.00123
-0.00366
-0.00694
-0.00564
-0.00363
-0.00205
-0.00088
-0.00109
0.00014
0.00577
0.00617
0.00424
0.00133
0.00027
-0.00033
-0.00360
-0.00452
-0.00297
-0.00720
-0.00490
0.00349
0.00840
0.00920
0.00630
-0.00163
-0.00460
-0.00356
-0.00510
-0.00204
0.00014
0.00095
-0.00256
-0.00087
0.00562
0.00778
0.00021
-0.00357
-0.00268
0.00061
0.00234
-0.00032
-0.00116
0.00012
-0.00542
-0.00982
-0.00413
0.00413
0.01128
0.01150
0.00861
0.00032
-0.00849
-0.01396
-0.00618
0.01104
0.01596
0.00448
-0.01272
-0.02448
-0.02638
-0.02235
-0.00307
0.02305
0.04997
0.06491
0.06232
0.04115
-0.01417
-0.09536
-0.18837
-0.20269
-0.05643
0.16952
0.30682
0.24330
0.02957
-0.15240
-0.19653
-0.13456
-0.04924
0.01255
0.04628
0.05921
0.05578
0.04119
0.02143
-0.00096
-0.01745
-0.02561
-0.02355
-0.01981
-0.01114
-0.00056
0.00298
0.00795
0.01072
0.01163
0.00921
0.00083
-0.00285
-0.00360
-0.00062
-0.00129
-0.00447
-0.00390
-0.00364
-0.00188
-0.00367
0.00213
0.00690
0.00453
0.00361
0.00282
0.00289
0.00100
-0.00463
-0.00916
-0.00632
-0.00446
-0.00017
0.00612
0.00723
0.00507
0.00128
-0.00050
-0.00270
-0.00150
0.00036
-0.00294
-0.00281
0.00066
0.00026
-0.00309
-0.00098
0.00238
0.00347
0.00547
0.00415
0.00137
-0.00029
-0.00392
-0.00775
-0.00864
-0.00859
-0.00244
0.00840
0.01191
0.01428
0.00518
-0.00486
-0.00593
-0.00687
0.00034
0.00870
0.01020
-0.00421
-0.01958
-0.02908
-0.02505
-0.01161
0.00760
0.03320
0.05388
0.06694
0.05985
0.02968
-0.02873
-0.12318
-0.21725
-0.19269
-0.00442
0.22482
0.33096
0.21500
-0.02067
-0.18236
-0.20231
-0.12697
-0.03791
0.02600
0.05700
0.06508
0.05489
0.03818
0.01770
-0.00408
-0.01914
-0.02640
-0.02630
-0.02080
-0.01272
-0.00287
0.00765
0.01252
0.01344
0.01097
0.00880
0.00179
-0.00197
-0.00576
-0.00508
-0.00393
-0.00594
-0.00277
0.00093
0.00013
-0.00177
0.00050
0.00442
0.00633
0.00358
0.00315
0.00097
-0.00020
-0.00540
-0.01055
-0.00359
0.00015
0.00130
0.00124
0.00251
0.00642
0.00420
0.00145
-0.00242
-0.00273
-0.00070
-0.00099
-0.00260
-0.00283
-0.00188
-0.00059
0.00101
0.00232
0.00334
0.00369
0.00334
0.00220
0.00035
-0.00177
-0.00384
-0.00613
-0.01073
-0.01029
0.00002
0.01192
0.01779
0.00954
0.00460
0.00062
-0.00872
-0.01610
-0.01129
0.01028
0.01745
0.00311
-0.01136
-0.01928
-0.02183
-0.01893
-0.00314
0.01858
0.04342
0.06147
0.05815
0.03805
-0.00836
-0.08576
-0.18175
-0.20135
-0.06222
0.16667
0.30586
0.23645
0.02784
-0.14939
-0.19161
-0.13412
-0.04961
0.01289
0.04628
0.05943
0.05644
0.04159
0.01910
-0.00196
-0.01740
-0.02568
-0.02544
-0.01734
-0.00974
-0.00156
0.00553
0.01031
0.00776
0.00463
0.00822
0.00709
-0.00039
-0.00252
-0.00318
-0.00268
-0.00317
-0.00645
-0.00224
-0.00440
-0.00230
0.00200
0.00560
0.01036
0.00816
0.00196
-0.00304
-0.00518
-0.00813
-0.00609
-0.00242
0.00067
0.00397
0.00344
0.00246
0.00339
0.00047
0.00079
0.00165
-0.00269
-0.00182
-0.00534
-0.00441
0.00272
0.00108
0.00130
0.00088
0.00177
0.00143
0.00181
0.00049
0.00080
0.00198
0.00017
-0.00351
-0.00776
-0.00726
-0.00360
0.00087
0.00463
0.00962
0.01020
0.00779
-0.00052
-0.00893
-0.01244
-0.00176
0.01354
0.01328
-0.00182
-0.01638
-0.02765
-0.03124
-0.01672
0.00651
0.02986
0.05611
0.06960
0.06417
0.03399
-0.02750
-0.12077
-0.21843
-0.20067
-0.01643
0.22251
0.33670
0.22492
-0.01498
-0.18263
-0.20673
-0.13085
-0.03632
0.02716
0.05648
0.06361
0.05512
0.03910
0.01778
-0.00560
-0.02220
-0.02723
-0.02160
-0.02219
-0.01135
0.00125
0.01092
0.01095
0.00803
0.00975
0.00490
0.00166
-0.00150
-0.00199
-0.00339
-0.00524
-0.00411
-0.00244
0.00222
0.00128
-0.00210
-0.00137
-0.00155
0.00116
0.00691
0.00630
0.00318
0.00252
-0.00165
-0.00820
-0.00860
-0.00377
-0.00158
0.00015
0.00426
0.00557
0.00440
0.00503
0.00079
-0.00110
-0.00319
-0.00256
-0.00477
-0.00562
-0.00072
0.00465
0.00499
0.00056
0.00083
-0.00360
-0.00358
0.00164
0.00593
0.00526
0.00345
0.00194
-0.00512
-0.01074
-0.01053
-0.00734
-0.00206
0.00670
0.01580
0.01278
0.00841
0.00168
-0.00909
-0.01577
-0.00825
0.00976
0.01382
0.00734
-0.00950
-0.02438
-0.02892
-0.02260
-0.00571
0.01688
0.04539
0.06579
0.07213
0.05525
0.00550
-0.07773
-0.19475
-0.24638
-0.11634
0.13947
0.33387
0.31237
0.09064
-0.14283
-0.22538
-0.17346
-0.07856
0.00145
0.05056
0.07016
0.07014
0.05046
0.02438
0.00175
-0.02311
-0.03125
-0.02603
-0.01828
-0.00746
-0.00275
0.00205
0.00829
0.00829
0.01083
0.00918
0.00480
-0.00064
-0.00679
-0.00444
0.00002
-0.00034
-0.00336
-0.00397
-0.00220
-0.00033
0.00212
0.00067
-0.00030
0.00483
0.00516
0.00121
0.00164
0.00212
-0.00267
-0.00508
-0.01153
-0.00703
0.00471
0.00600
0.00410
0.00305
0.00549
0.00421
-0.00192
-0.00525
-0.00552
-0.00366
-0.00011
-0.00029
0.00001
0.00100
0.00164
0.00264
0.00266
0.00279
0.00153
0.00039
-0.00208
-0.00380
-0.00097
-0.00607
-0.00527
-0.00118
-0.00048
0.00337
0.01138
0.01146
0.00384
-0.00537
-0.01186
-0.00741
0.00414
0.01674
0.01027
-0.00328
-0.02271
-0.02879
-0.02535
-0.01133
0.01053
0.02650
0.04983
0.06387
0.06170
0.02899
-0.02677
-0.11000
-0.20455
-0.19149
-0.01862
0.21088
0.32418
0.21477
-0.01813
-0.17940
-0.19152
-0.11986
-0.03870
0.02340
0.05463
0.06453
0.05387
0.03228
0.01796
-0.00510
-0.02133
-0.02580
-0.02196
-0.01829
-0.01037
0.00262
0.00562
0.01082
0.00975
0.00623
0.00274
0.00368
0.00497
-0.00186
-0.00559
-0.00527
-0.00412
-0.00368
-0.00357
0.00017
-0.00189
0.00463
0.00526
0.00442
0.00222
0.00277
0.00074
-0.00488
0.00062
-0.00337
-0.00641
-0.00710
0.00349
0.00239
0.00170
0.00212
0.00570
0.00607
-0.00274
-0.00329
0.00043
0.00124
-0.00491
-0.00558
-0.00443
0.00099
0.00256
0.00277
0.00384
0.00317
0.00311
0.00106
-0.00045
0.00126
-0.00093
-0.00877
-0.00917
-0.00351
-0.00407
0.00244
0.00746
0.00836
0.01492
0.00888
-0.00590
-0.01195
-0.01465
0.00218
0.01651
0.01514
-0.00474
-0.02850
-0.03340
-0.02645
-0.00389
0.01279
0.03682
0.05743
0.07003
0.06422
0.02885
-0.04466
-0.15363
-0.24977
-0.19016
0.04767
0.29261
0.35769
0.17579
-0.07616
-0.21657
-0.20191
-0.11243
-0.02204
0.04143
0.06607
0.06348
0.05428
0.03544
0.01414
-0.00863
-0.02442
-0.03155
-0.02623
-0.01503
-0.01131
0.00307
0.01053
0.01594
0.00855
0.00489
0.00526
0.00149
-0.00131
-0.00217
-0.00176
-0.00510
-0.00327
-0.00675
-0.00126
0.00273
0.00029
0.00095
0.00036
0.00263
0.00364
0.00670
0.00787
-0.00018
-0.01083
-0.01155
-0.00454
0.00297
0.00013
-0.00524
0.00686
0.00872
0.00544
0.00314
-0.00340
0.00069
0.00003
-0.00626
-0.00827
-0.00708
-0.00218
0.00539
0.00657
0.00521
0.00726
0.00135
-0.00170
0.00172
-0.00247
-0.01020
-0.01022
0.00230
0.00877
-0.00052
-0.00476
-0.00396
0.00131
0.01027
0.01079
0.00679
-0.00461
-0.01344
-0.00677
0.01160
0.01522
0.00055
-0.01515
-0.02556
-0.02589
-0.01672
-0.00233
0.01749
0.04351
0.06261
0.06373
0.04513
-0.00015
-0.07181
-0.16846
-0.21782
-0.10867
0.11378
0.29886
0.28975
0.09348
-0.12305
-0.20983
-0.16371
-0.07602
0.00155
0.04911
0.06917
0.06130
0.04423
0.01630
-0.00310
-0.01244
-0.02083
-0.02086
-0.02037
-0.00972
-0.00789
-0.00043
0.00995
0.00904
0.01103
0.00755
0.00388
0.00119
-0.00027
-0.00062
-0.00488
-0.00939
-0.00390
-0.00026
-0.00229
-0.00195
0.00300
0.00538
0.00305
0.00314
0.00359
0.00064
-0.00279
-0.00103
-0.00078
-0.00248
-0.00453
-0.00666
-0.00392
0.00588
0.00803
0.00495
0.00138
-0.00053
-0.00085
-0.00030
-0.00009
-0.00344
-0.00364
-0.00341
-0.00157
-0.00000
0.00198
0.00333
0.00418
0.00427
0.00320
0.00156
-0.00132
-0.00384
-0.00677
-0.00761
-0.00744
-0.00352
0.00213
0.01156
0.01131
0.01235
0.00638
-0.00855
-0.01160
-0.01364
0.00459
0.01817
0.00920
-0.00813
-0.02035
-0.02793
-0.02895
-0.01184
0.01374
0.04128
0.06387
0.06834
0.05897
0.02072
-0.05344
-0.16173
-0.24159
-0.16346
0.06950
0.29539
0.33317
0.15173
-0.09015
-0.21116
-0.18971
-0.10003
-0.01822
0.03984
0.06294
0.06649
0.05672
0.03122
0.00635
-0.01176
-0.02038
-0.02773
-0.02556
-0.02014
-0.00520
0.00299
0.00766
0.01070
0.01440
0.01121
0.00282
-0.00155
-0.00336
-0.00132
-0.00429
-0.00389
-0.00229
-0.00215
-0.00202
-0.00392
-0.00256
0.00314
0.00823
0.00644
0.00342
0.00278
-0.00046
-0.00248
-0.00842
-0.00492
-0.00414
-0.00281
0.00246
0.00214
0.00716
0.00570
0.00057
-0.00053
0.00168
-0.00073
-0.00681
-0.00485
-0.00170
0.00319
0.00312
-0.00110
-0.00087
-0.00025
-0.00044
-0.00061
0.00321
0.00667
0.00411
0.00115
-0.00216
-0.00505
-0.00670
-0.01144
-0.00811
-0.00193
0.00777
0.01407
0.01792
0.01330
-0.00293
-0.01836
-0.01600
0.00315
0.01652
0.01067
-0.00802
-0.01925
-0.03018
-0.03115
-0.01406
0.01585
0.04124
0.05833
0.07289
0.06857
0.02802
-0.04332
-0.15779
-0.25258
-0.18847
0.03617
0.28028
0.36425
0.19813
-0.06591
-0.21999
-0.21277
-0.11541
-0.02376
0.03779
0.06837
0.07157
0.05353
0.02821
0.00633
-0.00669
-0.01744
-0.02761
-0.02246
-0.01477
-0.00482
0.00186
-0.00070
0.00294
0.00867
0.01313
0.00694
0.00524
0.00170
-0.00401
-0.00365
-0.00463
-0.00140
-0.00151
0.00016
-0.00697
-0.00744
-0.00086
0.00490
0.00825
0.00618
0.00819
0.00332
-0.00311
-0.00604
-0.00898
-0.00510
0.00002
0.00053
0.00135
0.00012
0.00173
0.00415
0.00268
0.00249
-0.00125
0.00115
0.00238
-0.00288
-0.00510
-0.00644
-0.00363
0.00468
0.00444
-0.00090
0.00070
0.00173
0.00243
0.00017
0.00070
-0.00121
-0.00141
-0.00113
0.00154
0.00481
-0.00000
-0.00652
-0.00799
-0.00547
-0.00381
0.00380
0.01137
0.01423
0.00769
-0.00262
-0.00909
-0.01179
-0.00280
0.01114
0.01306
0.00362
-0.01354
-0.02583
-0.02534
-0.01679
0.00020
0.02008
0.03475
0.05248
0.06214
0.04692
0.01095
-0.05315
-0.15922
-0.22504
-0.13213
0.09714
0.29315
0.29486
0.10513
-0.10569
-0.19351
-0.16675
-0.08330
-0.01254
0.04132
0.06474
0.05800
0.04555
0.02275
0.00616
-0.00828
-0.01263
-0.01659
-0.02483
-0.02228
-0.01604
-0.00703
0.00275
0.01419
0.02320
0.02179
0.01244
-0.00449
-0.01380
-0.01496
-0.00255
0.00728
0.00620
0.00121
-0.01019
-0.01860
-0.01461
-0.00466
0.01268
0.03018
0.02653
0.01696
-0.00115
-0.01655
-0.02915
-0.03248
-0.01850
0.00166
0.01905
0.02288
0.02071
0.01906
0.00913
-0.00892
-0.02331
-0.02268
-0.01276
-0.00635
0.00551
0.01027
0.01327
0.01239
0.00826
0.00677
0.00034
-0.00811
-0.01402
-0.01361
-0.01407
-0.01145
-0.00452
0.00814
0.02115
0.02740
0.03216
0.02671
-0.00885
-0.04380
-0.05695
-0.03604
0.00498
0.02472
0.02619
0.01290
0.01283
0.01766
0.01454
0.00008
-0.01863
-0.02526
-0.02087
-0.00593
0.01445
0.02104
0.00112
-0.01597
-0.01977
-0.01359
-0.00777
0.00586
0.02539
0.04184
0.05280
0.04787
0.02250
-0.02142
-0.09292
-0.18382
-0.18849
-0.03443
0.19267
0.32199
0.23279
-0.00177
-0.17959
-0.20680
-0.13744
-0.04152
0.02966
0.06143
0.06623
0.05690
0.03984
0.01598
-0.00540
-0.02430
-0.02814
-0.02644
-0.01988
-0.00766
0.00306
0.00624
0.00655
0.01094
0.01339
0.00923
0.00043
-0.00318
-0.00405
-0.00462
-0.00314
-0.00265
-0.00277
0.00118
-0.00376
-0.00355
-0.00203
0.00136
0.01008
0.01069
0.00342
0.00187
-0.00430
-0.00894
-0.00355
-0.00363
-0.00366
-0.00421
0.00234
0.00621
0.00648
0.00332
0.00269
0.00022
-0.00159
-0.00174
-0.00593
-0.00362
-0.00054
0.00140
0.00073
0.00204
0.00193
0.00008
-0.00036
-0.00126
-0.00067
-0.00099
-0.00028
0.00245
0.00693
0.00544
-0.00034
-0.00526
-0.00683
-0.00842
-0.00971
-0.00709
0.00159
0.01484
0.02099
0.01714
0.00198
-0.00881
-0.01830
-0.01271
0.00475
0.01085
0.00356
-0.01103
-0.02237
-0.02559
-0.01615
0.00148
0.02882
0.05431
0.06715
0.06047
0.03199
-0.02144
-0.10650
-0.20917
-0.20943
-0.03761
0.19825
0.33274
0.24753
0.01958
-0.16664
-0.21329
-0.14982
-0.05550
0.01728
0.05616
0.06909
0.06361
0.04616
0.02102
-0.00710
-0.02183
-0.02550
-0.02768
-0.02225
-0.01137
0.00005
0.00662
0.01244
0.01284
0.00886
0.00352
0.00112
0.00099
-0.00180
-0.00376
-0.00448
-0.00371
-0.00280
-0.00164
-0.00152
0.00173
0.00081
0.00141
0.00121
0.00335
0.00397
0.00227
0.00415
-0.00230
-0.00474
-0.00693
-0.00592
-0.00454
-0.00175
0.00646
0.00869
0.00764
0.00376
-0.00082
-0.00403
-0.00686
-0.00534
0.00061
0.00357
0.00007
-0.00215
-0.00133
-0.00086
0.00102
0.00205
0.00381
0.00391
0.00386
0.00155
-0.00119
-0.00197
-0.00459
-0.00837
-0.01310
-0.00926
0.00134
0.01103
0.01876
0.02170
0.01102
-0.00784
-0.01743
-0.01821
-0.00064
0.01423
0.00868
-0.00708
-0.02620
-0.03027
-0.02397
-0.00058
0.02840
0.04938
0.06401
0.06814
0.05110
0.00133
-0.08624
-0.19716
-0.24076
-0.11072
0.14026
0.32836
0.30824
0.10051
-0.12163
-0.22394
-0.18620
-0.08983
-0.00583
0.04415
0.07025
0.07503
0.05768
0.02974
0.00259
-0.01606
-0.02765
-0.02846
-0.02675
-0.01970
-0.00824
0.00544
0.01556
0.01682
0.01170
0.00649
0.00324
-0.00032
-0.00522
-0.00697
-0.00525
0.00006
-0.00018
-0.00075
-0.00082
-0.00325
0.00055
0.00091
-0.00113
0.00251
0.00734
0.00634
0.00186
-0.00190
-0.00409
-0.00627
-0.00596
-0.00379
0.00091
0.00212
0.00212
0.00385
0.00429
0.00337
0.00225
-0.00121
-0.00290
-0.00176
-0.00269
-0.00346
-0.00375
-0.00355
0.00030
0.00176
0.00539
0.01014
0.00679
0.00053
-0.00277
-0.00136
-0.00645
-0.00953
-0.01025
-0.00863
-0.00094
0.01094
0.01706
0.01558
0.00901
-0.00387
-0.01326
-0.01189
0.00037
0.01081
0.00700
-0.00769
-0.02076
-0.02508
-0.02375
-0.00924
0.01697
0.04003
0.05918
0.06461
0.05340
0.01424
-0.05294
-0.15106
-0.21746
-0.14684
0.05243
0.25723
0.30869
0.16260
-0.06002
-0.19325
-0.18592
-0.10657
-0.02568
0.03137
0.05895
0.06405
0.05378
0.03468
0.01437
-0.00597
-0.02215
-0.03021
-0.02774
-0.01678
-0.00539
0.00155
0.00456
0.01055
0.01203
0.00762
0.00578
0.00422
0.00211
-0.00234
-0.00616
-0.00691
-0.00485
-0.00377
-0.00391
0.00164
0.00428
0.00038
0.00135
0.00374
0.00469
0.00420
0.00122
-0.00066
-0.00276
-0.00607
-0.00642
-0.00508
-0.00081
0.00360
0.00365
0.00434
0.00471
0.00296
-0.00014
-0.00239
-0.00384
0.00069
-0.00042
-0.00475
-0.00116
0.00165
-0.00085
-0.00471
-0.00155
0.00377
0.00863
0.00918
0.00804
0.00005
-0.00919
-0.01211
-0.01255
-0.00784
-0.00296
0.00293
0.01156
0.01748
0.01622
0.00496
-0.00748
-0.01485
-0.01085
0.00418
0.01036
0.00755
-0.00845
-0.02679
-0.03132
-0.02101
-0.00025
0.02336
0.04631
0.06593
0.07172
0.05007
0.00007
-0.08649
-0.19639
-0.23365
-0.10351
0.14036
0.32399
0.29773
0.08771
-0.12797
-0.21378
-0.17322
-0.08356
-0.00498
0.04619
0.06751
0.06677
0.05216
0.03060
0.00569
-0.01521
-0.02785
-0.03184
-0.02498
-0.01587
-0.00271
0.00512
0.00914
0.01344
0.01240
0.00812
0.00302
-0.00047
-0.00321
-0.00339
-0.00305
-0.00466
-0.00467
-0.00296
-0.00089
0.00094
0.00025
0.00183
0.00469
0.00473
0.00442
0.00045
-0.00245
-0.00035
-0.00198
-0.00435
-0.00532
-0.00502
-0.00150
0.00300
0.00731
0.00767
0.00283
-0.00188
-0.00197
-0.00069
-0.00016
-0.00317
-0.00552
-0.00283
0.00205
0.00093
-0.00104
0.00281
0.00425
0.00355
0.00275
0.00080
-0.00104
0.00014
-0.00260
-0.00607
-0.01065
-0.01086
-0.00380
0.00758
0.01873
0.02044
0.01079
-0.00737
-0.01576
-0.01147
0.00325
0.01281
0.00500
-0.01097
-0.02522
-0.03020
-0.02108
-0.00162
0.02270
0.04556
0.06452
0.07145
0.05103
0.00237
-0.07872
-0.18354
-0.22971
-0.11876
0.10841
0.30354
0.31353
0.12185
-0.10722
-0.21619
-0.18685
-0.09503
-0.00970
0.04649
0.07114
0.06587
0.04947
0.02927
0.00764
-0.01131
-0.02535
-0.02771
-0.02303
-0.01913
-0.00842
0.00360
0.01082
0.01199
0.00931
0.00919
0.00611
0.00272
-0.00190
-0.00488
-0.00425
-0.00305
-0.00466
-0.00726
-0.00256
0.00421
0.00326
-0.00032
0.00141
0.00334
0.00428
0.00353
0.00313
0.00207
-0.00263
-0.00786
-0.01088
-0.00636
-0.00060
0.00391
0.00629
0.00798
0.00644
0.00247
-0.00000
-0.00478
-0.00389
-0.00288
-0.00414
-0.00434
-0.00198
0.00046
0.00226
0.00632
0.00703
0.00502
0.00219
-0.00061
-0.00380
-0.00621
-0.00798
-0.00767
-0.00548
-0.00030
0.00698
0.01019
0.01358
0.01113
-0.00097
-0.01131
-0.01284
-0.00263
0.01118
0.01139
-0.00288
-0.01636
-0.02469
-0.02540
-0.01576
0.00479
0.03182
0.05385
0.06367
0.05915
0.03332
-0.02673
-0.12118
-0.20561
-0.18236
-0.01477
0.20442
0.31147
0.21290
-0.00112
-0.16377
-0.19232
-0.12803
-0.04665
0.01644
0.05168
0.06355
0.05778
0.03941
0.01668
-0.00089
-0.01536
-0.02762
-0.02776
-0.02032
-0.01249
-0.00090
0.00921
0.01133
0.00966
0.00666
0.00653
0.00451
0.00217
-0.00108
-0.00569
-0.00701
-0.00589
-0.00177
-0.00142
-0.00021
0.00075
0.00020
0.00117
0.00352
0.00507
0.00510
0.00347
-0.00101
-0.00362
-0.00537
-0.00473
-0.00439
-0.00439
-0.00150
0.00360
0.00701
0.00789
0.00689
0.00108
-0.00471
-0.00687
-0.00365
-0.00070
-0.00128
-0.00106
-0.00044
0.00013
0.00062
0.00069
0.00299
0.00712
0.00588
0.00141
-0.00069
-0.00549
-0.00941
-0.00975
-0.00778
-0.00353
0.00363
0.01266
0.01797
0.01485
0.00057
-0.01103
-0.01458
-0.00593
0.00872
0.01118
0.00009
-0.01474
-0.02435
-0.02635
-0.01728
0.00100
0.02676
0.05337
0.06812
0.06598
0.03892
-0.01750
-0.10698
-0.20581
-0.21174
-0.05655
0.18227
0.32943
0.26411
0.03961
-0.16193
-0.21575
-0.15390
-0.06081
0.01317
0.05617
0.07071
0.06095
0.04082
0.02017
0.00052
-0.01594
-0.02684
-0.02712
-0.02084
-0.01309
-0.00397
0.00427
0.01045
0.01166
0.01100
0.00932
0.00534
-0.00016
-0.00658
-0.00655
-0.00285
-0.00124
-0.00234
-0.00434
-0.00257
0.00026
0.00174
0.00195
0.00348
0.00620
0.00477
0.00115
-0.00037
-0.00289
-0.00443
-0.00502
-0.00692
-0.00424
0.00154
0.00442
0.00567
0.00664
0.00559
0.00316
-0.00323
-0.00625
-0.00402
-0.00458
-0.00366
-0.00170
0.00079
0.00353
0.00374
0.00369
0.00569
0.00457
0.00030
-0.00205
-0.00456
-0.00675
-0.00780
-0.00954
-0.00630
0.00450
0.01260
0.01686
0.01583
0.00245
-0.01255
-0.01572
-0.00496
0.01034
0.01225
-0.00119
-0.01622
-0.02426
-0.02512
-0.01788
0.00095
0.02747
0.05288
0.06741
0.06363
0.03631
-0.01933
-0.10572
-0.19624
-0.19877
-0.05238
0.17170
0.31109
0.25046
0.04144
-0.14905
-0.20512
-0.14897
-0.05899
0.01285
0.05163
0.06288
0.05749
0.04219
0.02113
0.00111
-0.01366
-0.02290
-0.02682
-0.02405
-0.01482
-0.00394
0.00373
0.01211
0.01565
0.00988
0.00556
0.00373
0.00019
-0.00213
-0.00566
-0.00580
-0.00300
-0.00299
-0.00361
-0.00289
0.00178
0.00513
0.00247
0.00092
0.00556
0.00559
0.00081
-0.00234
-0.00401
-0.00489
-0.00577
-0.00653
-0.00214
0.00572
0.00880
0.00680
0.00118
-0.00137
-0.00013
-0.00288
-0.00468
-0.00129
-0.00065
-0.00111
-0.00060
0.00275
0.00369
-0.00067
-0.00294
-0.00084
0.00312
0.00392
0.00172
-0.00078
-0.00062
0.00019
-0.00264
-0.00860
-0.00966
-0.00336
0.00512
0.01218
0.01420
0.00919
-0.00180
-0.01312
-0.01136
0.00319
0.01121
0.00835
-0.00145
-0.01661
-0.02824
-0.02783
-0.01451
0.00837
0.03463
0.05673
0.06856
0.05998
0.02548
-0.04044
-0.13775
-0.21467
-0.16765
0.02431
0.23726
0.30749
0.17837
-0.03484
-0.17712
-0.18609
-0.11177
-0.03185
0.02360
0.05353
0.06254
0.05483
0.03494
0.01186
-0.00591
-0.01722
-0.02301
-0.02370
-0.01888
-0.01083
-0.00242
0.00497
0.00983
0.01275
0.01115
0.00684
0.00248
-0.00030
-0.00338
-0.00716
-0.00442
-0.00101
-0.00239
-0.00424
-0.00161
0.00026
0.00050
0.00270
0.00595
0.00589
0.00371
0.00193
-0.00091
-0.00365
-0.00474
-0.00746
-0.00785
-0.00216
0.00211
0.00533
0.00653
0.00804
0.00587
0.00123
-0.00314
-0.00455
-0.00562
-0.00779
-0.00600
-0.00155
0.00361
0.00584
0.00601
0.00544
0.00504
0.00108
-0.00292
-0.00301
-0.00276
-0.00522
-0.00603
-0.00795
-0.00677
0.00179
0.01090
0.01494
0.01566
0.00775
-0.00888
-0.01658
-0.01183
0.00402
0.01440
0.00822
-0.00673
-0.02045
-0.02847
-0.02790
-0.01085
0.01835
0.04608
0.06534
0.07285
0.05648
0.00711
-0.07372
-0.17741
-0.23079
-0.13333
0.09766
0.30102
0.31782
0.13003
-0.10351
-0.21423
-0.18680
-0.09486
-0.01051
0.04437
0.06642
0.06674
0.05173
0.02838
0.00659
-0.01076
-0.02281
-0.02863
-0.02443
-0.01483
-0.00664
-0.00068
0.00589
0.01045
0.01503
0.01239
0.00654
0.00171
-0.00241
-0.00732
-0.00806
-0.00302
-0.00263
-0.00152
0.00021
-0.00156
-0.00145
0.00047
0.00346
0.00588
0.00664
0.00595
0.00239
-0.00417
-0.00868
-0.00713
-0.00604
-0.00558
-0.00122
0.00617
0.01037
0.00905
0.00440
0.00071
-0.00306
-0.00730
-0.00732
-0.00274
-0.00011
0.00093
0.00041
0.00006
0.00018
0.00247
0.00734
0.00640
0.00269
-0.00207
-0.00696
-0.00735
-0.00424
-0.00269
-0.00348
-0.00197
0.00296
0.00738
0.01245
0.01047
0.00424
-0.00804
-0.01806
-0.00885
0.00992
0.01890
0.00830
-0.01069
-0.02584
-0.02906
-0.02157
-0.00506
0.01846
0.04150
0.05701
0.06322
0.05013
0.00747
-0.06576
-0.15777
-0.20644
-0.12101
0.08223
0.26896
0.29053
0.12071
-0.09029
-0.19476
-0.17167
-0.08902
-0.00983
0.04146
0.06342
0.06239
0.04727
0.02478
0.00231
-0.01240
-0.02172
-0.02570
-0.01951
-0.00976
-0.00448
-0.00033
0.00555
0.00944
0.00962
0.00510
0.00368
0.00582
0.00139
-0.00366
-0.00418
-0.00368
-0.00371
-0.00412
-0.00492
-0.00051
0.00213
0.00152
0.00207
0.00461
0.00573
0.00567
0.00304
-0.00226
-0.00781
-0.00845
-0.00470
-0.00305
0.00205
0.00231
0.00269
0.00491
0.00626
0.00394
-0.00051
-0.00345
-0.00283
-0.00200
-0.00541
-0.00413
-0.00236
0.00025
0.00488
0.00463
0.00476
0.00604
0.00278
-0.00144
-0.00446
-0.00477
-0.00739
-0.00806
-0.00573
-0.00029
0.00709
0.01045
0.01214
0.01144
0.00232
-0.01075
-0.01563
-0.00713
0.01159
0.01486
0.00042
-0.01559
-0.02546
-0.02794
-0.01865
0.00452
0.03065
0.05236
0.06398
0.06129
0.03826
-0.01608
-0.10988
-0.20613
-0.20743
-0.04500
0.19344
0.32934
0.24790
0.02062
-0.16516
-0.21099
-0.14449
-0.05365
0.01709
0.05841
0.06859
0.05766
0.03760
0.01741
-0.00214
-0.01495
-0.02418
-0.02721
-0.01953
-0.01124
-0.00226
0.00375
0.00731
0.01134
0.01087
0.00731
0.00395
0.00180
-0.00004
-0.00418
-0.00598
-0.00515
-0.00714
-0.00420
0.00000
0.00235
0.00350
0.00299
0.00281
0.00468
0.00520
0.00312
-0.00151
-0.00754
-0.00590
-0.00362
-0.00584
-0.00250
0.00326
0.00705
0.00713
0.00523
0.00287
-0.00263
-0.00427
-0.00410
-0.00443
-0.00264
0.00005
-0.00002
0.00100
0.00202
0.00323
0.00363
0.00355
0.00219
0.00023
-0.00272
-0.00419
-0.00414
-0.00850
-0.00722
-0.00284
0.00392
0.01194
0.01546
0.01226
0.00207
-0.01111
-0.01683
-0.00697
0.01239
0.01312
-0.00117
-0.01595
-0.02625
-0.02389
-0.01436
0.00760
0.03174
0.05030
0.05887
0.05301
0.02953
-0.02044
-0.10491
-0.19543
-0.18884
-0.02695
0.19529
0.30713
0.21913
0.00603
-0.16126
-0.19266
-0.13028
-0.04367
0.01716
0.04884
0.05869
0.05479
0.04500
0.02229
-0.00468
-0.01972
-0.02449
-0.02481
-0.02079
-0.01447
-0.00147
0.00656
0.01203
0.01366
0.00956
0.00439
0.00076
0.00037
-0.00204
-0.00348
-0.00354
-0.00390
-0.00288
-0.00104
-0.00233
-0.00205
-0.00095
0.00199
0.00492
0.00595
0.00660
0.00434
0.00039
-0.00675
-0.00813
-0.00214
-0.00525
-0.00605
-0.00019
0.00453
0.00884
0.00620
0.00405
0.00269
-0.00163
-0.00429
-0.00625
-0.00296
-0.00073
-0.00451
-0.00305
0.00192
0.00542
0.00500
0.00416
0.00322
0.00164
0.00005
-0.00217
-0.00380
-0.00528
-0.00609
-0.00916
-0.00651
0.00450
0.01222
0.01304
0.01283
0.00455
-0.00756
-0.01254
-0.00990
0.00605
0.01572
0.00253
-0.01517
-0.02547
-0.02350
-0.01575
-0.00159
0.01915
0.04190
0.06074
0.06285
0.04761
0.00388
-0.07140
-0.17452
-0.22220
-0.11327
0.11345
0.29812
0.29776
0.10449
-0.11754
-0.21149
-0.17088
-0.07807
-0.00235
0.04313
0.05883
0.06402
0.05089
0.02651
0.00362
-0.01134
-0.01965
-0.02540
-0.02663
-0.01890
-0.00674
0.00086
0.00798
0.01506
0.01536
0.01076
0.00514
-0.00212
-0.00399
-0.00450
-0.00498
-0.00646
-0.00172
-0.00189
-0.00172
0.00046
0.00188
0.00172
0.00250
0.00414
0.00271
0.00358
0.00517
-0.00137
-0.00723
-0.00723
-0.00778
-0.00546
-0.00184
0.00959
0.00897
0.00518
0.00417
0.00040
-0.00240
-0.00420
-0.00585
-0.00501
0.00086
0.00205
0.00100
-0.00003
-0.00006
0.00005
0.00078
0.00165
0.00248
0.00323
0.00319
0.00310
0.00082
-0.00561
-0.01464
-0.01493
-0.00670
0.00517
0.01542
0.01962
0.01594
0.00426
-0.01171
-0.02031
-0.01175
0.00650
0.01790
0.00868
-0.00704
-0.02487
-0.03123
-0.02429
-0.00530
0.02133
0.04735
0.06673
0.06616
0.04295
-0.00268
-0.07041
-0.16962
-0.22190
-0.11739
0.10827
0.30207
0.30615
0.10631
-0.12104
-0.21863
-0.17427
-0.07694
0.00083
0.04444
0.06469
0.06577
0.04999
0.02186
-0.00077
-0.01158
-0.02039
-0.02527
-0.02524
-0.01372
-0.00623
0.00020
0.00989
0.01392
0.01341
0.00843
0.00216
-0.00134
-0.00191
-0.00369
-0.00496
-0.00432
-0.00440
-0.00263
0.00087
0.00406
0.00335
-0.00042
-0.00199
0.00079
0.00423
0.00534
0.00016
-0.00180
-0.00069
-0.00414
-0.00680
-0.00570
0.00139
0.00412
0.00505
0.00497
0.00379
-0.00085
-0.00326
-0.00159
-0.00301
-0.00129
0.00011
-0.00036
-0.00085
-0.00052
-0.00082
0.00027
0.00422
0.00675
0.00355
-0.00218
-0.00298
-0.00061
-0.00212
-0.01067
-0.01081
-0.00381
0.00769
0.01506
0.01355
0.01235
-0.00361
-0.01741
-0.01186
0.00421
0.01391
0.00825
-0.00537
-0.01864
-0.02707
-0.02907
-0.01107
0.01554
0.03828
0.05939
0.06146
0.05337
0.01843
-0.04814
-0.13630
-0.21225
-0.15656
0.03963
0.24151
0.30893
0.17426
-0.05375
-0.19317
-0.18657
-0.10362
-0.02544
0.03143
0.05734
0.06318
0.05375
0.03483
0.01005
-0.00954
-0.02016
-0.02598
-0.02519
-0.01736
-0.00524
-0.00091
0.00597
0.00773
0.01375
0.01059
0.00582
0.00268
-0.00057
-0.00253
-0.00721
-0.00632
-0.00189
-0.00185
-0.00430
-0.00165
-0.00031
0.00389
0.00341
0.00718
0.00729
0.00337
-0.00286
-0.00588
-0.00376
-0.00196
-0.00769
-0.00948
0.00271
0.00837
0.00812
0.00249
0.00574
0.00266
-0.00171
-0.00345
-0.01033
-0.00530
-0.00355
0.00044
0.00417
0.00546
0.00574
-0.00121
0.00121
0.00539
0.00335
-0.00356
-0.00884
-0.00693
-0.00435
-0.00158
-0.00003
0.00300
0.00529
0.00453
0.00970
0.00737
-0.00037
-0.00942
-0.01433
-0.00060
0.01190
0.01145
0.00146
-0.01337
-0.02204
-0.02480
-0.02105
0.00010
0.02580
0.04907
0.06018
0.05774
0.03775
-0.01365
-0.09452
-0.18664
-0.19561
-0.04814
0.16774
0.29961
0.23710
0.02506
-0.15120
-0.19179
-0.13354
-0.04704
0.01609
0.04682
0.05933
0.05198
0.03732
0.01760
-0.00064
-0.01401
-0.02072
-0.02426
-0.01991
-0.01004
-0.00191
0.00470
0.00525
0.00773
0.00935
0.00918
0.00510
0.00105
-0.00066
-0.00313
-0.00616
-0.00592
-0.00507
-0.00087
-0.00207
-0.00030
0.00213
0.00530
0.00414
0.00252
0.00346
0.00196
0.00294
-0.00460
-0.00956
-0.00839
-0.00203
0.00166
0.00343
0.00496
0.00569
0.00118
0.00147
0.00172
-0.00141
-0.00447
-0.00526
-0.00299
0.00042
0.00091
0.00146
0.00323
-0.00084
0.00062
0.00050
0.00044
0.00343
0.00656
0.00315
-0.00409
-0.01155
-0.01114
-0.00940
-0.00356
0.00884
0.01454
0.01831
0.01211
-0.00134
-0.01367
-0.01754
-0.00272
0.01306
0.01149
-0.00292
-0.02087
-0.02667
-0.02155
-0.01441
0.00623
0.03401
0.05944
0.07235
0.06298
0.02840
-0.04003
-0.14507
-0.23778
-0.18905
0.02657
0.27106
0.34804
0.19171
-0.05793
-0.20758
-0.20230
-0.11694
-0.02327
0.03616
0.06109
0.06476
0.05557
0.03248
0.01046
-0.00715
-0.01908
-0.02612
-0.02182
-0.01650
-0.01229
-0.00233
0.00442
0.01038
0.01218
0.01274
0.00734
0.00417
-0.00419
-0.00422
-0.00418
-0.00541
-0.00029
-0.00320
-0.00356
-0.00320
-0.00191
0.00359
0.00666
0.00396
0.00406
0.00282
0.00387
-0.00259
-0.00628
-0.00461
-0.00638
-0.00614
-0.00162
0.00419
0.00667
0.01015
0.00613
-0.00046
-0.00371
-0.00440
-0.00339
-0.00426
-0.00311
-0.00090
-0.00251
0.00139
0.00582
0.01040
0.00491
-0.00070
-0.00184
-0.00797
-0.00451
-0.00020
-0.00041
-0.00342
-0.00504
-0.00373
0.00363
0.01280
0.01445
0.00618
-0.00558
-0.01281
-0.01053
0.00602
0.01283
0.00801
-0.00425
-0.02017
-0.02822
-0.02558
-0.00864
0.01075
0.03710
0.05924
0.06505
0.05325
0.01436
-0.04984
-0.13907
-0.21638
-0.15183
0.05446
0.26107
0.30960
0.14392
-0.07689
-0.19482
-0.17438
-0.09366
-0.01571
0.04080
0.05904
0.05482
0.04426
0.02758
0.01231
-0.00765
-0.01788
-0.02370
-0.02441
-0.01356
-0.01184
-0.00336
0.00739
0.01246
0.01435
0.01109
0.00637
0.00174
-0.00532
-0.00685
-0.00324
-0.00373
-0.00495
-0.00153
0.00049
0.00157
-0.00372
0.00009
0.00781
0.00454
0.00487
0.00340
-0.00051
-0.00240
-0.00768
-0.01016
-0.00336
-0.00150
0.00628
0.00511
0.00465
0.00627
0.00029
-0.00244
-0.00747
0.00051
0.00027
0.00198
-0.00081
-0.00267
-0.00495
-0.00678
0.00569
0.00864
0.01103
-0.00082
-0.00290
-0.00382
-0.00440
-0.00327
-0.00106
-0.00161
-0.00565
0.00230
0.00111
0.01019
0.00799
0.00307
-0.00585
-0.01013
0.00044
0.01074
0.01341
0.00479
-0.01038
-0.03060
-0.03111
-0.02283
0.00133
0.02075
0.03868
0.05524
0.05723
0.04973
0.01346
-0.05094
-0.15449
-0.22159
-0.13020
0.09564
0.28383
0.27980
0.09172
-0.10682
-0.17936
-0.14893
-0.07387
-0.00437
0.04015
0.05169
0.04829
0.04336
0.02387
0.00472
-0.01347
-0.01844
-0.01859
-0.01491
-0.00904
-0.00816
-0.00467
0.00537
0.01046
0.00657
0.00804
0.00722
0.00326
-0.00120
-0.00311
-0.00503
-0.00508
-0.00582
-0.00108
0.00210
-0.00035
0.00021
-0.00045
0.00183
0.00746
0.00584
0.00196
-0.00460
-0.00402
-0.00128
-0.00633
-0.00351
-0.00240
0.00322
0.00394
0.00601
0.00478
0.00111
-0.00018
-0.00378
-0.00526
-0.00468
0.00234
0.00066
-0.00015
-0.00025
0.00016
0.00083
0.00164
0.00217
0.00241
0.00187
0.00080
-0.00106
-0.00294
-0.00476
-0.00531
-0.00438
-0.00085
0.00497
0.00343
0.00816
0.00841
0.00199
-0.00739
-0.01175
-0.00660
0.00765
0.01737
0.01445
0.00208
-0.02145
-0.03289
-0.02994
-0.01700
-0.00042
0.02584
0.05132
0.06880
0.06695
0.04025
-0.00781
-0.10441
-0.21018
-0.21350
-0.04843
0.19321
0.32809
0.23834
0.01032
-0.15956
-0.19742
-0.13532
-0.04862
0.01584
0.05432
0.06209
0.05278
0.03754
0.01753
-0.00084
-0.01415
-0.02443
-0.02771
-0.01918
-0.00762
-0.00377
0.00349
0.01005
0.01320
0.01082
0.00592
0.00237
-0.00222
-0.00405
-0.00658
-0.00136
-0.00272
-0.00219
0.00060
-0.00041
0.00022
-0.00310
0.00011
0.00434
0.00486
0.00589
0.00243
-0.00161
-0.00105
-0.00695
-0.00962
-0.00227
0.00093
0.00450
0.00645
0.00093
0.00138
0.00085
-0.00095
0.00005
-0.00139
-0.00011
-0.00214
-0.00329
0.00139
0.00047
0.00017
-0.00143
0.00310
0.00615
-0.00387
-0.00552
-0.00472
0.00395
0.00517
0.00351
0.00437
0.00187
-0.00267
-0.01029
-0.00382
-0.00448
-0.00478
-0.00159
0.00713
0.01342
0.01341
0.00455
-0.01006
-0.01393
-0.00957
0.00751
0.01896
0.01173
-0.00748
-0.02022
-0.02787
-0.02412
-0.01374
0.00642
0.03172
0.05219
0.06509
0.06100
0.02537
-0.03779
-0.12523
-0.20575
-0.16760
0.01618
0.23058
0.30512
0.17376
-0.04610
-0.17822
-0.17567
-0.10194
-0.02620
0.02756
0.05257
0.05741
0.04848
0.03120
0.01246
-0.00342
-0.01748
-0.02442
-0.02421
-0.01958
-0.00729
-0.00037
0.01021
0.00927
0.00879
0.00769
0.00638
0.00166
-0.00269
-0.00177
-0.00151
-0.00154
-0.00595
-0.00577
-0.00256
0.00057
-0.00129
0.00299
0.00741
0.00571
-0.00087
-0.00138
-0.00254
0.00266
0.00231
-0.00252
-0.00220
-0.00864
-0.00411
0.00027
0.00388
0.00466
0.00554
0.00419
0.00031
-0.00023
-0.00226
-0.00278
-0.00702
-0.00446
0.00221
0.00255
0.00152
0.00142
0.00102
0.00137
0.00119
0.00144
0.00088
0.00058
-0.00042
-0.00078
-0.00098
-0.00831
-0.01182
-0.00671
0.00880
0.01348
0.01330
0.01090
-0.00311
-0.01385
-0.01482
0.00251
0.01809
0.01235
-0.00755
-0.02020
-0.02551
-0.02221
-0.00884
0.00687
0.02732
0.04551
0.05255
0.05184
0.03431
-0.01324
-0.09648
-0.19096
-0.18648
-0.02923
0.18707
0.30149
0.20942
-0.00366
-0.16091
-0.18216
-0.11574
-0.03755
0.01805
0.04669
0.05787
0.05284
0.03470
0.01692
-0.00289
-0.01872
-0.02164
-0.02433
-0.02105
-0.01127
0.00384
0.00929
0.00883
0.00798
0.00421
0.00672
0.00307
0.00245
0.00151
-0.00487
-0.00986
-0.00631
-0.00167
0.00167
0.00005
-0.00067
0.00341
0.00129
0.00275
0.00327
0.00191
0.00295
-0.00143
-0.00536
-0.00316
-0.00186
0.00067
-0.00279
-0.00364
0.00045
0.00536
0.00492
0.00422
0.00433
-0.00062
-0.00491
-0.00641
-0.00314
-0.00078
0.00051
-0.00118
0.00313
0.00282
-0.00038
0.00034
0.00171
0.00308
0.00372
0.00072
-0.00018
-0.00263
-0.01076
-0.01161
-0.00718
0.00154
0.01141
0.01573
0.01490
0.00675
-0.01035
-0.01646
-0.00750
0.01016
0.01499
0.00222
-0.01216
-0.02543
-0.03028
-0.02085
-0.00408
0.02539
0.05039
0.06173
0.06767
0.04686
-0.00209
-0.08561
-0.19292
-0.22065
-0.08699
0.14406
0.31080
0.27867
0.07202
-0.13760
-0.20792
-0.15974
-0.06697
0.00627
0.04781
0.06285
0.06134
0.04832
0.02011
-0.00425
-0.01644
-0.01883
-0.02583
-0.02017
-0.01247
-0.00446
0.00348
0.00930
0.01316
0.00955
0.00508
-0.00013
0.00072
0.00233
-0.00296
-0.00499
-0.00462
-0.00449
0.00060
-0.00042
-0.00213
-0.00013
0.00106
0.00107
0.00373
0.00598
0.00607
0.00328
-0.00316
-0.00486
-0.00596
-0.00961
-0.00789
0.00079
0.00741
0.01020
0.00496
0.00190
0.00223
-0.00222
0.00012
-0.00336
-0.00641
-0.00428
-0.00418
-0.00107
0.00330
0.00419
0.00387
0.00373
0.00357
0.00332
-0.00090
-0.00285
0.00017
-0.00273
-0.01214
-0.01129
-0.00703
0.00320
0.01298
0.01874
0.01790
0.00353
-0.01110
-0.01994
-0.00977
0.01007
0.01515
0.00105
-0.01383
-0.02194
-0.02464
-0.01804
0.00125
0.02381
0.04459
0.05836
0.05743
0.04456
-0.00082
-0.08492
-0.18739
-0.21144
-0.07737
0.14727
0.30828
0.26843
0.05834
-0.14404
-0.20721
-0.15371
-0.06018
0.01547
0.05102
0.06162
0.05441
0.03910
0.01992
0.00154
-0.01141
-0.02082
-0.02364
-0.02444
-0.01497
-0.00232
0.00238
0.00939
0.01329
0.00968
0.00454
0.00266
0.00380
0.00202
-0.00372
-0.00537
-0.00836
-0.00494
-0.00049
-0.00312
-0.00149
0.00182
0.00588
0.00449
0.00510
0.00502
0.00359
-0.00080
-0.00784
-0.00747
-0.00657
-0.00416
-0.00403
0.00571
0.01151
0.00687
0.00282
-0.00243
-0.00241
-0.00189
-0.00016
-0.00344
-0.00389
-0.00138
-0.00182
-0.00240
0.00099
0.00624
0.00739
0.00728
0.00249
-0.00405
-0.00789
-0.00694
-0.00110
-0.00042
-0.00437
-0.00321
0.00204
0.00632
0.00763
0.00819
0.00395
-0.00124
-0.00983
-0.00982
0.00200
0.01459
0.01383
-0.00449
-0.01914
-0.02954
-0.02683
-0.01358
0.00520
0.02950
0.05399
0.06806
0.06355
0.03208
-0.02891
-0.12528
-0.21471
-0.18192
-0.00223
0.22031
0.31275
0.19789
-0.01667
-0.16882
-0.18677
-0.12131
-0.04157
0.02116
0.05612
0.06296
0.05323
0.03577
0.01312
-0.00617
-0.01747
-0.02222
-0.02259
-0.01947
-0.00863
-0.00018
0.00294
0.00972
0.00997
0.00948
0.00641
0.00217
-0.00050
-0.00192
-0.00167
-0.00449
-0.00446
-0.00389
-0.00063
-0.00143
-0.00124
-0.00121
0.00137
0.00425
0.00600
0.00654
0.00505
0.00116
-0.00620
-0.00964
-0.00728
-0.00210
-0.00262
0.00159
0.00381
0.00604
0.00635
0.00503
0.00184
-0.00246
-0.00524
-0.00503
-0.00329
-0.00359
-0.00103
-0.00014
0.00302
0.00413
0.00355
0.00322
0.00230
0.00148
0.00012
-0.00090
-0.00183
-0.00904
-0.01374
-0.01121
0.00205
0.01617
0.01879
0.01384
0.00194
-0.00722
-0.01515
-0.01243
0.00507
0.01640
0.00926
-0.01187
-0.02350
-0.02427
-0.01898
-0.00599
0.01304
0.04029
0.06053
0.06681
0.04733
0.00413
-0.06686
-0.16292
-0.21275
-0.11629
0.10284
0.28305
0.28576
0.10240
-0.10775
-0.19769
-0.16553
-0.07963
-0.00291
0.04487
0.06128
0.05700
0.04722
0.02625
0.00259
-0.01264
-0.02316
-0.02715
-0.02079
-0.01269
-0.00397
0.00408
0.01035
0.01001
0.00638
0.00455
0.00388
0.00314
0.00027
0.00061
-0.00352
-0.00643
-0.00728
-0.00568
-0.00296
0.00148
0.00679
0.00619
0.00403
-0.00043
-0.00177
0.00265
0.00433
-0.00286
-0.00604
-0.00463
-0.00518
-0.00265
0.00192
0.00533
0.00662
0.00506
0.00048
0.00048
-0.00209
-0.00502
-0.00482
-0.00319
0.00058
0.00116
0.00163
0.00187
0.00240
0.00207
0.00142
-0.00041
0.00110
0.00307
-0.00210
-0.00557
-0.00597
-0.00811
-0.00475
0.00239
0.00828
0.01379
0.01273
0.00143
-0.00904
-0.01055
-0.00443
0.00828
0.01245
0.00313
-0.01180
-0.02535
-0.03049
-0.02138
-0.00113
0.02140
0.04702
0.06696
0.06917
0.04626
-0.00315
-0.08784
-0.19178
-0.21779
-0.08624
0.14138
0.30605
0.27438
0.07310
-0.12382
-0.20079
-0.16107
-0.07676
-0.00279
0.04539
0.06515
0.06435
0.05066
0.02679
-0.00157
-0.01885
-0.02569
-0.02466
-0.02038
-0.01315
-0.00397
0.00453
0.00747
0.01026
0.01218
0.00884
0.00395
-0.00042
-0.00359
-0.00539
-0.00227
-0.00340
-0.00569
-0.00210
0.00186
0.00109
-0.00212
0.00111
0.00558
0.00501
0.00141
-0.00063
0.00192
0.00231
-0.00368
-0.00737
-0.00725
-0.00640
0.00249
0.00563
0.00687
0.00731
0.00421
-0.00068
-0.00331
-0.00512
-0.00637
-0.00263
-0.00067
0.00269
0.00062
0.00022
0.00086
0.00488
0.00541
0.00016
-0.00011
0.00171
-0.00077
-0.00722
-0.01013
-0.00883
-0.00503
0.00267
0.01251
0.01850
0.01613
0.00109
-0.01414
-0.01583
-0.00895
0.00368
0.01459
0.01100
-0.00381
-0.01933
-0.02776
-0.02463
-0.00813
0.01391
0.03628
0.05444
0.06388
0.05290
0.01599
-0.05118
-0.14930
-0.21217
-0.14095
0.05858
0.26217
0.30314
0.14085
-0.07779
-0.19320
-0.17199
-0.09310
-0.02022
0.03106
0.05971
0.06602
0.05189
0.02953
0.00829
-0.01092
-0.02206
-0.02709
-0.02382
-0.01721
-0.00657
0.00279
0.00882
0.01127
0.01108
0.01036
0.00598
0.00253
-0.00450
-0.00759
-0.00671
-0.00255
-0.00143
-0.00297
-0.00310
0.00243
0.00438
0.00202
0.00240
0.00191
0.00236
0.00222
0.00182
-0.00168
-0.00517
-0.00852
-0.00545
-0.00005
0.00337
0.00624
0.00319
0.00432
0.00511
-0.00105
-0.00560
-0.00448
-0.00339
-0.00231
0.00034
0.00075
0.00429
0.00217
-0.00266
-0.00016
0.00406
0.00392
0.00170
-0.00089
-0.00355
-0.00551
-0.00608
-0.00458
-0.00044
0.00374
0.00402
0.00779
0.00894
0.00390
-0.00483
-0.01060
-0.00587
0.00642
0.01494
0.00889
-0.00735
-0.02250
-0.03116
-0.02771
-0.00740
0.01731
0.03784
0.05395
0.06350
0.05521
0.02009
-0.04710
-0.14747
-0.21290
-0.14523
0.05135
0.24951
0.29520
0.14843
-0.06171
-0.17925
-0.17221
-0.10034
-0.02380
0.03011
0.05645
0.06082
0.05038
0.03134
0.01019
-0.00812
-0.01995
-0.02700
-0.02441
-0.01457
-0.00798
0.00117
0.01074
0.01163
0.00967
0.00581
0.00189
0.00157
0.00024
-0.00160
-0.00430
-0.00435
-0.00129
-0.00175
-0.00267
-0.00281
-0.00126
0.00233
0.00270
0.00394
0.00540
0.00464
0.00181
-0.00192
-0.00267
