0.04371
0.03872
0.03247
0.01749
-0.02248
-0.07993
-0.06869
0.11615
0.43964
0.72565
0.79310
0.59076
0.27228
0.03747
-0.05371
-0.06120
-0.04746
-0.03872
-0.03622
-0.03997
-0.04122
-0.04621
-0.05121
-0.05495
-0.05620
-0.05995
-0.06245
-0.06994
-0.06994
-0.07244
-0.08243
-0.09117
-0.09742
-0.10741
-0.11740
-0.12864
-0.14238
-0.15237
-0.16237
-0.17361
-0.18610
-0.19234
-0.20233
-0.20983
-0.21108
-0.21732
-0.22481
-0.22606
-0.22981
-0.22856
-0.22481
-0.22357
-0.21482
-0.19484
-0.17361
-0.14738
-0.11615
-0.08368
-0.06120
-0.04496
-0.02498
-0.00624
0.00749
0.01624
0.01998
0.02123
0.02373
0.01998
0.01998
0.01998
0.01998
0.01998
0.01998
0.01998
0.01998
0.01749
0.00874
0.00250
-0.00749
-0.01873
-0.03247
-0.03997
-0.03747
-0.02873
-0.02248
-0.00874
0.01749
0.04246
0.04996
0.04871
0.04496
0.04496
0.04246
0.03372
0.02873
0.02498
0.02498
0.02373
0.01499
-0.00874
-0.05495
-0.10491
-0.06120
0.16112
0.48210
0.71816
0.70941
0.46836
0.17236
-0.02373
-0.08368
-0.07744
-0.06869
-0.06620
-0.06994
-0.06994
-0.06994
-0.06994
-0.06994
-0.06994
-0.06994
-0.06994
-0.06994
-0.07119
-0.07744
-0.08743
-0.09492
-0.09617
-0.10242
-0.11241
-0.12365
-0.13614
-0.14238
-0.15237
-0.16362
-0.17610
-0.18235
-0.19234
-0.20233
-0.20983
-0.21108
-0.21607
-0.22107
-0.22357
-0.21857
-0.21357
-0.20983
-0.20733
-0.19234
-0.17486
-0.15237
-0.13489
-0.10741
-0.07494
-0.05246
-0.03747
-0.02248
-0.00749
0.00250
0.01249
0.01998
0.02123
0.02623
0.02998
0.02998
0.02998
0.02998
0.02998
0.02998
0.02998
0.02873
0.02373
0.01749
0.00749
-0.00874
-0.02748
-0.03622
-0.03747
-0.02748
-0.01998
-0.01624
0.00624
0.03372
0.05121
0.05495
0.05246
0.04496
0.04496
0.04496
0.04496
0.04496
0.04371
0.03747
0.02873
0.01998
-0.01124
-0.06994
-0.09117
0.03872
0.33098
0.64946
0.79559
0.65446
0.34347
0.07744
-0.04496
-0.06370
-0.05371
-0.04496
-0.04496
-0.04621
-0.04996
-0.05121
-0.05620
-0.05995
-0.05995
-0.05995
-0.06120
-0.06620
-0.07119
-0.07619
-0.08243
-0.09117
-0.09617
-0.10242
-0.11241
-0.12240
-0.13239
-0.14238
-0.15737
-0.16736
-0.18235
-0.19234
-0.20233
-0.21108
-0.21732
-0.22481
-0.22606
-0.23106
-0.23356
-0.22981
-0.22856
-0.22357
-0.21732
-0.20108
-0.17985
-0.15113
-0.12615
-0.10117
-0.07619
-0.05121
-0.02623
-0.00874
0.00125
0.01124
0.01624
0.02123
0.02623
0.02998
0.02998
0.02998
0.03122
0.03497
0.03372
0.02998
0.02998
0.02873
0.02373
0.01873
0.00874
-0.00250
-0.01873
-0.03497
-0.03372
-0.02373
-0.01873
-0.01124
0.00999
0.03872
0.05620
0.05995
0.05870
0.05495
0.05371
0.04996
0.04996
0.04871
0.04371
0.03872
0.03372
0.01998
-0.02123
-0.08993
-0.08993
0.10491
0.46087
0.78435
0.85804
0.62948
0.28352
0.03247
-0.06620
-0.07244
-0.05371
-0.04621
-0.05121
-0.05495
-0.05620
-0.06120
-0.06620
-0.06994
-0.06994
-0.07119
-0.07619
-0.07993
-0.07993
-0.08118
-0.09117
-0.10117
-0.11116
-0.12115
-0.13114
-0.14238
-0.15737
-0.17236
-0.18735
-0.20108
-0.20608
-0.21607
-0.22606
-0.23481
-0.23606
-0.24605
-0.25104
-0.25479
-0.25479
-0.24979
-0.24979
-0.24855
-0.23730
-0.21607
-0.19109
-0.16611
-0.14113
-0.11116
-0.08618
-0.05745
-0.03747
-0.02248
-0.00874
-0.00375
0.00125
0.00624
0.01124
0.01499
0.01374
0.01124
0.01624
0.01998
0.01998
0.01998
0.01374
0.00375
-0.00500
-0.00624
-0.01749
-0.03247
-0.04621
-0.04996
-0.04496
-0.03997
-0.03247
-0.01124
0.01749
0.03622
0.04496
0.04496
0.04496
0.04496
0.03872
0.02998
0.02998
0.02998
0.02498
0.01873
0.00874
-0.01124
-0.06744
-0.11990
-0.04996
0.21607
0.55954
0.78685
0.72690
0.43964
0.14363
-0.03122
-0.07993
-0.07369
-0.06495
-0.05995
-0.06495
-0.06994
-0.06994
-0.06495
-0.06994
-0.06994
-0.06994
-0.06994
-0.07619
-0.08493
-0.08993
-0.09492
-0.10117
-0.10991
-0.11615
-0.12115
-0.13114
-0.14613
-0.15612
-0.16611
-0.17610
-0.18610
-0.19609
-0.20608
-0.21607
-0.22606
-0.23106
-0.23481
-0.23481
-0.23481
-0.23481
-0.23481
-0.22981
-0.22357
-0.21357
-0.19234
-0.16736
-0.14238
-0.11241
-0.08743
-0.06245
-0.03747
-0.01873
-0.00500
0.00000
0.00500
0.00500
0.01124
0.01998
0.01998
0.01998
0.01998
0.01998
0.01998
0.01998
0.01998
0.02498
0.01998
0.01374
0.00375
-0.00624
-0.02123
-0.03497
-0.03997
-0.03372
-0.02498
-0.01873
-0.00250
0.02748
0.04996
0.05495
0.04996
0.04496
0.04496
0.04496
0.04496
0.04496
0.04496
0.04496
0.03872
0.02873
0.00624
-0.03997
-0.10242
-0.06245
0.17236
0.51832
0.79809
0.81058
0.54830
0.20733
-0.00999
-0.07494
-0.06869
-0.05495
-0.04996
-0.05495
-0.05495
-0.04996
-0.05121
-0.05995
-0.06495
-0.06495
-0.06495
-0.06994
-0.07494
-0.07993
-0.08493
-0.08993
-0.09492
-0.10117
-0.11116
-0.12615
-0.13614
-0.14613
-0.15612
-0.17111
-0.18610
-0.19609
-0.20608
-0.21607
-0.22606
-0.23481
-0.23481
-0.23481
-0.23980
-0.24480
-0.24480
-0.24480
-0.23980
-0.22856
-0.20358
-0.17860
-0.15362
-0.12864
-0.09867
-0.06869
-0.04871
-0.02873
-0.00999
0.00000
0.00500
0.01499
0.01998
0.01998
0.02498
0.02998
0.02998
0.02998
0.02998
0.02498
0.02498
0.02498
0.02498
0.01998
0.01998
0.01499
0.00375
-0.01624
-0.03497
-0.03997
-0.03497
-0.02498
-0.02373
-0.00375
0.02623
0.04996
0.05995
0.06994
0.05995
0.05495
0.04496
0.04496
0.04496
0.04496
0.03997
0.02998
0.02873
0.00749
-0.05745
-0.12240
-0.06370
0.21482
0.60200
0.88427
0.85305
0.53581
0.18235
-0.02748
-0.08493
-0.06994
-0.05995
-0.05995
-0.05995
-0.05995
-0.05995
-0.06495
-0.06994
-0.06994
-0.07494
-0.08493
-0.08993
-0.08993
-0.09492
-0.09992
-0.10991
-0.11491
-0.11990
-0.12989
-0.13988
-0.14988
-0.15987
-0.17486
-0.18485
-0.19984
-0.21482
-0.22981
-0.23481
-0.24480
-0.24979
-0.25979
-0.26478
-0.26978
-0.26478
-0.26478
-0.26478
-0.25479
-0.23980
-0.21982
-0.19484
-0.16986
-0.13489
-0.10491
-0.07494
-0.05495
-0.03997
-0.02498
-0.01499
-0.00500
0.00500
0.01998
0.01998
0.01998
0.02498
0.02498
0.02498
0.02498
0.01998
0.02498
0.02498
0.01998
0.01998
0.02498
0.01998
0.00500
-0.00500
-0.01499
-0.02998
-0.03997
-0.03497
-0.02498
-0.00999
0.00500
0.03497
0.05995
0.06994
0.05995
0.04996
0.04996
0.04996
0.04496
0.03997
0.03497
0.03497
0.02998
0.02498
-0.00500
-0.06495
-0.10991
-0.01998
0.26978
0.62948
0.84555
0.75563
0.43589
0.11990
-0.04496
-0.08493
-0.07494
-0.06495
-0.05995
-0.05995
-0.05995
-0.06495
-0.06495
-0.06994
-0.06994
-0.07494
-0.06994
-0.07993
-0.08493
-0.08993
-0.09492
-0.09992
-0.10991
-0.11491
-0.12490
-0.13988
-0.14988
-0.15987
-0.16986
-0.17985
-0.18984
-0.19984
-0.20983
-0.21482
-0.22481
-0.23481
-0.23481
-0.23481
-0.23481
-0.23481
-0.23481
-0.22981
-0.21982
-0.20483
-0.18984
-0.16986
-0.14488
-0.11615
-0.08993
-0.06120
-0.03997
-0.02498
-0.00999
0.00000
0.00500
0.01499
0.01998
0.01998
0.02498
0.02498
0.01998
0.01998
0.01998
0.01998
0.01998
0.01998
0.02498
0.02498
0.01998
0.00999
0.00500
-0.00500
-0.01499
-0.03497
-0.03497
-0.03497
-0.02998
-0.02498
-0.00125
0.02873
0.04996
0.05495
0.04996
0.04496
0.04496
0.04496
0.04496
0.04496
0.03497
0.02998
0.02498
0.01998
0.00125
-0.06245
-0.11740
-0.04746
0.22481
0.58577
0.83556
0.79684
0.49709
0.16861
-0.02248
-0.06869
-0.05995
-0.04996
-0.04496
-0.04496
-0.04996
-0.05995
-0.06495
-0.06495
-0.06495
-0.06994
-0.06994
-0.07494
-0.07993
-0.08493
-0.09492
-0.09492
-0.10491
-0.11491
-0.12490
-0.13988
-0.14988
-0.15987
-0.16986
-0.18485
-0.18984
-0.20483
-0.21482
-0.22481
-0.23481
-0.23481
-0.24480
-0.24979
-0.25479
-0.24979
-0.24979
-0.24979
-0.24480
-0.23106
-0.20608
-0.18610
-0.16112
-0.12739
-0.09242
-0.06620
-0.04621
-0.03122
-0.01124
0.00000
0.00500
0.00999
0.01998
0.01998
0.01998
0.02498
0.02498
0.02498
0.01998
0.01998
0.02498
0.02498
0.01998
0.01998
0.02498
0.01998
0.01499
0.00999
0.00500
-0.00874
-0.02873
-0.04371
-0.04496
-0.03622
-0.02623
-0.00624
0.02248
0.04871
0.05495
0.05495
0.04996
0.04996
0.04496
0.04496
0.03997
0.04496
0.03997
0.03122
0.02498
-0.00749
-0.07494
-0.13114
-0.01998
0.29476
0.67944
0.89926
0.78186
0.43339
0.11491
-0.04371
-0.07744
-0.06620
-0.05121
-0.05870
-0.05995
-0.06495
-0.06495
-0.06994
-0.06994
-0.06994
-0.06994
-0.07869
-0.08493
-0.08993
-0.08993
-0.09492
-0.10866
-0.11491
-0.11990
-0.12864
-0.13864
-0.15362
-0.16861
-0.17860
-0.18859
-0.20358
-0.21357
-0.22856
-0.24355
-0.25354
-0.25479
-0.25979
-0.26478
-0.26478
-0.26478
-0.26478
-0.26478
-0.25604
-0.24105
-0.22232
-0.19234
-0.16237
-0.13239
-0.10242
-0.07744
-0.05246
-0.03247
-0.01249
-0.00125
0.00500
0.00999
0.01873
0.01998
0.01998
0.01998
0.02498
0.02998
0.02998
0.02498
0.02998
0.02998
0.02998
0.02998
0.02998
0.02998
0.03497
0.02998
0.02998
0.02998
0.02498
0.01998
0.00624
-0.00874
-0.01873
-0.01998
-0.01998
-0.01998
-0.01499
0.00250
0.03122
0.04871
0.05870
0.05495
0.05495
0.05495
0.04996
0.04496
0.04496
0.04496
0.03997
0.03122
0.01624
-0.01124
-0.06370
-0.10491
-0.02123
0.24105
0.57952
0.80933
0.75563
0.46836
0.16237
-0.01624
-0.06994
-0.07119
-0.06120
-0.05620
-0.05995
-0.06495
-0.06120
-0.05995
-0.05995
-0.06495
-0.06495
-0.06495
-0.06994
-0.07494
-0.08368
-0.08493
-0.09367
-0.09992
-0.10491
-0.11366
-0.12365
-0.13864
-0.14863
-0.15487
-0.16362
-0.17860
-0.19359
-0.20358
-0.20983
-0.21857
-0.22481
-0.22981
-0.22981
-0.22981
-0.23481
-0.23106
-0.22606
-0.21607
-0.20608
-0.19234
-0.16861
-0.14363
-0.11865
-0.09367
-0.06370
-0.04246
-0.02748
-0.01249
0.00250
0.01749
0.02373
0.02123
0.01998
0.02373
0.02498
0.02123
0.02373
0.02498
0.02498
0.02123
0.02373
0.02498
0.02873
0.02998
0.02998
0.02998
0.02998
0.02998
0.02623
0.02498
0.02123
0.01624
0.00250
-0.00874
-0.02248
-0.02498
-0.02123
-0.01998
-0.01998
-0.00749
0.01998
0.04621
0.06245
0.05620
0.05495
0.05495
0.05495
0.04621
0.04496
0.04122
0.04371
0.04122
0.03122
0.00000
-0.05495
-0.11491
-0.06994
0.17111
0.52956
0.81183
0.80933
0.53581
0.21232
0.00874
-0.06245
-0.06120
-0.05121
-0.04621
-0.04496
-0.04871
-0.04996
-0.04996
-0.05371
-0.05870
-0.05995
-0.06370
-0.06869
-0.07369
-0.07869
-0.08368
-0.08493
-0.09367
-0.09867
-0.10866
-0.11865
-0.12864
-0.13864
-0.14863
-0.16237
-0.17735
-0.18859
-0.19859
-0.20858
-0.21857
-0.23231
-0.23481
-0.23481
-0.23481
-0.23855
-0.23980
-0.23980
-0.23606
-0.23106
-0.21357
-0.18984
-0.15987
-0.13489
-0.10991
-0.08493
-0.05995
-0.03872
-0.02248
-0.00749
0.00749
0.01873
0.01998
0.01998
0.02373
0.02873
0.02998
0.02623
0.02498
0.02123
0.02373
0.02873
0.02998
0.02998
0.02998
0.02623
0.02498
0.02498
0.02498
0.02498
0.02123
0.01249
-0.00624
-0.02248
-0.02123
-0.01624
-0.01873
-0.01998
-0.01624
0.01374
0.03997
0.05246
0.05495
0.05495
0.05495
0.04746
0.04496
0.04122
0.04371
0.03747
0.03497
0.03122
0.00999
-0.05121
-0.12490
-0.09242
0.14738
0.51707
0.82682
0.86054
0.59201
0.23356
0.00500
-0.07494
-0.07244
-0.06245
-0.05995
-0.05995
-0.05995
-0.05995
-0.06370
-0.06869
-0.06994
-0.06620
-0.06869
-0.07369
-0.07494
-0.08243
-0.09242
-0.09867
-0.10741
-0.11740
-0.12365
-0.13739
-0.14738
-0.15737
-0.17236
-0.18735
-0.19734
-0.20733
-0.21732
-0.22731
-0.23730
-0.24730
-0.25729
-0.26353
-0.26853
-0.26978
-0.26978
-0.26978
-0.26228
-0.24855
-0.22606
-0.20483
-0.17610
-0.14988
-0.12115
-0.09492
-0.06994
-0.04496
-0.02873
-0.01749
-0.00749
-0.00125
0.00749
0.01374
0.01873
0.02373
0.02873
0.02623
0.02498
0.02498
0.02498
0.02498
0.02498
0.02498
0.02498
0.02873
0.02998
0.03372
0.03122
0.02998
0.02623
0.02498
0.01749
0.00000
-0.01624
-0.01998
-0.01249
-0.00999
-0.01749
-0.00874
0.01749
0.03997
0.05246
0.05495
0.05121
0.04996
0.04996
0.04621
0.04122
0.03622
0.03122
0.02998
0.02623
0.00250
-0.05121
-0.10242
-0.03497
0.21357
0.55454
0.80309
0.78685
0.52707
0.20733
-0.00250
-0.07494
-0.08118
-0.07244
-0.06245
-0.05995
-0.06370
-0.06495
-0.06869
-0.06994
-0.07369
-0.07119
-0.07369
-0.08243
-0.08493
-0.08868
-0.09367
-0.09867
-0.10741
-0.10991
-0.11740
-0.12739
-0.13739
-0.15113
-0.15862
-0.17111
-0.18610
-0.19734
-0.20358
-0.21232
-0.22232
-0.23231
-0.23481
-0.23855
-0.24355
-0.24480
-0.24105
-0.23606
-0.23481
-0.22731
-0.20983
-0.18610
-0.16112
-0.13614
-0.10741
-0.07744
-0.05495
-0.03872
-0.01998
-0.00749
0.00250
0.00874
0.01749
0.01998
0.02373
0.02123
0.01998
0.01998
0.01998
0.01998
0.01998
0.02373
0.02498
0.02498
0.02123
0.02373
0.02498
0.02498
0.02123
0.02373
0.02123
0.01624
0.00000
-0.01998
-0.03247
-0.03497
-0.02748
-0.02873
-0.02998
-0.01873
0.00250
0.03122
0.05121
0.05495
0.05121
0.04621
0.04496
0.04496
0.04122
0.03622
0.03872
0.03622
0.02748
0.00000
-0.05620
-0.12490
-0.09117
0.14113
0.50833
0.81308
0.84305
0.58826
0.24480
0.00874
-0.07369
-0.07744
-0.06744
-0.06120
-0.05995
-0.06370
-0.06495
-0.06495
-0.06869
-0.06994
-0.06994
-0.07369
-0.08243
-0.08868
-0.09367
-0.09867
-0.10366
-0.11241
-0.11865
-0.12739
-0.13364
-0.14613
-0.15737
-0.17111
-0.18610
-0.20108
-0.21607
-0.22731
-0.23356
-0.24230
-0.24855
-0.25354
-0.25479
-0.25854
-0.26353
-0.26853
-0.26603
-0.26103
-0.25354
-0.23606
-0.21232
-0.18360
-0.15362
-0.12739
-0.09867
-0.07244
-0.05495
-0.03997
-0.02498
-0.00999
-0.00500
0.00250
0.00500
0.01249
0.01873
0.01998
0.01998
0.01998
0.01998
0.01998
0.01998
0.01998
0.02373
0.02873
0.02623
0.02498
0.02873
0.02623
0.02123
0.01998
0.01998
0.01374
-0.00749
-0.02873
-0.03497
-0.03122
-0.02998
-0.03372
-0.03122
-0.00999
0.02373
0.04122
0.04871
0.04621
0.04496
0.04496
0.04496
0.04122
0.03372
0.02623
0.02873
0.02623
0.01124
-0.02873
-0.08868
-0.09992
0.04996
0.35970
0.68069
0.81683
0.67694
0.36345
0.08493
-0.05620
-0.08868
-0.07993
-0.06869
-0.06120
-0.05995
-0.06620
-0.06994
-0.07369
-0.07869
-0.08368
-0.08118
-0.07993
-0.08368
-0.09117
-0.09492
-0.09867
-0.10616
-0.10991
-0.11615
-0.12365
-0.13489
-0.14988
-0.15862
-0.16611
-0.17610
-0.18610
-0.19984
-0.20858
-0.21357
-0.22107
-0.22856
-0.23356
-0.23481
-0.23481
-0.23481
-0.23481
-0.22856
-0.21857
-0.20483
-0.18735
-0.16362
-0.13864
-0.11740
-0.09742
-0.06994
-0.04746
-0.02748
-0.01374
-0.00624
0.00125
0.01124
0.01873
0.01998
0.01998
0.01998
0.01998
0.01998
0.01998
0.01998
0.01998
0.01998
0.01998
0.01998
0.01998
0.01998
0.01998
0.01998
0.01998
0.01624
0.00874
-0.00125
-0.01499
-0.02623
-0.02623
-0.01873
-0.01873
-0.01998
-0.00999
0.01749
0.04246
0.05371
0.05121
0.04996
0.04621
0.04122
0.03622
0.03497
0.03497
0.03122
0.02998
0.02373
0.00125
-0.05495
-0.11865
-0.07619
0.15113
0.49209
0.76812
0.80559
0.58702
0.26853
0.03247
-0.06620
-0.07869
-0.06869
-0.06245
-0.05995
-0.05995
-0.05995
-0.06370
-0.06869
-0.06994
-0.07369
-0.07869
-0.08368
-0.08493
-0.08493
-0.09117
-0.09492
-0.10117
-0.10866
-0.11615
-0.12615
-0.13614
-0.14613
-0.15987
-0.17486
-0.18984
-0.20108
-0.20858
-0.21607
-0.22981
-0.23481
-0.23855
-0.24605
-0.24979
-0.25354
-0.25479
-0.25479
-0.25229
-0.24105
-0.22232
-0.20233
-0.17985
-0.15487
-0.12615
-0.09992
-0.07494
-0.04996
-0.03122
-0.01624
-0.00749
-0.00250
0.00624
0.01624
0.01998
0.01998
0.01998
0.01998
0.01998
0.01998
0.01998
0.01998
0.01998
0.01998
0.01998
0.01998
0.01998
0.01998
0.01998
0.01998
0.01374
0.00375
-0.00624
-0.01873
-0.03122
-0.03497
-0.03247
-0.03247
-0.03497
-0.02248
0.00624
0.03747
0.05246
0.05246
0.04746
0.04246
0.03997
0.03997
0.03747
0.03497
0.03247
0.02748
0.01624
-0.01624
-0.08243
-0.13614
-0.05121
0.23855
0.62199
0.86928
0.80559
0.49709
0.16986
-0.02373
-0.08368
-0.08118
-0.06620
-0.06620
-0.06994
-0.07244
-0.07244
-0.06994
-0.07619
-0.08243
-0.08493
-0.08493
-0.09117
-0.09492
-0.09742
-0.10242
-0.11116
-0.11740
-0.12240
-0.13114
-0.14113
-0.15113
-0.16362
-0.17610
-0.18610
-0.19859
-0.21357
-0.22232
-0.23106
-0.24105
-0.24730
-0.25229
-0.25729
-0.26228
-0.26478
-0.26478
-0.26228
-0.25479
-0.24480
-0.22856
-0.20608
-0.18110
-0.15612
-0.12739
-0.10117
-0.07619
-0.05121
-0.03122
-0.01624
-0.00375
0.00250
0.01124
0.01749
0.02248
0.02248
0.01998
0.02248
0.02498
0.02248
0.01998
0.02248
0.02748
0.02998
0.02998
0.02748
0.02248
0.01998
0.01998
0.01749
0.01249
0.00375
-0.01124
-0.02873
-0.03497
-0.03497
-0.03497
-0.03497
-0.02373
0.00500
0.03622
0.05246
0.05495
0.05246
0.04746
0.04496
0.04246
0.04246
0.03997
0.03247
0.02748
0.02248
0.00624
-0.03872
-0.09867
-0.09117
0.08743
0.41466
0.72690
0.82557
0.64197
0.31474
0.05246
-0.06245
-0.07993
-0.06994
-0.06245
-0.06245
-0.06495
-0.06744
-0.06994
-0.07244
-0.07244
-0.07244
-0.07993
-0.08493
-0.08743
-0.09242
-0.09742
-0.10242
-0.10741
-0.11491
-0.12490
-0.13489
-0.14863
-0.15987
-0.17361
-0.18235
-0.18984
-0.19984
-0.20983
-0.21982
-0.22981
-0.23481
-0.23730
-0.23730
-0.23481
-0.23730
-0.23980
-0.23730
-0.22981
-0.21982
-0.20733
-0.18984
-0.16986
-0.14363
-0.11615
-0.09117
-0.06620
-0.04371
-0.02998
-0.01749
-0.00749
0.00000
0.00999
0.01749
0.01998
0.01998
0.01749
0.01249
0.01249
0.01749
0.02248
0.02498
0.02248
0.01998
0.01998
0.01998
0.01998
0.01998
0.01998
0.01998
0.01998
0.01499
0.00500
-0.00999
-0.02748
-0.03747
-0.03747
-0.02998
-0.02498
-0.01998
-0.00250
0.02248
0.03997
0.04746
0.04996
0.04746
0.04496
0.04246
0.03997
0.04246
0.03997
0.03247
0.02498
0.00749
-0.03372
-0.09367
-0.10991
0.02623
0.32223
0.64572
0.80808
0.69942
0.40841
0.12490
-0.03622
-0.07993
-0.07244
-0.06245
-0.05995
-0.05995
-0.05995
-0.05995
-0.06245
-0.06744
-0.06994
-0.06994
-0.07244
-0.07993
-0.08743
-0.09242
-0.10242
-0.11740
-0.13239
-0.14738
-0.15987
-0.17236
-0.18235
-0.18984
-0.20233
-0.21732
-0.22981
-0.23980
-0.24979
-0.25979
-0.26728
-0.27228
-0.27977
-0.28726
-0.28976
-0.28976
-0.28976
-0.28726
-0.27977
-0.26728
-0.25229
-0.23231
-0.20483
-0.17236
-0.14238
-0.11740
-0.09492
-0.07494
-0.05745
-0.04746
-0.03997
-0.03247
-0.02498
-0.01998
-0.01998
-0.01998
-0.01998
-0.01998
-0.01998
-0.01998
-0.01998
-0.01998
-0.01998
-0.01998
-0.01998
-0.01998
-0.01998
-0.01749
-0.01749
-0.02248
-0.02998
-0.04246
-0.05745
-0.06744
-0.06994
-0.06994
-0.06744
-0.06245
-0.05246
-0.03122
-0.00250
0.01499
0.01998
0.01749
0.01249
0.00999
0.00749
0.00250
0.00000
0.00000
-0.00250
-0.00999
-0.03372
-0.09242
-0.15862
-0.12365
0.10991
0.48335
0.77936
0.79310
0.53081
0.20108
-0.01624
-0.09617
-0.10242
-0.08993
-0.08493
-0.08493
-0.08493
-0.08493
-0.08243
-0.08243
-0.08993
-0.09492
-0.09492
-0.09992
-0.10741
-0.11241
-0.11491
-0.11990
-0.12989
-0.13988
-0.14738
-0.15487
-0.16736
-0.17985
-0.18984
-0.19984
-0.20983
-0.22232
-0.23730
-0.24979
-0.25979
-0.26728
-0.26978
-0.26978
-0.27228
-0.27477
-0.27477
-0.27477
-0.27228
-0.26353
-0.24605
-0.22107
-0.19359
-0.16861
-0.14113
-0.10866
-0.08118
-0.06120
-0.04496
-0.03122
-0.01499
-0.00500
0.00250
0.00749
0.01499
0.01749
0.01749
0.01998
0.02248
0.02498
0.02248
0.01998
0.02248
0.02498
0.02248
0.02248
0.02498
0.02248
0.01998
0.01998
0.01749
0.00999
-0.00125
-0.01624
-0.02998
-0.03247
-0.02998
-0.03247
-0.02623
-0.00375
0.02123
0.03997
0.04746
0.04746
0.04496
0.04496
0.04496
0.04246
0.03747
0.03247
0.02748
0.02248
0.01374
-0.01873
-0.08493
-0.12989
-0.03247
0.26728
0.65071
0.87927
0.78685
0.46212
0.13988
-0.03372
-0.07993
-0.07619
-0.06620
-0.05995
-0.06245
-0.06495
-0.06744
-0.06994
-0.06994
-0.07244
-0.07869
-0.08493
-0.08743
-0.09242
-0.09742
-0.10242
-0.10741
-0.11366
-0.12240
-0.12864
-0.13864
-0.14863
-0.16112
-0.17361
-0.18610
-0.19859
-0.20858
-0.22107
-0.23356
-0.24480
-0.25229
-0.25729
-0.26228
-0.26353
-0.25979
-0.26228
-0.26103
-0.25104
-0.23855
-0.22357
-0.20733
-0.18110
-0.14738
-0.11990
-0.09492
-0.06744
-0.03997
-0.02123
-0.01124
-0.00125
0.00874
0.01749
0.01998
0.02373
0.02998
0.02998
0.02748
0.02498
0.02498
0.02498
0.02748
0.03247
0.03497
0.03247
0.02998
0.02748
0.02498
0.02748
0.02998
0.02748
0.02498
0.01873
0.00000
-0.02123
-0.03247
-0.03122
-0.02248
-0.01749
-0.00500
0.02373
0.05121
0.05995
0.05745
0.05495
0.05495
0.05495
0.05246
0.04746
0.04246
0.03747
0.03247
0.02623
0.00375
-0.04371
-0.08993
-0.04996
0.16237
0.50084
0.78435
0.82432
0.59576
0.26978
0.03622
-0.06120
-0.07369
-0.06120
-0.05121
-0.04746
-0.05371
-0.05995
-0.06245
-0.06744
-0.06994
-0.06994
-0.07369
-0.08243
-0.08493
-0.08868
-0.09492
-0.09742
-0.10242
-0.10741
-0.11366
-0.12240
-0.12864
-0.13864
-0.15113
-0.16237
-0.16861
-0.17860
-0.18859
-0.20108
-0.21232
-0.21482
-0.21357
-0.21357
-0.22232
-0.22731
-0.22981
-0.22856
-0.22357
-0.21607
-0.20483
-0.18610
-0.16112
-0.13364
-0.10366
-0.07744
-0.05995
-0.04246
-0.02248
-0.00624
0.00500
0.01624
0.02373
0.02873
0.02498
0.02498
0.02373
0.01998
0.01998
0.02123
0.02623
0.03122
0.03372
0.02998
0.03122
0.03497
0.03497
0.03497
0.03622
0.03622
0.02623
0.01873
0.00999
-0.00375
-0.01749
-0.02998
-0.02498
-0.01124
-0.00375
0.00874
0.03622
0.05995
0.06994
0.06869
0.06370
0.06120
0.06370
0.05870
0.05371
0.04996
0.04996
0.04621
0.03247
0.00375
-0.04996
-0.09867
-0.04246
0.19609
0.54080
0.80559
0.80808
0.55329
0.23481
0.02498
-0.05371
-0.05620
-0.04621
-0.04122
-0.04496
-0.04496
-0.04122
-0.03122
-0.02373
-0.01998
-0.02123
-0.02873
-0.03497
-0.03122
-0.02498
-0.02873
-0.03872
-0.04621
-0.04996
-0.05371
-0.06495
-0.07993
-0.09492
-0.10991
-0.12365
-0.13114
-0.13864
-0.14613
-0.15362
-0.16362
-0.17111
-0.17610
-0.17985
-0.18110
-0.18485
-0.18485
-0.18485
-0.18485
-0.18110
-0.16861
-0.14613
-0.12115
-0.09867
-0.07619
-0.04996
-0.01998
0.00874
0.02998
0.04122
0.04871
0.05495
0.05870
0.06620
0.06994
0.06994
0.06994
0.06994
0.06869
0.06370
0.05995
0.05995
0.05995
0.06120
0.06620
0.06994
0.06994
0.06994
0.06869
0.06370
0.05870
0.05121
0.03872
0.02123
0.01499
0.01124
0.00500
0.00874
0.02248
0.04996
0.07369
0.07993
0.07993
0.07993
0.07869
0.07494
0.07494
0.07369
0.06994
0.06994
0.06994
0.06495
0.04246
-0.00624
-0.06744
-0.04496
0.17111
0.52457
0.82807
0.87678
0.62948
0.27727
0.03372
-0.05121
-0.04871
-0.03372
-0.03122
-0.03622
-0.04122
-0.04496
-0.04496
-0.04496
-0.04496
-0.04621
-0.05121
-0.05620
-0.06120
-0.06620
-0.07119
-0.07744
-0.08618
-0.09242
-0.10491
-0.11615
-0.12115
-0.12739
-0.14113
-0.15737
-0.16736
-0.17735
-0.18735
-0.19609
-0.20233
-0.21232
-0.22107
-0.22481
-0.22481
-0.22481
-0.22481
-0.22481
-0.22481
-0.22107
-0.20358
-0.18235
-0.15487
-0.12240
-0.09742
-0.07244
-0.04746
-0.02373
-0.00749
0.00250
0.01249
0.02123
0.02623
0.02998
0.02998
0.03122
0.03497
0.03372
0.02998
0.02998
0.02873
0.02498
0.02498
0.02623
0.02998
0.02998
0.02998
0.02998
0.02998
0.02748
0.01998
0.01873
0.01124
-0.00375
-0.01624
-0.01873
-0.01249
-0.00250
0.00999
0.02998
0.04746
0.05620
0.06120
0.06370
0.05870
0.05246
0.04496
0.04621
0.04996
0.04871
0.04371
0.03622
0.01499
-0.02623
-0.08368
-0.09367
0.06245
0.38343
0.70442
0.82932
0.67569
0.36345
0.09492
-0.04122
-0.06744
-0.05745
-0.04871
-0.04496
-0.04496
-0.04496
-0.04621
-0.05121
-0.05620
-0.06120
-0.06495
-0.06620
-0.06994
-0.07119
-0.07619
-0.08118
-0.08743
-0.09617
-0.10242
-0.11116
-0.11740
-0.12864
-0.14238
-0.15237
-0.16362
-0.17735
-0.18485
-0.18735
-0.19734
-0.20608
-0.20983
-0.21108
-0.21732
-0.22481
-0.22232
-0.21357
-0.20983
-0.20733
-0.19484
-0.17361
-0.14988
-0.12864
-0.10242
-0.07369
-0.04996
-0.02998
-0.01124
0.00375
0.01624
0.02123
0.02623
0.03122
0.03372
0.02998
0.02998
0.02998
0.02998
0.02998
0.02998
0.02998
0.02873
0.02498
0.02498
0.02623
0.02998
0.02998
0.02873
0.02498
0.02373
0.01873
0.01249
0.00250
-0.00749
-0.01749
-0.02498
-0.02498
-0.02373
-0.01499
0.00749
0.03622
0.05745
0.06245
0.05371
0.04996
0.04996
0.04871
0.04371
0.03997
0.03997
0.04122
0.04122
0.02248
-0.01998
-0.08618
-0.12490
-0.00624
0.31474
0.68069
0.87927
0.76812
0.44214
0.12989
-0.03872
-0.08243
-0.07119
-0.05745
-0.05246
-0.05995
-0.05995
-0.05995
-0.05995
-0.05995
-0.06120
-0.06620
-0.06994
-0.07244
-0.08118
-0.08618
-0.08993
-0.09117
-0.09742
-0.10741
-0.11740
-0.12864
-0.14238
-0.15237
-0.16237
-0.17236
-0.18485
-0.20233
-0.21232
-0.22107
-0.22731
-0.23481
-0.23606
-0.24105
-0.24605
-0.24979
-0.24979
-0.24979
-0.24730
-0.23730
-0.22481
-0.19984
-0.17361
-0.14363
-0.11366
-0.08493
-0.05995
-0.03747
-0.02248
-0.00749
0.00250
0.01249
0.01998
0.01998
0.01998
0.01998
0.01998
0.01998
0.02123
0.02623
0.02998
0.02998
0.02873
0.02498
0.02373
0.02123
0.02623
0.02998
0.02998
0.02873
0.02373
0.01873
0.01249
0.00250
-0.00624
-0.01374
-0.03247
-0.03997
-0.03997
-0.03872
-0.02873
0.00125
0.02998
0.05121
0.05371
0.04496
0.04496
0.04371
0.03872
0.02998
0.02998
0.02998
0.02873
0.02373
0.00874
-0.03372
-0.10491
-0.12365
0.05620
0.41840
0.77436
0.89551
0.69443
0.32723
0.04371
-0.07369
-0.08743
-0.07244
-0.05995
-0.06120
-0.06994
-0.07119
-0.07619
-0.08118
-0.08493
-0.08493
-0.08368
-0.07619
-0.08618
-0.09117
-0.09492
-0.09617
-0.10616
-0.11615
-0.12115
-0.13114
-0.14113
-0.15113
-0.16362
-0.18235
-0.19234
-0.20108
-0.20733
-0.21732
-0.23106
-0.23606
-0.24105
-0.24605
-0.25104
-0.25479
-0.25354
-0.24855
-0.23855
-0.23481
-0.23231
-0.21607
-0.19109
-0.16611
-0.13988
-0.11116
-0.08618
-0.06120
-0.04122
-0.02248
-0.00874
-0.00500
-0.00375
0.00125
0.00624
0.01124
0.01624
0.01998
0.01998
0.01998
0.01998
0.01998
0.01873
0.01374
0.00500
0.00624
0.01624
0.02123
0.02373
0.01998
0.02123
0.02373
0.01749
0.00375
-0.00125
-0.00749
-0.02248
-0.03497
-0.03372
-0.02873
-0.02373
-0.01749
0.00500
0.03247
0.05121
0.05495
0.05371
0.04871
0.04496
0.04371
0.03372
0.02998
0.02998
0.02873
0.02373
0.00999
-0.02998
-0.09617
-0.11740
0.02998
0.34721
0.68069
0.81183
0.66071
0.35471
0.08743
-0.05495
-0.08368
-0.07244
-0.05995
-0.06120
-0.06495
-0.06620
-0.06994
-0.06994
-0.06994
-0.06994
-0.07119
-0.08118
-0.08618
-0.08993
-0.09117
-0.09617
-0.10117
-0.11116
-0.11615
-0.12615
-0.13739
-0.15113
-0.15612
-0.16736
-0.18110
-0.18610
-0.19609
-0.20608
-0.21108
-0.22107
-0.22481
-0.22606
-0.23106
-0.23481
-0.22981
-0.22981
-0.22481
-0.22357
-0.21357
-0.19734
-0.17735
-0.15237
-0.12615
-0.09617
-0.06744
-0.04746
-0.02748
-0.00874
0.00000
0.00500
0.00999
0.01499
0.00999
0.00500
0.00999
0.01499
0.01998
0.01499
0.01499
0.01499
0.01998
0.01374
0.00375
-0.00624
-0.01499
-0.02123
-0.02998
-0.02998
-0.02623
-0.03622
-0.04496
-0.05121
-0.06120
-0.07619
-0.08493
-0.08493
-0.07869
-0.06994
-0.06245
-0.03622
-0.00874
0.00500
0.00000
-0.00500
-0.00500
0.00000
-0.00500
-0.00500
-0.00999
-0.01499
-0.01998
-0.02248
-0.04496
-0.09867
-0.17111
-0.15362
0.07369
0.44588
0.76812
0.81558
0.56453
0.22481
-0.00999
-0.10616
-0.11366
-0.09867
-0.08993
-0.08493
-0.08993
-0.09492
-0.09492
-0.09992
-0.10491
-0.10491
-0.10117
-0.10991
-0.11491
-0.11491
-0.11491
-0.12115
-0.12989
-0.13489
-0.14113
-0.15113
-0.16611
-0.17610
-0.18610
-0.19609
-0.21108
-0.22107
-0.23606
-0.24605
-0.25604
-0.26103
-0.26478
-0.26603
-0.26978
-0.26978
-0.26978
-0.26978
-0.26978
-0.26353
-0.24355
-0.22731
-0.20233
-0.17735
-0.14113
-0.10242
-0.06744
-0.03872
-0.01873
0.00125
0.01998
0.02498
0.02998
0.03622
0.04496
0.03997
0.03997
0.04496
0.04496
0.04996
0.04496
0.04496
0.04996
0.04996
0.04996
0.04996
0.04996
0.04996
0.04996
0.04996
0.04996
0.04996
0.04496
0.03997
0.03872
0.02873
0.01374
0.00000
-0.00500
-0.00999
-0.00500
0.00250
0.03747
0.07119
0.07993
0.07993
0.07494
0.07494
0.06994
0.06495
0.05995
0.05995
0.05495
0.05495
0.04371
0.02248
-0.02498
-0.09992
-0.08618
0.14988
0.54705
0.88427
0.92923
0.65196
0.26853
0.00999
-0.07494
-0.06370
-0.04996
-0.04496
-0.04496
-0.04996
-0.04996
-0.05495
-0.05995
-0.05995
-0.05995
-0.06495
-0.06994
-0.07494
-0.07494
-0.07993
-0.08993
-0.09492
-0.09992
-0.10991
-0.12115
-0.13614
-0.14988
-0.16112
-0.17111
-0.18110
-0.19109
-0.20108
-0.20983
-0.21482
-0.21982
-0.22606
-0.23481
-0.23980
-0.24480
-0.23980
-0.23481
-0.23481
-0.22481
-0.20983
-0.19359
-0.17361
-0.14363
-0.10866
-0.07869
-0.05870
-0.03372
-0.00999
0.00000
0.00999
0.01499
0.01998
0.02998
0.03497
0.03497
0.03497
0.03997
0.03997
0.02998
0.03497
0.03997
0.04496
0.03997
0.03997
0.03997
0.04496
0.04496
0.04496
0.04496
0.03497
0.02998
0.01998
0.01998
0.00999
0.00000
-0.01499
-0.01998
-0.01998
-0.00999
0.01124
0.03622
0.05995
0.06994
0.05995
0.05995
0.06495
0.05495
0.05495
0.04996
0.04996
0.04496
0.04496
0.03497
0.01374
-0.04122
-0.10366
-0.06495
0.18235
0.54580
0.82057
0.81558
0.54830
0.22107
0.00375
-0.06495
-0.06495
-0.04996
-0.04996
-0.05495
-0.05995
-0.05495
-0.04496
-0.04996
-0.05495
-0.05995
-0.05995
-0.06994
-0.06994
-0.06994
-0.07494
-0.08493
-0.08493
-0.09492
-0.09992
-0.11491
-0.11990
-0.12989
-0.13988
-0.15487
-0.16486
-0.17486
-0.17985
-0.18984
-0.19984
-0.20483
-0.20483
-0.20983
-0.20983
-0.20983
-0.20983
-0.20983
-0.20983
-0.19984
-0.18984
-0.16986
-0.14488
-0.12490
-0.09492
-0.06495
-0.04996
-0.02998
-0.01499
0.00000
0.00999
0.01499
0.01998
0.02498
0.02998
0.02998
0.02998
0.02498
0.01998
0.01998
0.02498
0.02498
0.02498
0.02498
0.02498
0.02498
0.01998
0.01998
0.01998
0.02498
0.01998
0.01499
0.00999
0.00500
-0.00500
-0.01998
-0.03497
-0.03497
-0.02998
-0.01998
0.00000
0.03497
0.05495
0.05495
0.05495
0.04996
0.04996
0.04496
0.04496
0.04496
0.03997
0.03497
0.02998
0.01998
-0.00500
-0.06370
-0.13364
-0.06620
0.21857
0.59701
0.85929
0.82057
0.51707
0.18235
-0.01998
-0.07369
-0.06495
-0.04996
-0.04496
-0.04996
-0.05495
-0.05495
-0.05995
-0.05995
-0.06495
-0.06495
-0.06994
-0.06994
-0.07494
-0.07993
-0.08993
-0.09492
-0.10491
-0.10991
-0.11990
-0.12989
-0.14488
-0.15487
-0.15987
-0.16986
-0.18984
-0.19984
-0.20983
-0.21982
-0.22981
-0.23481
-0.23481
-0.23980
-0.24480
-0.24979
-0.24480
-0.24480
-0.24480
-0.23481
-0.22107
-0.20608
-0.18110
-0.15612
-0.12115
-0.09117
-0.06620
-0.04621
-0.03122
-0.01124
0.00000
0.00500
0.00999
0.01499
0.01998
0.01998
0.01998
0.01998
0.01998
0.01998
0.01998
0.01499
0.01499
0.00500
0.00999
0.01499
0.01998
0.01998
0.01998
0.01998
0.00999
0.00500
0.00000
-0.00500
-0.00999
-0.02873
-0.04371
-0.04496
-0.03997
-0.02623
0.00749
0.03872
0.05371
0.05495
0.04496
0.04496
0.04496
0.04496
0.03997
0.03997
0.03497
0.02998
0.02498
0.01124
-0.03247
-0.10991
-0.12864
0.07619
0.45587
0.81308
0.91924
0.69068
0.30974
0.03247
-0.07369
-0.07993
-0.06120
-0.05121
-0.05495
-0.05995
-0.05995
-0.06495
-0.06495
-0.06994
-0.07494
-0.07494
-0.08368
-0.08493
-0.08993
-0.09492
-0.09992
-0.10866
-0.11990
-0.12490
-0.13489
-0.14863
-0.15987
-0.16486
-0.17486
-0.18859
-0.20358
-0.20983
-0.21982
-0.22981
-0.23980
-0.24979
-0.25979
-0.26478
-0.26978
-0.26978
-0.26478
-0.25979
-0.25104
-0.24105
-0.22107
-0.19734
-0.17236
-0.14238
-0.10741
-0.08243
-0.05745
-0.03622
-0.02123
-0.00624
0.00375
0.00500
0.00999
0.01499
0.01998
0.01998
0.01998
0.01998
0.02498
0.02498
0.01998
0.01998
0.02498
0.02998
0.02998
0.02998
0.03497
0.02998
0.02123
0.01998
0.01998
0.01499
0.00624
-0.00375
-0.01873
-0.03372
-0.03497
-0.02623
-0.00250
0.02248
0.04246
0.05371
0.05495
0.05495
0.04996
0.04496
0.04496
0.04996
0.04996
0.04496
0.03122
0.02498
0.00250
-0.04496
-0.10366
-0.07369
0.14988
0.50209
0.79934
0.83431
0.58826
0.25604
0.01873
-0.06370
-0.06495
-0.05121
-0.04496
-0.04496
-0.04496
-0.04996
-0.05495
-0.05495
-0.05995
-0.06495
-0.06994
-0.06994
-0.06994
-0.07494
-0.08368
-0.08493
-0.08993
-0.09867
-0.10866
-0.11491
-0.12365
-0.13364
-0.14363
-0.15362
-0.16362
-0.17361
-0.18859
-0.19859
-0.20483
-0.20483
-0.20983
-0.20983
-0.20983
-0.20983
-0.20983
-0.20983
-0.20983
-0.20108
-0.19109
-0.17236
-0.14863
-0.11865
-0.09367
-0.06869
-0.04371
-0.02248
-0.00250
0.00874
0.01873
0.02498
0.02498
0.02123
0.01998
0.02498
0.02998
0.02623
0.02123
0.01998
0.01998
0.01998
0.01998
0.01998
0.02373
0.02498
0.02498
0.02498
0.02498
0.02123
0.00749
0.00500
0.00500
-0.00375
-0.01749
-0.03247
-0.03497
-0.03497
-0.02623
-0.00749
0.02498
0.04746
0.05371
0.05121
0.04621
0.04496
0.04496
0.04496
0.04496
0.03622
0.03122
0.02623
0.02123
0.00250
-0.05620
-0.12115
-0.07869
0.15737
0.51208
0.79185
0.81683
0.57203
0.24355
0.01624
-0.06994
-0.06744
-0.05246
-0.04996
-0.05371
-0.05495
-0.05870
-0.06370
-0.06495
-0.06495
-0.06495
-0.06869
-0.07369
-0.07869
-0.08368
-0.08493
-0.09367
-0.09492
-0.10366
-0.11366
-0.12365
-0.13364
-0.14363
-0.15362
-0.16362
-0.17735
-0.18360
-0.19734
-0.20858
-0.21482
-0.21982
-0.22481
-0.22981
-0.23481
-0.23481
-0.23481
-0.23481
-0.23481
-0.22606
-0.21607
-0.19859
-0.17860
-0.15362
-0.12490
-0.09492
-0.06869
-0.04371
-0.02748
-0.01249
-0.00624
0.00375
0.00500
0.01374
0.01873
0.01998
0.01998
0.01998
0.01624
0.01124
0.01374
0.01873
0.01998
0.01998
0.01998
0.01998
0.01998
0.01998
0.01998
0.01624
0.00624
0.00500
0.00500
-0.00375
-0.01374
-0.03122
-0.03872
-0.03622
-0.02623
-0.00500
0.02873
0.04746
0.04996
0.04621
0.04496
0.04496
0.04496
0.03622
0.03122
0.03372
0.03122
0.02623
0.01624
-0.01749
-0.08618
-0.14113
-0.04746
0.25979
0.65446
0.89301
0.80434
0.47461
0.14113
-0.04246
-0.08993
-0.08243
-0.07244
-0.06994
-0.06994
-0.06994
-0.06994
-0.06994
-0.07369
-0.08368
-0.08493
-0.08493
-0.08493
-0.08868
-0.09367
-0.09867
-0.10866
-0.11865
-0.12365
-0.13364
-0.14363
-0.15737
-0.17236
-0.17860
-0.18859
-0.20233
-0.21357
-0.22357
-0.23356
-0.23855
-0.24855
-0.24979
-0.25354
-0.26353
-0.26478
-0.26103
-0.25604
-0.25104
-0.24979
-0.23356
-0.20983
-0.18485
-0.15987
-0.13489
-0.10242
-0.07119
-0.05371
-0.03372
-0.01749
-0.00749
0.00250
0.00500
0.00500
0.01249
0.01499
0.01499
0.01873
0.01998
0.01998
0.01998
0.01998
0.01998
0.01998
0.01998
0.01998
0.01998
0.01998
0.01998
0.01998
0.01624
0.01124
0.00624
0.00500
-0.00250
-0.02123
-0.03622
-0.04746
-0.04621
-0.04122
-0.01998
0.00874
0.03497
0.04746
0.05371
0.05121
0.04621
0.04122
0.03247
0.02623
0.02498
0.02498
0.02123
0.01624
0.00000
-0.04371
-0.10491
-0.10117
0.07869
0.41216
0.73065
0.81558
0.61574
0.29226
0.03747
-0.07619
-0.09117
-0.07869
-0.07119
-0.06994
-0.06994
-0.06994
-0.07369
-0.07494
-0.07869
-0.07993
-0.08368
-0.08868
-0.09367
-0.09492
-0.09492
-0.10242
-0.10866
-0.11366
-0.11865
-0.12365
-0.13239
-0.14613
-0.15737
-0.16362
-0.17610
-0.18735
-0.19734
-0.20358
-0.21232
-0.22232
-0.22481
-0.22481
-0.22481
-0.22856
-0.22606
-0.22481
-0.21732
-0.21108
-0.20233
-0.18485
-0.16112
-0.13988
-0.11990
-0.09617
-0.07119
-0.04996
-0.02998
-0.01749
-0.00749
-0.00125
0.00375
0.00500
0.00874
0.00624
0.00500
0.00500
0.00874
0.00624
0.00500
0.00874
0.01749
0.01998
0.01998
0.01998
0.02373
0.02123
0.01998
0.01998
0.01624
0.01124
0.00624
-0.00250
-0.00874
-0.01749
-0.03122
-0.03872
-0.03622
-0.02748
-0.00999
0.01749
0.03997
0.05246
0.04746
0.04122
0.03622
0.03497
0.03122
0.02998
0.02998
0.02998
0.02623
0.02123
0.00500
-0.03997
-0.10616
-0.10242
0.07744
0.39592
0.70567
0.81433
0.64197
0.32723
0.06744
-0.05371
-0.07494
-0.06370
-0.05620
-0.05870
-0.06370
-0.06495
-0.06120
-0.05995
-0.06744
-0.06994
-0.06994
-0.07369
-0.08243
-0.08493
-0.08493
-0.08868
-0.09367
-0.10242
-0.10866
-0.11740
-0.12365
-0.13239
-0.14238
-0.15237
-0.16611
-0.18110
-0.19234
-0.20233
-0.21232
-0.22232
-0.22481
-0.22481
-0.22856
-0.23356
-0.23481
-0.23481
-0.23481
-0.22731
-0.21732
-0.20108
-0.18110
-0.16112
-0.13739
-0.10491
-0.07369
-0.05121
-0.03122
-0.01374
-0.00250
0.00375
0.00874
0.01374
0.01499
0.01499
0.01124
0.01374
0.01873
0.01998
0.01624
0.01499
0.01873
0.01998
0.01998
0.01998
0.01998
0.01998
0.01998
0.01998
0.01998
0.01998
0.01624
0.01124
0.00624
-0.00250
-0.01873
-0.03247
-0.03497
-0.03497
-0.03497
-0.02498
0.00500
0.03247
0.04746
0.04621
0.04496
0.04122
0.03622
0.03122
0.02998
0.02998
0.02623
0.02123
0.01998
0.00624
-0.03497
-0.10866
-0.14488
-0.00500
0.32973
0.69817
0.86179
0.70941
0.37844
0.08993
-0.05870
-0.08993
-0.07993
-0.07119
-0.06994
-0.06994
-0.06994
-0.06994
-0.07369
-0.07869
-0.07993
-0.08368
-0.08868
-0.08993
-0.08993
-0.09367
-0.10242
-0.11241
-0.11865
-0.12365
-0.13489
-0.14738
-0.15737
-0.16736
-0.17735
-0.18984
-0.20483
-0.21357
-0.22232
-0.23231
-0.23855
-0.24730
-0.24979
-0.25354
-0.25854
-0.25979
-0.25604
-0.25104
-0.24605
-0.23855
-0.22481
-0.20358
-0.17860
-0.14613
-0.11491
-0.09117
-0.07119
-0.05495
-0.03997
-0.02873
-0.01873
-0.00874
0.00125
0.00500
0.00500
0.00500
0.01124
0.01499
0.01499
0.01499
0.01873
0.01998
0.01624
0.01499
0.01873
0.01998
0.01998
0.01998
0.01998
0.01998
0.01374
0.00375
0.00000
0.00000
-0.00624
-0.01998
-0.03497
-0.04371
-0.04496
-0.04496
-0.04122
-0.02748
0.00000
0.01998
0.03497
0.04371
0.03872
0.02873
0.02123
0.02373
0.02498
0.02123
0.01998
0.01624
0.01124
0.00000
-0.04122
-0.10242
-0.12864
-0.01374
0.26728
0.59201
0.77311
0.68069
0.39343
0.10741
-0.05870
-0.10616
-0.10366
-0.09367
-0.08618
-0.08493
-0.08868
-0.08993
-0.08993
-0.09367
-0.09867
-0.10366
-0.10866
-0.11366
-0.11865
-0.11990
-0.11990
-0.12365
-0.13114
-0.13864
-0.14613
-0.15362
-0.16112
-0.17486
-0.18610
-0.19609
-0.20608
-0.21982
-0.22856
-0.22981
-0.23356
-0.23855
-0.24605
-0.25354
-0.25479
-0.25229
-0.24979
-0.24979
-0.24730
-0.23855
-0.22856
-0.21232
-0.18984
-0.16112
-0.13739
-0.11491
-0.08993
-0.07119
-0.05620
-0.04371
-0.03747
-0.03247
-0.03372
-0.03497
-0.03247
-0.02748
-0.02873
-0.02998
-0.02748
-0.02248
-0.02373
-0.02498
-0.02498
-0.02248
-0.01998
-0.01998
-0.01998
-0.01998
-0.01998
-0.01998
-0.01749
-0.01499
-0.01749
-0.02623
-0.03247
-0.04122
-0.05371
-0.06620
-0.06994
-0.06370
-0.05995
-0.05995
-0.05121
-0.02373
0.00500
0.01749
0.01998
0.01998
0.01998
0.01749
0.00874
0.00500
0.00500
0.00500
0.00500
-0.00125
-0.01749
-0.05870
-0.12490
-0.13739
0.01998
0.33972
0.66695
0.79684
0.64447
0.33472
0.06370
-0.06994
-0.09742
-0.08618
-0.07744
-0.07744
-0.07993
-0.08243
-0.08493
-0.08493
-0.08493
-0.08493
-0.08743
-0.09242
-0.09492
-0.09492
-0.10117
-0.10741
-0.11615
-0.12240
-0.13114
-0.13489
-0.13239
-0.12989
-0.13239
-0.14363
-0.15237
-0.15737
-0.16237
-0.17361
-0.18235
-0.18735
-0.19234
-0.19734
-0.19984
-0.20233
-0.20733
-0.20983
-0.20983
-0.20358
-0.19109
-0.17610
-0.16112
-0.13988
-0.11241
-0.08243
-0.05495
-0.02998
-0.00874
0.01124
0.02248
0.02748
0.03247
0.04122
0.04496
0.04496
0.04496
0.04496
0.04496
0.04496
0.04496
0.04496
0.04496
0.04496
0.04496
0.04496
0.04246
0.03747
0.03747
0.04246
0.04496
0.04496
0.04496
0.04496
0.04246
0.03372
0.02998
0.02998
0.02373
0.00874
-0.00250
-0.00749
-0.00999
-0.01249
-0.00624
0.01998
0.04871
0.06620
0.06994
0.06744
0.06245
0.05745
0.05495
0.05246
0.04996
0.04746
0.04246
0.03747
0.02623
-0.01124
-0.07993
-0.12365
-0.00375
0.31974
0.69443
0.88427
0.76062
0.43714
0.13239
-0.03372
-0.07494
-0.06620
-0.05495
-0.05246
-0.05495
-0.05495
-0.05495
-0.05745
-0.06245
-0.06495
-0.06495
-0.06744
-0.07244
-0.07744
-0.08243
-0.08493
-0.08993
-0.09742
-0.10491
-0.11491
-0.12490
-0.13239
-0.14113
-0.15362
-0.16861
-0.18110
-0.19359
-0.20608
-0.21607
-0.22232
-0.22731
-0.23231
-0.23481
-0.23481
-0.23481
-0.23481
-0.23730
-0.23730
-0.22981
-0.21732
-0.20233
-0.18360
-0.15862
-0.12864
-0.09867
-0.07119
-0.04871
-0.03247
-0.01749
-0.00749
0.00000
0.00749
0.01499
0.01998
0.02248
0.02498
0.02498
0.02498
0.02748
0.02998
0.02998
0.02748
0.02498
0.02498
0.02498
0.02498
0.02498
0.02498
0.02248
0.01998
0.01998
0.01998
0.01749
0.00999
-0.00250
-0.01749
-0.02998
-0.03497
-0.03497
-0.03497
-0.02498
0.00375
0.03372
0.04996
0.05495
0.05246
0.04746
0.04746
0.04746
0.04246
0.03497
0.02748
0.02498
0.02248
0.00999
-0.02373
-0.07869
-0.10242
0.00874
0.28976
0.62449
0.80933
0.71566
0.42090
0.12989
-0.03122
-0.07494
-0.06994
-0.06245
-0.05995
-0.05995
-0.06245
-0.06495
-0.06495
-0.06744
-0.07244
-0.07744
-0.07744
-0.07744
-0.08243
-0.08993
-0.09492
-0.09742
-0.10491
-0.11241
-0.11740
-0.12490
-0.13489
-0.14738
-0.15987
-0.16736
-0.17486
-0.18235
-0.18984
-0.19734
-0.19984
-0.20483
-0.20983
-0.20983
-0.20983
-0.20983
-0.20983
-0.20983
-0.20733
-0.19984
-0.18735
-0.16736
-0.13988
-0.11491
-0.09242
-0.06744
-0.04246
-0.02248
-0.00749
0.00500
0.01499
0.01998
0.01998
0.01998
0.02248
0.02498
0.02498
0.02248
0.01998
0.01998
0.01998
0.01998
0.01998
0.02248
0.02248
0.01998
0.02248
0.02498
0.02248
0.01998
0.01998
0.01998
0.01749
0.00999
0.00250
-0.00500
-0.01749
-0.02998
-0.03247
-0.02748
-0.01998
-0.00250
0.02248
0.04246
0.05246
0.05246
0.04746
0.04496
0.04496
0.03997
0.03247
0.02998
0.02998
0.02748
0.01998
-0.00125
-0.05371
-0.12115
-0.11241
0.07619
0.41466
0.72690
0.80933
0.61449
0.29725
0.04871
-0.06120
-0.07993
-0.06744
-0.05995
-0.05995
-0.06495
-0.06994
-0.06994
-0.06994
-0.06994
-0.06994
-0.07244
-0.07993
-0.08743
-0.09242
-0.09742
-0.10242
-0.10741
-0.11241
-0.11740
-0.12739
-0.13739
-0.14738
-0.15987
-0.16986
-0.17985
-0.19234
-0.20233
-0.20983
-0.21982
-0.22731
-0.23231
-0.23730
-0.24480
-0.24979
-0.24979
-0.24480
-0.23730
-0.23481
-0.22981
-0.21607
-0.19609
-0.17361
-0.14613
-0.11366
-0.08618
-0.06620
-0.04371
-0.02373
-0.00999
-0.00500
-0.00250
0.00500
0.01499
0.01998
0.01998
0.01998
0.01998
0.01998
0.01998
0.01998
0.02248
0.02748
0.02998
0.02748
0.02498
0.02498
0.02498
0.02748
0.03247
0.03497
0.02998
0.02248
0.01374
-0.00125
-0.01624
-0.02998
-0.03497
-0.03247
-0.02373
-0.00375
0.02373
0.04496
0.04746
0.04246
0.03997
0.03747
0.02998
0.02248
0.01998
0.01998
0.01749
0.00999
-0.00125
-0.02998
-0.08743
-0.13489
-0.04871
0.24105
0.61699
0.85305
0.78186
0.46711
0.13739
-0.05121
-0.10242
-0.09117
-0.07619
-0.07494
-0.08243
-0.08243
-0.07993
-0.08243
-0.08743
-0.08993
-0.08993
-0.09242
-0.09492
-0.09742
-0.10242
-0.10741
-0.11241
-0.11740
-0.12490
-0.13489
-0.14613
-0.16112
-0.17486
-0.18485
-0.19609
-0.20733
-0.21232
-0.22107
-0.23481
-0.24480
-0.24979
-0.25229
-0.25729
-0.26228
-0.26728
-0.26978
-0.26728
-0.26478
-0.25854
-0.24105
-0.22357
-0.20483
-0.17735
-0.14738
-0.11740
-0.08743
-0.06120
-0.03997
-0.02248
-0.01624
-0.00749
-0.00125
0.00749
0.01249
0.01749
0.01998
0.01998
0.01998
0.01998
0.01998
0.01998
0.01998
0.01998
0.01998
0.02248
0.02498
0.02498
0.02498
0.02248
0.01998
0.01624
0.00624
-0.00250
-0.01124
-0.02623
-0.03497
-0.03122
-0.01749
0.00874
0.03997
0.06120
0.06744
0.06120
0.05121
0.04496
0.04746
0.04746
0.04246
0.03622
0.02748
0.02248
0.01624
-0.00375
-0.04746
-0.09242
-0.04996
0.17111
0.51083
0.77811
0.78435
0.53331
0.21607
0.00250
-0.07619
-0.07744
-0.06245
-0.05995
-0.06245
-0.06744
-0.07244
-0.07494
-0.07494
-0.07744
-0.07993
-0.08243
-0.08868
-0.09492
-0.09742
-0.10242
-0.10866
-0.11740
-0.12240
-0.12864
-0.13739
-0.14613
-0.15737
-0.16237
-0.16861
-0.18110
-0.19359
-0.20233
-0.20858
-0.21857
-0.22856
-0.23481
-0.23481
-0.23356
-0.22856
-0.22481
-0.22481
-0.22107
-0.21108
-0.19984
-0.18235
-0.16112
-0.13364
-0.10616
-0.08118
-0.05620
-0.03497
-0.01998
-0.00624
0.00500
0.01749
0.01998
0.02248
0.02498
0.02373
0.01998
0.01998
0.02123
0.02498
0.02373
0.01998
0.01998
0.01998
0.01998
0.01998
0.02123
0.02498
0.02373
0.01873
0.01374
0.00624
-0.00375
-0.01499
-0.02873
-0.03497
-0.03372
-0.02623
-0.01124
0.01624
0.03997
0.05121
0.05495
0.05371
0.04871
0.04371
0.03997
0.03997
0.03622
0.02873
0.02373
0.01873
0.00624
-0.03122
-0.08993
-0.09867
0.04621
0.34846
0.66695
0.80683
0.67070
0.36720
0.09492
-0.04246
-0.07119
-0.05995
-0.04871
-0.04871
-0.05620
-0.05995
-0.05995
-0.05995
-0.05995
-0.05995
-0.06120
-0.06620
-0.06994
-0.07119
-0.07869
-0.08493
-0.08493
-0.08868
-0.09867
-0.10866
-0.11865
-0.12864
-0.13864
-0.14988
-0.16362
-0.17361
-0.18360
-0.19359
-0.20108
-0.20733
-0.21357
-0.22232
-0.22481
-0.22481
-0.22481
-0.22481
-0.22357
-0.21607
-0.20608
-0.19359
-0.17361
-0.15113
-0.12490
-0.09492
-0.06620
-0.04122
-0.01998
-0.00624
0.00125
0.00999
0.02123
0.02373
0.01998
0.02123
0.02498
0.02498
0.02373
0.01998
0.01998
0.01998
0.01998
0.01998
0.02123
0.02623
0.02998
0.02998
0.02873
0.02373
0.01998
0.01873
0.01374
0.00624
-0.00500
-0.02123
-0.03497
-0.03372
-0.02498
-0.00500
0.02623
0.05495
0.06620
0.06620
0.05870
0.05495
0.05121
0.04496
0.04496
0.04496
0.04371
0.03622
0.02498
0.00125
-0.05495
-0.11740
-0.07619
0.16861
0.53956
0.82182
0.81433
0.53581
0.20483
-0.00125
-0.07119
-0.06869
-0.05246
-0.04621
-0.05371
-0.05995
-0.05995
-0.05995
-0.06120
-0.06495
-0.06495
-0.06620
-0.07369
-0.08118
-0.08493
-0.08618
-0.09117
-0.09617
-0.10366
-0.11116
-0.11990
-0.13364
-0.14363
-0.15487
-0.16986
-0.18360
-0.19484
-0.20608
-0.21482
-0.22856
-0.23481
-0.23481
-0.23855
-0.24605
-0.24979
-0.24979
-0.24855
-0.24355
-0.23730
-0.22357
-0.20233
-0.17860
-0.15612
-0.12615
-0.09617
-0.06744
-0.04371
-0.02373
-0.00749
0.00125
0.00749
0.01624
0.02123
0.02623
0.02998
0.02998
0.02998
0.02998
0.02873
0.02498
0.02623
0.02998
0.02998
0.02998
0.02998
0.02998
0.02873
0.02373
0.01998
0.01873
0.01249
0.00125
-0.01374
-0.02623
-0.02998
-0.02873
-0.01624
0.01374
0.04246
0.06245
0.06869
0.06370
0.05870
0.05495
0.05495
0.05371
0.04871
0.04122
0.02998
0.02873
0.01998
-0.01124
-0.07369
-0.11241
-0.00500
0.30350
0.67444
0.90051
0.81308
0.47586
0.13864
-0.04122
-0.08243
-0.07244
-0.06370
-0.06120
-0.06495
-0.06495
-0.06620
-0.06994
-0.06994
-0.07119
-0.07744
-0.08618
-0.08993
-0.09117
-0.09617
-0.10242
-0.11116
-0.11615
-0.12240
-0.13114
-0.13614
-0.14363
-0.15862
-0.17236
-0.18235
-0.19234
-0.20233
-0.21357
-0.22606
-0.23106
-0.23606
-0.24230
-0.25104
-0.25479
-0.25479
-0.25354
-0.24855
-0.24230
-0.23231
-0.21982
-0.19859
-0.17236
-0.14238
-0.11241
-0.08368
-0.05995
-0.03997
-0.02248
-0.01249
-0.00250
0.00624
0.01124
0.01499
0.01499
0.01624
0.01998
0.01998
0.01998
0.02123
0.02498
0.02373
0.01998
0.01998
0.01998
0.01998
0.01998
0.01873
0.01374
0.00874
0.00250
-0.00624
-0.01374
-0.02748
-0.03497
-0.02998
-0.00874
0.01749
0.04371
0.05495
0.05371
0.04996
0.04871
0.04496
0.04621
0.04871
0.04371
0.03997
0.03872
0.03247
0.01624
-0.02248
-0.07619
-0.09117
0.03247
0.31974
0.64946
0.81558
0.70067
0.40092
0.11241
-0.04122
-0.07869
-0.07119
-0.05745
-0.04871
-0.04746
-0.05620
-0.05995
-0.05745
-0.05246
-0.06120
-0.06495
-0.06620
-0.06994
-0.07244
-0.08118
-0.08493
-0.08743
-0.09617
-0.10242
-0.11116
-0.11740
-0.12739
-0.13864
-0.15237
-0.16112
-0.16861
-0.18360
-0.19609
-0.20108
-0.20608
-0.20983
-0.20983
-0.20983
-0.20983
-0.20983
-0.20983
-0.20858
-0.20233
-0.19234
-0.18235
-0.16486
-0.13739
-0.10366
-0.07619
-0.05495
-0.03122
-0.01124
0.00250
0.01249
0.02123
0.02623
0.02873
0.02373
0.01998
0.01998
0.01998
0.01998
0.01998
0.02123
0.02373
0.01998
0.02123
0.02498
0.02373
0.01998
0.01998
0.01873
0.01249
0.00375
-0.00250
-0.01249
-0.02748
-0.03497
-0.03247
-0.02123
0.00125
0.02998
0.05121
0.05620
0.05870
0.05371
0.04871
0.04496
0.04496
0.04496
0.04371
0.03997
0.03747
0.02748
0.01249
-0.03247
-0.08993
-0.08118
0.10242
0.42840
0.74064
0.83181
0.62698
0.29101
0.04246
-0.05246
-0.06245
-0.04871
-0.04371
-0.04122
-0.04621
-0.04996
-0.04996
-0.05246
-0.06120
-0.06495
-0.06495
-0.06620
-0.07119
-0.07744
-0.08493
-0.08743
-0.09617
-0.10242
-0.11116
-0.11740
-0.12739
-0.13864
-0.15612
-0.16237
-0.17735
-0.18735
-0.20108
-0.20608
-0.21232
-0.22232
-0.23106
-0.23481
-0.23606
-0.24105
-0.24480
-0.24355
-0.23855
-0.23481
-0.23106
-0.21108
-0.18859
-0.15487
-0.12615
-0.09992
-0.07119
-0.05121
-0.03247
-0.01749
-0.00375
0.00624
0.01124
0.01998
0.01998
0.01998
0.01998
0.01998
0.01998
0.01998
0.01998
0.01998
0.02123
0.02498
0.02373
0.01998
0.01998
0.01998
0.01998
0.01873
0.00874
-0.00125
-0.01374
-0.03122
-0.03497
-0.03372
-0.02123
0.00000
0.02873
0.05121
0.05371
0.04871
0.04496
0.04496
0.04371
0.03872
0.02998
0.02998
0.02873
0.02373
0.01749
-0.00874
-0.06620
-0.12365
-0.07744
0.18735
0.57702
0.86304
0.83431
0.52831
0.17860
-0.03122
-0.09367
-0.08743
-0.06869
-0.05995
-0.06120
-0.06620
-0.06994
-0.06994
-0.06994
-0.07119
-0.07619
-0.08118
-0.08493
-0.08618
-0.09117
-0.09617
-0.10616
-0.11615
-0.12115
-0.12615
-0.13739
-0.15113
-0.16112
-0.17111
-0.18235
-0.19734
-0.21108
-0.21607
-0.22606
-0.23730
-0.24979
-0.25104
-0.25604
-0.26103
-0.26478
-0.26478
-0.26478
-0.25854
-0.24855
-0.23730
-0.21607
-0.19109
-0.16486
-0.13114
-0.10117
-0.07744
-0.05745
-0.03747
-0.02248
-0.00874
-0.00500
-0.00375
0.00125
0.00500
0.00624
0.01124
0.01624
0.01998
0.01998
0.01998
0.01998
0.01998
0.01998
0.01499
0.01499
0.01499
0.00999
0.00500
0.00500
-0.00125
-0.01749
-0.03622
-0.04496
-0.03997
-0.03247
-0.01124
0.02248
0.04621
0.05495
0.04996
0.04496
0.04621
0.04996
0.04496
0.03997
0.03997
0.03997
0.03497
0.02748
0.00500
-0.03872
-0.10616
-0.09242
0.12864
0.50708
0.84181
0.90176
0.63697
0.26353
0.00874
-0.08118
-0.08368
-0.06869
-0.05995
-0.06495
-0.06994
-0.06994
-0.06495
-0.06994
-0.07494
-0.07993
-0.08493
-0.08618
-0.09492
-0.09492
-0.09617
-0.10491
-0.11116
-0.11990
-0.12615
-0.14113
-0.15612
-0.16611
-0.17610
-0.18735
-0.20608
-0.21607
-0.22606
-0.23606
-0.24105
-0.25104
-0.25604
-0.26103
-0.26478
-0.26478
-0.26478
-0.26478
-0.26353
-0.25354
-0.24355
-0.22232
-0.19734
-0.16736
-0.13614
-0.10117
-0.06744
-0.03872
-0.01873
-0.00999
-0.00500
-0.00500
-0.00375
0.00500
0.00999
0.01499
0.01499
0.01998
0.01998
0.01998
0.01998
0.01998
0.02498
0.01998
0.01998
0.02498
0.02373
0.01374
0.00500
0.00500
-0.00125
-0.01624
-0.03622
-0.04496
-0.03872
-0.02248
0.00250
0.03122
0.04996
0.05495
0.04996
0.04496
0.04496
0.04496
0.03872
0.02998
0.03122
0.03997
0.03872
0.02748
0.00125
-0.05495
-0.10741
-0.06245
0.18235
0.54705
0.82057
0.80434
0.52582
0.19984
-0.00125
-0.07494
-0.07369
-0.05371
-0.04621
-0.05620
-0.06495
-0.06495
-0.06495
-0.06495
-0.06994
-0.06994
-0.06994
-0.07619
-0.08493
-0.08993
-0.08993
-0.09617
-0.10991
-0.11491
-0.11615
-0.12615
-0.13614
-0.14613
-0.15612
-0.16611
-0.17985
-0.18485
-0.19109
-0.20108
-0.20983
-0.20983
-0.21482
-0.20983
-0.21482
-0.21982
-0.21982
-0.21482
-0.20983
-0.19984
-0.18859
-0.16861
-0.14363
-0.12365
-0.08868
-0.05870
-0.03872
-0.02373
-0.00874
0.00500
0.01499
0.01998
0.01998
0.01998
0.01998
0.01998
0.01998
0.01998
0.02498
0.02498
0.02498
0.02498
0.02498
0.02498
0.02498
0.02498
0.01998
0.01998
0.00999
0.00000
-0.00999
-0.01998
-0.02498
-0.02498
-0.01374
0.00624
0.03622
0.05995
0.06994
0.06495
0.05495
0.04996
0.04996
0.05495
0.04996
0.04496
0.04496
0.04496
0.03872
0.01873
-0.02748
-0.08493
-0.09367
0.07244
0.40716
0.74938
0.87428
0.68818
0.34596
0.07619
-0.04122
-0.05995
-0.04996
-0.03997
-0.03997
-0.04496
-0.04496
-0.04496
-0.04496
-0.04996
-0.05495
-0.05495
-0.05495
-0.06495
-0.06994
-0.07494
-0.07494
-0.08493
-0.09492
-0.09992
-0.10991
-0.11990
-0.12989
-0.14488
-0.15987
-0.16986
-0.17985
-0.18984
-0.19984
-0.20483
-0.20983
-0.21982
-0.22481
-0.22481
-0.22481
-0.22481
-0.22481
-0.22481
-0.21982
-0.20983
-0.19484
-0.16986
-0.14488
-0.11491
-0.08993
-0.06495
-0.03997
-0.01998
-0.00500
0.00500
0.01499
0.01998
0.01998
0.01998
0.01998
0.01998
0.01998
0.01998
0.02498
0.02498
0.02498
0.02498
0.02998
0.02998
0.02498
0.01998
0.01998
0.01998
0.01499
0.00500
0.00000
-0.01499
-0.03497
-0.03497
-0.03497
-0.01499
0.00999
0.03997
0.04996
0.05495
0.05495
0.04996
0.04996
0.04496
0.04496
0.03997
0.03997
0.03997
0.03497
0.02498
-0.01499
-0.08993
-0.12989
0.00500
0.33847
0.72315
0.90925
0.74564
0.38218
0.07744
-0.05371
-0.07993
-0.06495
-0.05995
-0.05495
-0.05995
-0.06495
-0.06495
-0.06495
-0.06495
-0.06994
-0.06994
-0.06994
-0.07494
-0.08493
-0.08493
-0.08993
-0.09492
-0.09992
-0.10991
-0.11990
-0.12989
-0.14488
-0.15487
-0.16486
-0.17985
-0.19484
-0.20483
-0.20983
-0.21482
-0.22481
-0.23481
-0.23980
-0.23980
-0.23980
-0.24480
-0.24480
-0.23980
-0.23481
-0.22981
-0.21482
-0.19609
-0.17111
-0.14613
-0.11116
-0.08118
-0.05620
-0.03497
-0.01998
-0.00500
0.00500
0.00500
0.01499
0.01998
0.01998
0.01998
0.01998
0.01998
0.01998
0.01998
0.01998
0.01998
0.01998
0.01998
0.01998
0.01998
0.01499
0.00999
0.00999
0.00000
-0.00999
-0.01998
-0.03497
-0.03997
-0.03997
-0.02123
0.00874
0.03372
0.04996
0.05495
0.04996
0.04496
0.04496
0.04496
0.03997
0.03497
0.02998
0.02998
0.02998
0.01624
-0.01873
-0.08243
-0.13239
-0.02998
0.30475
0.71691
0.93548
0.80184
0.44214
0.11990
-0.04746
-0.08368
-0.07119
-0.05995
-0.05995
-0.06495
-0.06495
-0.06495
-0.06495
-0.06994
-0.06994
-0.07494
-0.07993
-0.08493
-0.08493
-0.09492
-0.09992
-0.10991
-0.11990
-0.11990
-0.12989
-0.13988
-0.15362
-0.16861
-0.18360
-0.18984
-0.19984
-0.21357
-0.22481
-0.22981
-0.23980
-0.24979
-0.25479
-0.25479
-0.26478
-0.26478
-0.26478
-0.25979
-0.25104
-0.24480
-0.23106
-0.20608
-0.18110
-0.14738
-0.11740
-0.08243
-0.05620
-0.04122
-0.02623
-0.01624
-0.00624
0.00000
0.00500
0.00999
0.01499
0.01499
0.01499
0.01499
0.01998
0.01998
0.01998
0.01998
0.01998
0.01998
0.01998
0.01998
0.01499
0.00999
0.00999
0.00500
-0.00375
-0.01873
-0.03372
-0.03997
-0.03997
-0.02623
0.00749
0.04246
0.05371
0.05495
0.04621
0.03622
0.03497
0.03997
0.03997
0.03497
0.02998
0.02998
0.02123
0.01499
-0.00375
-0.04621
-0.09992
-0.04996
0.18859
0.55329
0.83181
0.82307
0.54080
0.20858
-0.00749
-0.07993
-0.07619
-0.06620
-0.05995
-0.06495
-0.06495
-0.06495
-0.06495
-0.06994
-0.07494
-0.08368
-0.08493
-0.08493
-0.08993
-0.09492
-0.09492
-0.09992
-0.10866
-0.11491
-0.11990
-0.12864
-0.14363
-0.15362
-0.15987
-0.16861
-0.18360
-0.18984
-0.19859
-0.19984
-0.20858
-0.20983
-0.21482
-0.21482
-0.21982
-0.21982
-0.21607
-0.21108
-0.20983
-0.20608
-0.19109
-0.17236
-0.14738
-0.12240
-0.10242
-0.07369
-0.04746
-0.02748
-0.01124
-0.00125
0.00874
0.00999
0.00500
0.00500
0.00999
0.00999
0.01499
0.01998
0.01998
0.01998
0.01998
0.01998
0.01998
0.01998
0.01998
0.01998
0.01124
0.00500
0.00000
-0.00874
-0.01873
-0.02873
-0.03497
-0.03497
-0.02123
-0.00250
0.03122
0.04871
0.05495
0.05495
0.05121
0.04996
0.04996
0.04621
0.04496
0.04122
0.03622
0.03122
0.02623
0.00250
-0.03497
-0.09242
-0.10491
0.04871
0.35471
0.68444
0.82182
0.65946
0.34222
0.07744
-0.04621
-0.07369
-0.07119
-0.06120
-0.05121
-0.05495
-0.05995
-0.05995
-0.05995
-0.06869
-0.06994
-0.06994
-0.06994
-0.07869
-0.08493
-0.08993
-0.08993
-0.09492
-0.10741
-0.11865
-0.12490
-0.13364
-0.14363
-0.15362
-0.16362
-0.17361
-0.18360
-0.19359
-0.19984
-0.20858
-0.21482
-0.22357
-0.22981
-0.22981
-0.23481
-0.23481
-0.23481
-0.22606
-0.22107
-0.21108
-0.19734
-0.17361
-0.14863
-0.11990
-0.09367
-0.06869
-0.04371
-0.02748
-0.01249
-0.00125
0.00375
0.00874
0.00999
0.00999
0.01374
0.01499
0.01124
0.00999
0.01873
0.01624
0.00624
0.00500
0.01374
0.01873
0.01998
0.01998
0.01624
0.01124
0.00624
0.00125
-0.00874
-0.02748
-0.03872
-0.04371
-0.03247
-0.01374
0.01124
0.03622
0.04871
0.05371
0.05121
0.04621
0.04122
0.03997
0.03122
0.02998
0.02998
0.02998
0.02123
0.00749
-0.02873
-0.09367
-0.13489
-0.00624
0.32099
0.69817
0.87678
0.72815
0.38593
0.08743
-0.05995
-0.08868
-0.07744
-0.06620
-0.06120
-0.05995
-0.06370
-0.06495
-0.06495
-0.06869
-0.07369
-0.07869
-0.07993
-0.08368
-0.08868
-0.09367
-0.09867
-0.10866
-0.11865
-0.12365
-0.12864
-0.13864
-0.15237
-0.16736
-0.18235
-0.19359
-0.20358
-0.21732
-0.22357
-0.23356
-0.24355
-0.24855
-0.24979
-0.24979
-0.25854
-0.25979
-0.25979
-0.25604
-0.25104
-0.24230
-0.22357
-0.19984
-0.17486
-0.14113
-0.10991
-0.07993
-0.05870
-0.04246
-0.02748
-0.01249
-0.00125
0.00375
0.00500
0.00874
0.01873
0.01998
0.01624
0.01499
0.01499
0.01873
0.01998
0.01998
0.01998
0.01998
0.01624
0.01124
0.00624
0.00125
-0.00375
-0.00500
-0.01249
-0.03122
-0.04746
-0.04996
-0.04246
-0.02748
0.00375
0.03372
0.04746
0.04996
0.04621
0.04496
0.04496
0.04122
0.03622
0.03122
0.02998
0.02248
0.01624
0.00749
-0.02748
-0.09117
-0.13239
-0.01998
0.29226
0.67195
0.88927
0.78186
0.43839
0.11740
-0.04871
-0.08743
-0.07369
-0.06245
-0.05995
-0.06744
-0.07369
-0.07869
-0.07619
-0.07494
-0.07869
-0.08368
-0.08868
-0.09367
-0.10242
-0.10866
-0.10991
-0.11366
-0.12240
-0.13239
-0.13864
-0.14738
-0.15737
-0.17236
-0.18235
-0.19234
-0.20733
-0.21732
-0.22357
-0.22856
-0.23730
-0.24730
-0.24979
-0.24979
-0.24979
-0.24979
-0.24979
-0.24979
-0.24230
-0.23606
-0.22357
-0.20108
-0.16736
-0.13614
-0.11116
-0.08118
-0.05995
-0.04371
-0.02873
-0.01374
-0.00624
0.00250
0.00500
0.00500
0.01249
0.01499
0.01124
0.01374
0.01873
0.01998
0.01624
0.01873
0.02373
0.02123
0.01998
0.01624
0.00749
0.00125
-0.00375
-0.00874
-0.01749
-0.03122
-0.04621
-0.04996
-0.03872
-0.01249
0.01749
0.03622
0.04746
0.04621
0.04122
0.03247
0.02998
0.02623
0.02498
0.02498
0.02498
0.02498
0.01749
0.00375
-0.03372
-0.08993
-0.11990
-0.00375
0.28477
0.61824
0.79434
0.68943
0.40716
0.12989
-0.02498
-0.07744
-0.07369
-0.06245
-0.05620
-0.05870
-0.05995
-0.05995
-0.05995
-0.05995
-0.06370
-0.06869
-0.06994
-0.07369
-0.07869
-0.07993
-0.07993
-0.08743
-0.09367
-0.10242
-0.10866
-0.11740
-0.12739
-0.14113
-0.15612
-0.16736
-0.17735
-0.18360
-0.18859
-0.19734
-0.20733
-0.21357
-0.21108
-0.20983
-0.20983
-0.20983
-0.20983
-0.20983
-0.20233
-0.18859
-0.17361
-0.15113
-0.12240
-0.09992
-0.07619
-0.04746
-0.02873
-0.01374
-0.00250
0.01124
0.01873
0.01998
0.01998
0.01998
0.02373
0.02123
0.01998
0.01998
0.01998
0.01998
0.01998
0.02373
0.02873
0.02623
0.02123
0.01998
0.01624
0.01499
0.01124
0.00624
-0.00250
-0.01249
-0.02998
-0.03122
-0.02248
-0.00500
0.01873
0.04371
0.05745
0.05995
0.05620
0.05121
0.04996
0.04996
0.04621
0.04496
0.04122
0.03997
0.03622
0.02123
-0.00999
-0.06370
-0.11241
-0.03122
0.23481
0.58327
0.81058
0.75937
0.47960
0.17361
-0.00999
-0.06370
-0.06245
-0.04871
-0.04122
-0.04371
-0.04871
-0.04996
-0.04996
-0.05745
-0.05995
-0.05995
-0.05995
-0.06370
-0.06869
-0.07369
-0.07869
-0.08368
-0.09242
-0.09867
-0.10366
-0.11241
-0.12615
-0.14113
-0.14863
-0.16112
-0.17610
-0.18735
-0.18984
-0.19359
-0.20233
-0.20858
-0.21357
-0.21482
-0.22232
-0.22481
-0.22481
-0.22481
-0.21857
-0.20858
-0.18735
-0.16237
-0.14113
-0.12115
-0.09742
-0.07244
-0.04746
-0.02623
-0.00624
0.00749
0.01749
0.01998
0.01998
0.02373
0.02498
0.02123
0.01998
0.01998
0.02373
0.02498
0.02123
0.02373
0.02498
0.02123
0.01998
0.01998
0.02373
0.02123
0.01624
0.01499
0.01124
0.00375
-0.00999
-0.02873
-0.03872
-0.03622
-0.02873
-0.00500
0.02498
0.04496
0.04996
0.04621
0.04496
0.04496
0.03872
0.03122
0.02998
0.02998
0.02998
0.02623
0.02123
0.00250
-0.05246
-0.12615
-0.10991
0.11366
0.48085
0.79310
0.83556
0.59576
0.25979
0.01873
-0.07244
-0.07494
-0.05620
-0.04996
-0.05620
-0.06370
-0.06495
-0.06869
-0.06994
-0.06994
-0.06994
-0.07369
-0.07494
-0.08118
-0.08493
-0.08868
-0.09617
-0.10616
-0.11366
-0.12115
-0.13489
-0.14613
-0.15612
-0.16611
-0.17985
-0.19109
-0.20108
-0.21108
-0.22107
-0.23106
-0.23481
-0.23855
-0.24605
-0.25354
-0.25479
-0.25479
-0.25229
-0.24979
-0.23980
-0.22232
-0.20483
-0.18735
-0.15987
-0.12739
-0.09867
-0.07369
-0.05495
-0.03747
-0.01998
-0.00874
-0.00125
0.00375
0.00874
0.01624
0.01998
0.01998
0.01998
0.01998
0.01998
0.01998
0.01998
0.01998
0.01998
0.01998
0.01998
0.01998
0.00999
0.00125
0.00375
-0.00125
-0.01124
-0.02498
-0.03997
-0.04496
-0.04496
-0.03497
-0.00125
0.03372
0.05121
0.04871
0.04122
0.03622
0.03497
0.03122
0.02998
0.02623
0.02498
0.02123
0.01624
0.01124
-0.01249
-0.06994
-0.11366
-0.02248
0.25104
0.60700
0.83806
0.78061
0.48335
0.15987
-0.02873
-0.08118
-0.07244
-0.06245
-0.05995
-0.06370
-0.06495
-0.06869
-0.06994
-0.06994
-0.06744
-0.06869
-0.07369
-0.07869
-0.08368
-0.09117
-0.09867
-0.10366
-0.10866
-0.11615
-0.12615
-0.13614
-0.14613
-0.15362
-0.16112
-0.17735
-0.19109
-0.19859
-0.20608
-0.21357
-0.22107
-0.22856
-0.23356
-0.23481
-0.23481
-0.23481
-0.23481
-0.23481
-0.22856
-0.21857
-0.20233
-0.18235
-0.16237
-0.13364
-0.10117
-0.08118
-0.06245
-0.03997
-0.01749
-0.00749
-0.00250
0.00250
0.01124
0.00874
0.00500
0.00749
0.01249
0.01749
0.01998
0.01998
0.02248
0.02248
0.01998
0.01998
0.01998
0.01998
0.01374
0.00749
0.00250
-0.00250
-0.01124
-0.02373
-0.03872
-0.04746
-0.04746
-0.03622
-0.00624
0.02498
0.04122
0.04496
0.04496
0.04246
0.03747
0.03247
0.02998
0.02998
0.02998
0.02748
0.02498
0.01873
-0.00624
-0.05870
-0.11491
-0.08118
0.12240
0.44713
0.72066
0.76562
0.56204
0.26353
0.03872
-0.05995
-0.07369
-0.06370
-0.05745
-0.05495
-0.05495
-0.05745
-0.05995
-0.05995
-0.05995
-0.05995
-0.06245
-0.06495
-0.06744
-0.07869
-0.08743
-0.08993
-0.09242
-0.09742
-0.10616
-0.11615
-0.12615
-0.13614
-0.14863
-0.16112
-0.17111
-0.17735
-0.18610
-0.19609
-0.19984
-0.20233
-0.20733
-0.20983
-0.20983
-0.20983
-0.20983
-0.20983
-0.20358
-0.19359
-0.18110
-0.16362
-0.14113
-0.11615
-0.09117
-0.06620
-0.04621
-0.02873
-0.01124
0.00125
0.01124
0.01749
0.02248
0.02248
0.01998
0.01998
0.01998
0.01998
0.01998
0.02248
0.02248
0.01998
0.01998
0.01998
0.01998
0.01998
0.01998
0.01998
0.01998
0.01998
0.01374
0.00749
-0.00125
-0.01124
-0.02373
-0.03247
-0.02998
-0.01374
0.01249
0.03622
0.05121
0.05495
0.05495
0.05246
0.04996
0.04996
0.04996
0.04746
0.04246
0.03997
0.03997
0.03122
0.00000
-0.05870
-0.10616
-0.04246
0.19859
0.53706
0.78685
0.77436
0.51582
0.20733
0.01124
-0.05870
-0.06120
-0.04996
-0.04246
-0.04246
-0.04496
-0.04496
-0.04496
-0.04746
-0.05495
-0.05995
-0.05995
-0.06245
-0.06744
-0.07244
-0.07494
-0.07993
-0.08993
-0.09742
-0.10491
-0.11491
-0.12240
-0.13364
-0.14863
-0.15987
-0.16986
-0.17985
-0.18984
-0.19984
-0.20983
-0.21732
-0.21982
-0.22232
-0.22481
-0.22731
-0.22731
-0.22481
-0.21982
-0.21232
-0.20233
-0.18485
-0.15862
-0.13364
-0.10866
-0.08118
-0.05620
-0.03372
-0.01749
-0.00500
0.00250
0.00999
0.01749
0.01998
0.01998
0.01998
0.01998
0.01998
0.01998
0.01998
0.01998
0.01998
0.01998
0.01998
0.01998
0.01998
0.01998
0.01998
0.01749
0.00999
0.00500
0.00500
0.00000
-0.01499
-0.02998
-0.03747
-0.04246
-0.03997
-0.01873
0.01374
0.03747
0.04496
0.04496
0.04496
0.04246
0.03747
0.03497
0.03497
0.03247
0.02748
0.02248
0.01749
0.00250
-0.04122
-0.10616
-0.10866
0.06744
0.40592
0.73689
0.85180
0.67070
0.32973
0.05246
-0.06869
-0.08243
-0.06744
-0.05995
-0.05995
-0.05995
-0.05995
-0.06245
-0.06495
-0.06495
-0.06744
-0.06994
-0.07494
-0.08243
-0.08493
-0.08993
-0.09492
-0.09992
-0.10741
-0.11491
-0.12739
-0.13739
-0.14738
-0.15987
-0.17236
-0.18735
-0.19734
-0.20733
-0.21982
-0.22981
-0.23481
-0.23730
-0.24480
-0.24979
-0.24979
-0.24979
-0.24979
-0.24979
-0.24230
-0.22981
-0.21482
-0.19234
-0.16237
-0.12989
-0.10242
-0.07744
-0.05246
-0.03247
-0.01749
-0.00749
-0.00250
0.00250
0.00500
0.00749
0.01499
0.01998
0.01998
0.01998
0.01998
0.01998
0.01998
0.01749
0.01499
0.01749
0.02248
0.02498
0.02248
0.02248
0.02248
0.01749
0.01249
0.00999
0.00749
0.00000
-0.00999
-0.02498
-0.03997
-0.04496
-0.03747
-0.01374
0.01998
0.03997
0.04496
0.04496
0.04246
0.03747
0.03247
0.02998
0.03247
0.03247
0.02748
0.02248
0.01998
0.00749
-0.03122
-0.09117
-0.10117
0.04371
0.34596
0.66570
0.80559
0.66445
0.35596
0.08368
-0.05371
-0.08243
-0.07494
-0.06495
-0.06245
-0.06744
-0.06994
-0.06994
-0.06994
-0.06994
-0.06994
-0.07244
-0.07744
-0.08243
-0.08743
-0.09242
-0.09492
-0.09742
-0.10491
-0.11491
-0.12490
-0.13239
-0.13739
-0.14738
-0.15987
-0.17236
-0.18235
-0.18984
-0.19984
-0.20483
-0.20733
-0.20983
-0.21232
-0.21732
-0.21982
-0.21732
-0.21482
-0.21232
-0.20483
-0.19359
-0.17610
-0.15612
-0.13614
-0.11366
-0.09117
-0.06869
-0.04371
-0.02123
-0.00749
-0.00250
0.00250
0.00749
0.01249
0.01749
0.01998
0.01749
0.00999
0.00500
0.00500
0.00749
0.01499
0.01998
0.01998
0.01998
0.01998
0.01998
0.01998
0.01998
0.01998
0.01499
0.00749
0.00250
-0.00250
-0.01124
-0.02623
-0.03497
-0.03247
-0.02373
-0.00375
0.02373
0.04621
0.05246
0.04746
0.04496
0.04496
0.04246
0.03747
0.03497
0.03247
0.02998
0.02748
0.02248
0.00874
-0.02873
-0.08618
-0.09117
0.05620
0.34971
0.65321
0.78810
0.65696
0.35721
0.09242
-0.03872
-0.06744
-0.05870
-0.04746
-0.04746
-0.04996
-0.04996
-0.04996
-0.05371
-0.06245
-0.06495
-0.06495
-0.06744
-0.07244
-0.07494
-0.07494
-0.07869
-0.08868
-0.09742
-0.10366
-0.11366
-0.12240
-0.12864
-0.13864
-0.14863
-0.16112
-0.17361
-0.18235
-0.18735
-0.19359
-0.20358
-0.20983
-0.21232
-0.21732
-0.22232
-0.22481
-0.22232
-0.21732
-0.21232
-0.20358
-0.18485
-0.15987
-0.13489
-0.10741
-0.07993
-0.05870
-0.04122
-0.02123
-0.00375
0.00749
0.01374
0.01998
0.01998
0.01998
0.01998
0.01998
0.01998
0.01998
0.01998
0.01998
0.02248
0.02748
0.02998
0.02998
0.02998
0.02998
0.02998
0.02748
0.02248
0.01998
0.01749
0.01124
0.00125
-0.00874
-0.01873
-0.02498
-0.02498
-0.01873
0.00250
0.02998
0.04871
0.05495
0.05495
0.05246
0.04996
0.04996
0.04746
0.04246
0.03747
0.03247
0.02998
0.02373
0.00125
-0.05121
-0.11740
-0.08368
0.14738
0.50583
0.79434
0.82432
0.57203
0.23481
0.00749
-0.07119
-0.07369
-0.06120
-0.05495
-0.05745
-0.05995
-0.06245
-0.06495
-0.06744
-0.07244
-0.07369
-0.06994
-0.06994
-0.07369
-0.08243
-0.08743
-0.09367
-0.10366
-0.11241
-0.11740
-0.12365
-0.13364
-0.14613
-0.15862
-0.17111
-0.18360
-0.19359
-0.20358
-0.21232
-0.21857
-0.22856
-0.23481
-0.23481
-0.23730
-0.23980
-0.23980
-0.23980
-0.23855
-0.23106
-0.22107
-0.20733
-0.18235
-0.14863
-0.12115
-0.09617
-0.07119
-0.04746
-0.02998
-0.01624
-0.00624
0.00125
0.00500
0.00500
0.00624
0.01374
0.01998
0.01998
0.01998
0.01998
0.01998
0.01998
0.01998
0.01998
0.01998
0.01998
0.01998
0.02123
0.02373
0.01624
0.00874
0.00500
0.00125
-0.00874
-0.01998
-0.03497
-0.04496
-0.04496
-0.03747
-0.01249
0.02123
0.04122
0.04496
0.04621
0.04871
0.04122
0.03372
0.03122
0.03372
0.02873
0.02373
0.01998
0.01249
-0.01624
-0.07119
-0.12365
-0.05745
0.21232
0.59201
0.85679
0.82682
0.53206
0.18859
-0.02498
-0.08993
-0.08493
-0.07369
-0.06994
-0.06994
-0.06994
-0.06994
-0.06994
-0.06994
-0.07119
-0.07619
-0.08118
-0.08618
-0.08993
-0.09117
-0.09617
-0.10366
-0.11116
-0.11615
-0.12365
-0.13364
-0.14488
-0.15862
-0.16986
-0.18360
-0.19484
-0.20608
-0.21357
-0.22107
-0.22856
-0.23855
-0.24730
-0.24979
-0.24979
-0.24979
-0.24979
-0.24855
-0.24105
-0.23356
-0.22481
-0.20858
-0.18360
-0.14988
-0.12115
-0.09617
-0.07119
-0.04871
-0.02998
-0.01873
-0.01124
-0.00125
0.00500
0.00500
0.00624
0.01124
0.01624
0.01998
0.01998
0.01998
0.01998
0.01998
0.01998
0.01998
0.02123
0.02373
0.01998
0.01998
0.01624
0.00874
0.00500
0.00500
0.00125
-0.00999
-0.02498
-0.03622
-0.03622
-0.02498
-0.00749
0.01749
0.03997
0.04996
0.04871
0.04496
0.04496
0.04122
0.03372
0.02998
0.02998
0.02998
0.02873
0.01998
-0.00125
-0.04496
-0.09992
-0.07993
0.10991
0.44089
0.73939
0.81558
0.61075
0.28851
0.03997
-0.06744
-0.08243
-0.06994
-0.05745
-0.05246
-0.06120
-0.06495
-0.06495
-0.06620
-0.06994
-0.07119
-0.07494
-0.07619
-0.08118
-0.08493
-0.08618
-0.09242
-0.10117
-0.10616
-0.11241
-0.12115
-0.12989
-0.14238
-0.15113
-0.15737
-0.16861
-0.17860
-0.18859
-0.19609
-0.20358
-0.21108
-0.21607
-0.22107
-0.22481
-0.22481
-0.22481
-0.22357
-0.21982
-0.21857
-0.21232
-0.20233
-0.19109
-0.17361
-0.15237
-0.12739
-0.10366
-0.08618
-0.07244
-0.06245
-0.05246
-0.04496
-0.04496
-0.04371
-0.03997
-0.04122
-0.04496
-0.04371
-0.03997
-0.04122
-0.04496
-0.04496
-0.04496
-0.04496
-0.04496
-0.04371
-0.03872
-0.03497
-0.03622
-0.04122
-0.04621
-0.05246
-0.06245
-0.07119
-0.07744
-0.08618
-0.08993
-0.08868
-0.07744
-0.05121
-0.02248
-0.00375
0.00125
0.00500
0.00500
0.00500
0.00500
0.00375
-0.00125
-0.00624
-0.01124
-0.01624
-0.02498
-0.05371
-0.10741
-0.15237
-0.09242
0.14363
0.48335
0.74314
0.74813
0.50209
0.18110
-0.03122
-0.10616
-0.10741
-0.09742
-0.08868
-0.08618
-0.09117
-0.09492
-0.09492
-0.09492
-0.09492
-0.09492
-0.09492
-0.09742
-0.10616
-0.11116
-0.11615
-0.11990
-0.12240
-0.13239
-0.14238
-0.15113
-0.15737
-0.16736
-0.17735
-0.18735
-0.19734
-0.20733
-0.21732
-0.22606
-0.23106
-0.23730
-0.24605
-0.24979
-0.24979
-0.24979
-0.24979
-0.24855
-0.24230
-0.23231
-0.22107
-0.20608
-0.18859
-0.16362
-0.13739
-0.10866
-0.08368
-0.05995
-0.04246
-0.03247
-0.02248
-0.01249
-0.00500
-0.00500
-0.00500
-0.00375
-0.00125
-0.00500
-0.00375
0.00000
-0.00125
-0.00500
-0.00500
-0.00375
0.00125
0.00500
0.00500
0.00500
0.00500
0.00500
0.00375
0.00000
-0.00125
-0.00624
-0.01249
-0.02248
-0.03372
-0.04746
-0.05495
-0.05371
-0.04371
-0.01624
0.01499
0.03122
0.03372
0.02998
0.03372
0.04621
0.05121
0.05495
0.05495
0.05495
0.05745
0.06370
0.05495
0.02748
-0.03247
-0.08868
-0.03247
0.23231
0.60325
0.87803
0.85804
0.56578
0.22481
0.01624
-0.04371
-0.03622
-0.02373
-0.01998
-0.02123
-0.02498
-0.02498
-0.02623
-0.03122
-0.03497
-0.03497
-0.03622
-0.04122
-0.04496
-0.04621
-0.05246
-0.06120
-0.06744
-0.07744
-0.08743
-0.09742
-0.10741
-0.11740
-0.12864
-0.14363
-0.15737
-0.16736
-0.17610
-0.18235
-0.19234
-0.20108
-0.20608
-0.20983
-0.21108
-0.21607
-0.21982
-0.21857
-0.21357
-0.20858
-0.20108
-0.18110
-0.15862
-0.12989
-0.10491
-0.07869
-0.04996
-0.02623
-0.00749
0.00250
0.01624
0.02248
0.02998
0.03122
0.03622
0.03872
0.03497
0.03622
0.04122
0.04496
0.04496
0.04496
0.04496
0.04496
0.04496
0.04496
0.04496
0.04496
0.04371
0.03747
0.02998
0.02998
0.02748
0.01749
0.00250
-0.01249
-0.02248
-0.02998
-0.02748
-0.00999
0.01624
0.04746
0.06245
0.06744
0.05870
0.05495
0.05495
0.05495
0.05371
0.04871
0.04496
0.04371
0.03872
0.02873
-0.00624
-0.06744
-0.10616
0.01124
0.32973
0.70192
0.91924
0.80933
0.45837
0.12864
-0.03747
-0.06869
-0.06245
-0.04871
-0.04496
-0.04621
-0.05620
-0.06120
-0.06495
-0.06495
-0.06620
-0.06994
-0.07119
-0.07619
-0.08118
-0.08618
-0.09492
-0.09617
-0.10616
-0.11615
-0.12240
-0.13239
-0.14238
-0.15612
-0.16237
-0.17236
-0.18235
-0.19234
-0.20608
-0.21232
-0.22232
-0.23106
-0.23481
-0.23606
-0.24105
-0.24480
-0.24355
-0.23356
-0.22856
-0.22357
-0.21108
-0.19109
-0.16611
-0.13988
-0.10991
-0.07993
-0.05121
-0.02748
-0.01374
-0.00375
0.00624
0.01124
0.01624
0.02123
0.02623
0.02998
0.02873
0.02373
0.01998
0.01998
0.01998
0.02123
0.02623
0.02998
0.02998
0.02873
0.02623
0.02998
0.02998
0.02873
0.02373
0.01873
0.01374
0.00375
-0.00624
-0.01624
-0.02623
-0.03497
-0.03372
-0.02123
0.00500
0.03747
0.05121
0.05620
0.05870
0.05495
0.05371
0.04871
0.04371
0.03997
0.03872
0.03497
0.03372
0.02748
0.00375
-0.04496
-0.09867
-0.06744
0.14613
0.48835
0.78186
0.81683
0.56953
0.23980
0.02248
-0.05745
-0.06869
-0.05870
-0.05495
-0.05745
-0.07244
-0.08618
-0.09492
-0.09617
-0.10117
-0.10616
-0.10991
-0.11116
-0.12115
-0.12615
-0.13114
-0.13489
-0.13614
-0.14113
-0.15113
-0.15612
-0.16237
-0.17610
-0.18610
-0.19109
-0.20108
-0.21232
-0.22481
-0.22481
-0.22606
-0.23481
-0.23606
-0.24105
-0.24605
-0.24979
-0.24979
-0.24855
-0.23980
-0.23356
-0.22357
-0.21232
-0.19234
-0.16611
-0.13739
-0.11241
-0.08743
-0.06370
-0.04871
-0.03872
-0.02498
-0.01998
-0.01499
-0.01499
-0.01499
-0.00999
-0.00500
-0.00500
-0.00500
-0.00500
-0.00500
-0.00500
-0.00500
-0.00500
0.00125
0.01499
0.02123
0.03122
0.03997
0.04496
0.04496
0.03872
0.02998
0.02998
0.02373
0.01374
0.00000
-0.00500
-0.00500
-0.00375
0.00749
0.02748
0.05246
0.06994
0.07494
0.06994
0.06495
0.06495
0.06994
0.06495
0.05995
0.05495
0.05495
0.05495
0.04746
0.02373
-0.03247
-0.08743
-0.04246
0.19234
0.54205
0.81808
0.82432
0.57078
0.24605
0.03122
-0.04496
-0.04871
-0.03372
-0.02623
-0.03497
-0.03997
-0.03997
-0.03497
-0.03497
-0.03997
-0.04496
-0.04496
-0.04496
-0.05121
-0.05995
-0.05995
-0.06120
-0.06994
-0.07619
-0.08618
-0.09617
-0.10616
-0.11990
-0.12615
-0.14113
-0.15113
-0.16112
-0.17486
-0.18110
-0.19109
-0.19984
-0.20483
-0.20483
-0.20483
-0.20983
-0.20983
-0.20483
-0.19984
-0.19859
-0.18859
-0.16861
-0.15237
-0.12739
-0.10242
-0.07244
-0.04871
-0.02873
-0.00874
0.00624
0.01998
0.02498
0.02998
0.02498
0.02998
0.02998
0.02998
0.02498
0.02998
0.03497
0.03497
0.02998
0.02998
0.03497
0.02998
0.02998
0.03497
0.03997
0.03872
0.02998
0.02998
0.02498
0.01873
0.00874
-0.00125
-0.01124
-0.01998
-0.01998
-0.01873
-0.00874
0.01249
0.04122
0.05495
0.05495
0.05495
0.05495
0.04996
0.04996
0.04996
0.04496
0.04496
0.04496
0.03872
0.02748
-0.01374
-0.07369
-0.12989
-0.04621
0.25979
0.65196
0.89551
0.80933
0.47336
0.14363
-0.03247
-0.06994
-0.05995
-0.04996
-0.04496
-0.04996
-0.05495
-0.05995
-0.05995
-0.05995
-0.05995
-0.06495
-0.06495
-0.06495
-0.06994
-0.07993
-0.08493
-0.08993
-0.09617
-0.10991
-0.11491
-0.12115
-0.13614
-0.15113
-0.16112
-0.17111
-0.18110
-0.19109
-0.19984
-0.20608
-0.21607
-0.22481
-0.22981
-0.23481
-0.23481
-0.23481
-0.23481
-0.23481
-0.23481
-0.23481
-0.21857
-0.19859
-0.16861
-0.14363
-0.11366
-0.08868
-0.06495
-0.04871
-0.02998
-0.01499
0.00000
0.00500
0.00999
0.01499
0.01998
0.02498
0.02998
0.02998
0.02498
0.02498
0.02498
0.02998
0.02998
0.03497
0.02998
0.02998
0.02998
0.02998
0.02998
0.02498
0.02498
0.01998
0.01998
0.00999
-0.00500
-0.01998
-0.02998
-0.03497
-0.03497
-0.01873
0.00624
0.03497
0.04996
0.05495
0.05495
0.04996
0.04496
0.04996
0.04496
0.03997
0.03997
0.03997
0.03497
0.02373
-0.01124
-0.07119
-0.11740
-0.01873
0.28851
0.68069
0.91300
0.80683
0.44838
0.11615
-0.05121
-0.08493
-0.06994
-0.05995
-0.05495
-0.05995
-0.06495
-0.06495
-0.06994
-0.06994
-0.06994
-0.06994
-0.06994
-0.07993
-0.08493
-0.09492
-0.09492
-0.09492
-0.09992
-0.10991
-0.11990
-0.12989
-0.13988
-0.14988
-0.15987
-0.16986
-0.17985
-0.19484
-0.20983
-0.21482
-0.21982
-0.22481
-0.22981
-0.22981
-0.22981
-0.23481
-0.23481
-0.23481
-0.22481
-0.21982
-0.20983
-0.19484
-0.16986
-0.13988
-0.10991
-0.08493
-0.05495
-0.03997
-0.02498
-0.00999
-0.00500
0.00500
0.00500
0.00500
0.01499
0.01998
0.01998
0.01998
0.01998
0.01998
0.01998
0.01998
0.02498
0.02498
0.02498
0.02498
0.02998
0.02498
0.01998
0.00999
0.00500
0.00999
0.00500
-0.00500
-0.02498
-0.03497
-0.03997
-0.03497
-0.01499
0.01499
0.03997
0.04496
0.04496
0.04496
0.04496
0.04496
0.03497
0.02998
0.02998
0.02498
0.01998
0.01998
0.00999
-0.01998
-0.07869
-0.12365
-0.02248
0.26978
0.61824
0.82057
0.73689
0.43089
0.12615
-0.04122
-0.07869
-0.06495
-0.04996
-0.04996
-0.05495
-0.05995
-0.06495
-0.06495
-0.06495
-0.06495
-0.06994
-0.06994
-0.06495
-0.06994
-0.07494
-0.08493
-0.08993
-0.08993
-0.09492
-0.10991
-0.11990
-0.12490
-0.13489
-0.14988
-0.15987
-0.15987
-0.16986
-0.17985
-0.19484
-0.19984
-0.19984
-0.20483
-0.20983
-0.20483
-0.20483
-0.20483
-0.20983
-0.19984
-0.18984
-0.17985
-0.16611
-0.14113
-0.11116
-0.08118
-0.06620
-0.04122
-0.02123
-0.00500
0.00000
0.00500
0.00999
0.01998
0.01998
0.01998
0.01998
0.01998
0.01998
0.01998
0.01998
0.01998
0.01998
0.01998
0.01998
0.01998
0.02498
0.01998
0.01998
0.01998
0.01499
0.00500
0.00000
-0.00999
-0.01998
-0.03372
-0.04496
-0.03997
-0.02998
-0.01624
0.00874
0.03872
0.04996
0.04496
0.03997
0.03997
0.03997
0.03497
0.02998
0.02498
0.02498
0.02498
0.01998
0.00999
-0.02748
-0.09617
-0.13239
-0.00375
0.31099
0.66820
0.84056
0.70442
0.38094
0.09242
-0.05121
-0.07869
-0.06620
-0.05121
-0.05495
-0.05495
-0.05495
-0.05495
-0.05995
-0.06495
-0.05995
-0.05995
-0.06994
-0.07494
-0.07993
-0.07993
-0.08993
-0.09492
-0.09992
-0.10491
-0.11491
-0.12490
-0.13489
-0.14488
-0.15487
-0.16861
-0.18360
-0.19484
-0.20483
-0.20983
-0.21982
-0.22481
-0.22481
-0.22981
-0.23481
-0.23481
-0.22981
-0.22981
-0.22481
-0.21982
-0.20608
-0.19109
-0.17111
-0.13739
-0.10741
-0.08243
-0.06620
-0.04246
-0.02623
-0.01124
-0.00500
0.00000
0.00500
0.00999
0.01499
0.01499
0.01499
0.01998
0.01998
0.01998
0.01998
0.01998
0.01998
0.01998
0.01998
0.01998
0.01998
0.01998
0.01998
0.01124
0.00500
0.00000
-0.00874
-0.01873
-0.02873
-0.04371
-0.04496
-0.04496
-0.03122
0.00624
0.03247
0.04871
0.04996
0.04496
0.03997
0.03997
0.03997
0.03497
0.02998
0.02498
0.02498
0.01998
0.00250
-0.04496
-0.11740
-0.13864
0.02623
0.38718
0.75313
0.88427
0.67944
0.32223
0.04746
-0.06994
-0.08493
-0.06744
-0.05995
-0.05495
-0.05995
-0.06495
-0.06495
-0.05995
-0.06495
-0.06994
-0.07494
-0.07494
-0.07993
-0.08493
-0.08993
-0.09492
-0.09992
-0.10866
-0.11865
-0.12490
-0.13364
-0.14863
-0.15862
-0.16486
-0.17860
-0.18859
-0.20358
-0.20983
-0.21857
-0.22481
-0.23356
-0.23481
-0.24355
-0.24979
-0.25479
-0.25104
-0.24605
-0.23606
-0.23106
-0.21732
-0.19734
-0.17361
-0.14738
-0.11366
-0.08368
-0.06245
-0.04246
-0.03122
-0.01624
-0.00624
0.00375
0.00999
0.01499
0.01998
0.01998
0.02498
0.02498
0.02498
0.02123
0.01998
0.01998
0.02498
0.02998
0.02998
0.02998
0.02998
0.02623
0.02123
0.01124
0.00624
0.00125
-0.01249
-0.03247
-0.03872
-0.03997
-0.03622
-0.01749
0.01499
0.03747
0.04371
0.04496
0.04496
0.04496
0.04122
0.03122
0.02998
0.02623
0.02498
0.02123
0.01998
0.00250
-0.02998
-0.09117
-0.09992
0.06370
0.37719
0.69942
0.80933
0.62698
0.30725
0.05870
-0.05246
-0.07369
-0.06620
-0.06120
-0.05995
-0.05995
-0.06370
-0.06869
-0.07369
-0.07494
-0.07119
-0.06994
-0.07369
-0.08368
-0.08868
-0.09367
-0.09867
-0.10366
-0.10866
-0.11865
-0.12864
-0.13364
-0.13864
-0.14863
-0.15862
-0.16861
-0.17860
-0.18485
-0.19359
-0.20358
-0.20983
-0.20983
-0.21482
-0.21982
-0.21607
-0.21108
-0.20983
-0.20983
-0.20108
-0.18735
-0.17236
-0.15362
-0.13364
-0.10866
-0.08368
-0.05870
-0.03372
-0.01749
-0.00624
0.00375
0.00500
0.00500
0.01374
0.01499
0.01499
0.01499
0.01873
0.01998
0.01998
0.01998
0.01998
0.01624
0.01499
0.01499
0.01873
0.02373
0.02123
0.01624
0.00624
0.00500
-0.00375
-0.01749
-0.02873
-0.03872
-0.03997
-0.03622
-0.01873
0.00999
0.03622
0.05246
0.05121
0.04621
0.04122
0.03997
0.04371
0.04496
0.04496
0.03622
0.02623
0.02498
0.01624
-0.01374
-0.07369
-0.10991
-0.00874
0.27352
0.60825
0.80059
0.71566
0.42090
0.13114
-0.02623
-0.06620
-0.06245
-0.05620
-0.05495
-0.05495
-0.05495
-0.05870
-0.05995
-0.05620
-0.05870
-0.06370
-0.06495
-0.06495
-0.06869
-0.07369
-0.07869
-0.08368
-0.09367
-0.09867
-0.10866
-0.11865
-0.12365
-0.13739
-0.14863
-0.15362
-0.16362
-0.17735
-0.19234
-0.19859
-0.20358
-0.20858
-0.20983
-0.20983
-0.21357
-0.21857
-0.22357
-0.22481
-0.21732
-0.20733
-0.19359
-0.17860
-0.15113
-0.12115
-0.09492
-0.07744
-0.05870
-0.03497
-0.01749
-0.00749
0.00250
0.00874
0.01749
0.01998
0.01998
0.01998
0.01998
0.01998
0.01998
0.01998
0.01998
0.01998
0.01998
0.01998
0.01998
0.01998
0.01998
0.01624
0.00749
0.00125
-0.00375
-0.01249
-0.02248
-0.03622
-0.04371
-0.04122
-0.02873
-0.00500
0.02748
0.04246
0.04871
0.04621
0.04496
0.04496
0.04122
0.03622
0.03122
0.02623
0.02498
0.02123
0.01249
-0.01374
-0.07119
-0.13114
-0.07119
0.18735
0.55829
0.82432
0.78935
0.50458
0.18485
-0.01249
-0.07744
-0.07744
-0.06744
-0.06120
-0.05995
-0.06370
-0.06495
-0.06495
-0.06869
-0.06994
-0.06994
-0.06994
-0.07369
-0.08243
-0.08868
-0.09367
-0.09867
-0.10741
-0.11366
-0.11865
-0.12739
-0.13739
-0.15113
-0.15862
-0.16736
-0.18110
-0.19609
-0.20358
-0.20858
-0.21732
-0.22731
-0.22981
-0.22981
-0.23356
-0.23481
-0.23481
-0.23481
-0.23481
-0.23481
-0.22731
-0.20983
-0.18610
-0.16112
-0.12864
-0.09367
-0.06245
-0.04371
-0.02873
-0.01749
-0.00749
0.00250
0.01249
0.01499
0.01499
0.01499
0.01124
0.00999
0.01374
0.01873
0.01998
0.01998
0.01998
0.01998
0.01998
0.01624
0.01499
0.01124
0.00624
0.00125
-0.00749
-0.01749
-0.03122
-0.04246
-0.04496
-0.04122
-0.02498
0.00624
0.03747
0.05620
0.05620
0.04746
0.04122
0.03997
0.03997
0.03622
0.03497
0.03122
0.02998
0.02248
0.01624
-0.01124
-0.06495
-0.10242
0.00500
0.28851
0.62573
0.80683
0.69942
0.38843
0.09992
-0.04746
-0.08618
-0.07119
-0.06120
-0.05995
-0.06744
-0.06994
-0.06620
-0.06120
-0.05995
-0.05995
-0.05995
-0.06370
-0.07244
-0.07869
-0.08368
-0.08868
-0.09367
-0.10242
-0.11241
-0.12240
-0.13239
-0.14238
-0.14863
-0.15362
-0.16237
-0.17610
-0.18735
-0.19734
-0.20733
-0.21357
-0.21857
-0.22357
-0.22481
-0.22481
-0.22856
-0.22606
-0.22481
-0.21732
-0.20108
-0.18360
-0.16237
-0.14113
-0.12115
-0.09742
-0.07244
-0.05121
-0.03372
-0.01873
-0.00749
-0.00125
0.00375
0.00500
0.00874
0.00999
0.00624
0.00500
0.00500
0.00874
0.00999
0.01374
0.01873
0.02373
0.02123
0.01998
0.01998
0.01249
0.00624
0.00125
-0.00375
-0.01249
-0.02248
-0.03622
-0.03997
-0.03247
-0.01249
0.01624
0.03872
0.05246
0.05495
0.04746
0.04496
0.04496
0.04496
0.03497
0.02998
0.02998
0.02998
0.02623
0.01499
-0.01749
-0.07869
-0.11740
-0.02373
0.24730
0.58202
0.76562
0.67819
0.40592
0.13988
-0.01873
-0.06869
-0.06744
-0.05745
-0.04746
-0.04871
-0.05371
-0.05121
-0.05371
-0.05870
-0.06370
-0.06495
-0.06495
-0.06869
-0.07369
-0.07494
-0.07869
-0.08368
-0.09242
-0.09867
-0.10741
-0.11740
-0.12989
-0.13864
-0.14738
-0.15987
-0.17486
-0.18360
-0.18859
-0.19734
-0.20358
-0.20858
-0.20983
-0.20983
-0.21732
-0.21982
-0.21607
-0.21108
-0.20608
-0.19859
-0.18110
-0.16112
-0.13739
-0.11615
-0.08993
-0.06245
-0.04496
-0.02623
-0.00999
0.00125
0.00500
0.00874
0.01374
0.01873
0.01624
0.01499
0.01499
0.01873
0.01998
0.01624
0.01499
0.01499
0.01873
0.01998
0.01998
0.01998
0.01374
0.00624
0.00125
-0.00624
-0.01624
-0.02998
-0.04122
-0.04496
-0.03872
-0.02123
0.00125
0.02998
0.04621
0.04621
0.04496
0.04122
0.03997
0.03372
0.02623
0.02498
0.02498
0.02498
0.02123
0.00999
-0.02123
-0.08118
-0.11865
-0.01249
0.27228
0.62074
0.81932
0.72815
0.42715
0.12739
-0.03747
-0.08118
-0.07494
-0.06370
-0.05995
-0.05995
-0.05995
-0.05995
-0.05995
-0.06370
-0.06869
-0.06994
-0.06994
-0.07369
-0.08118
-0.08493
-0.08868
-0.09367
-0.10117
-0.11116
-0.11865
-0.12989
-0.14113
-0.14863
-0.15612
-0.16611
-0.18235
-0.19609
-0.20608
-0.21357
-0.22107
-0.22856
-0.22981
-0.22981
-0.23356
-0.23855
-0.23980
-0.23730
-0.23481
-0.23231
-0.21357
-0.19234
-0.17236
-0.15237
-0.12615
-0.09617
-0.07244
-0.05246
-0.03497
-0.01998
-0.00874
-0.00500
-0.00125
0.00375
0.00500
0.00500
0.00874
0.01374
0.01873
0.01624
0.01499
0.01499
0.01873
0.01624
0.01499
0.01499
0.01124
0.00624
0.00500
-0.00125
-0.01124
-0.02498
-0.03997
-0.04496
-0.04246
-0.02373
0.00375
0.03122
0.04371
0.04496
0.04496
0.04496
0.04496
0.04246
0.03372
0.02998
0.02998
0.02998
0.02373
0.00749
-0.02748
-0.08493
-0.10741
0.03122
0.34097
0.67819
0.83431
0.69068
0.36095
0.07244
-0.06370
-0.08743
-0.07619
-0.06370
-0.06370
-0.06869
-0.06994
-0.06994
-0.06994
-0.07369
-0.07869
-0.07993
-0.08368
-0.08493
-0.08868
-0.09367
-0.09492
-0.10117
-0.10866
-0.11615
-0.12365
-0.13364
-0.14613
-0.15862
-0.17361
-0.18610
-0.19609
-0.20358
-0.20483
-0.21108
-0.22107
-0.23106
-0.23855
-0.23980
-0.23730
-0.23481
-0.23481
-0.22856
-0.22232
-0.21357
-0.20108
-0.18360
-0.16362
-0.13988
-0.11241
-0.08493
-0.06245
-0.04871
-0.03872
-0.03247
-0.02373
-0.01998
-0.01749
-0.00874
-0.00500
-0.00500
-0.00500
-0.00250
0.00250
0.00500
0.00500
0.00500
0.00749
0.00749
0.00500
0.00500
0.00250
-0.00250
-0.01374
-0.02623
-0.03622
-0.04246
-0.04496
-0.03622
-0.01873
0.00125
0.01624
0.01998
0.01749
0.00874
0.00250
-0.00250
0.00125
0.00749
0.00749
0.00500
0.00500
0.00500
-0.00624
-0.04746
-0.10491
-0.11491
0.01749
0.31724
0.65571
0.82432
0.70567
0.40592
0.13489
-0.00874
-0.04746
-0.04122
-0.02873
-0.02248
-0.01998
-0.01998
-0.01998
-0.02248
-0.03122
-0.04122
-0.04746
-0.04996
-0.05246
-0.06120
-0.06744
-0.07244
-0.08118
-0.09117
-0.10117
-0.10741
-0.11615
-0.12615
-0.13614
-0.14238
-0.14738
-0.15237
-0.16112
-0.17111
-0.18110
-0.19109
-0.20108
-0.20483
-0.20483
-0.20733
-0.20983
-0.20983
-0.20733
-0.19984
-0.18984
-0.17610
-0.15612
-0.12864
-0.10117
-0.07619
-0.05121
-0.02873
-0.01499
-0.00749
-0.00250
0.00500
0.01499
0.01998
0.01998
0.01998
0.01998
0.01998
0.01749
0.01249
0.01249
0.01749
0.01998
0.02248
0.02498
0.02248
0.01499
0.00749
0.00250
-0.00500
-0.01873
-0.02998
-0.03747
-0.03997
-0.03747
-0.02373
0.00375
0.03372
0.04996
0.05495
0.04996
0.04246
0.03497
0.02998
0.02998
0.02998
0.02998
0.02748
0.02248
0.00874
-0.02498
-0.07744
-0.11366
-0.02748
0.23606
0.58077
0.79934
0.73939
0.45587
0.15237
-0.02623
-0.07744
-0.07494
-0.06495
-0.05995
-0.05995
-0.05995
-0.05995
-0.06245
-0.06495
-0.06744
-0.06994
-0.07244
-0.07244
-0.07494
-0.08243
-0.08743
-0.09242
-0.09992
-0.10991
-0.11990
-0.12989
-0.13739
-0.14738
-0.15987
-0.17236
-0.18485
-0.19484
-0.20483
-0.21482
-0.22232
-0.22481
-0.22981
-0.23481
-0.23481
-0.23481
-0.23481
-0.23481
-0.22981
-0.21982
-0.20733
-0.18984
-0.16486
-0.13114
-0.10242
-0.07744
-0.05246
-0.02748
-0.00749
0.00250
0.00749
0.01249
0.01499
0.01249
0.00999
0.00999
0.01249
0.01749
0.01998
0.01998
0.01749
0.01499
0.01499
0.01749
0.01749
0.00999
0.00000
-0.00500
-0.00999
-0.02248
-0.03747
-0.04496
-0.04496
-0.04246
-0.02998
-0.00250
0.02748
0.04246
0.04496
0.04246
0.03747
0.03497
0.03247
0.02748
0.02498
0.02498
0.02248
0.01749
0.00500
-0.02748
-0.08493
-0.11990
-0.01499
0.27103
0.61075
0.80059
0.70692
0.41216
0.11990
-0.04246
-0.08243
-0.06994
-0.05995
-0.05995
-0.05995
-0.05995
-0.05995
-0.06245
-0.06495
-0.06495
-0.06744
-0.07244
-0.07494
-0.07494
-0.07993
-0.08993
-0.09742
-0.10491
-0.11491
-0.12240
-0.12989
-0.13739
-0.14488
-0.15737
-0.17236
-0.18235
-0.18735
-0.19484
-0.20483
-0.21232
-0.21482
-0.21482
-0.21732
-0.22232
-0.22481
-0.22481
-0.22481
-0.21982
-0.20733
-0.18984
-0.16986
-0.14738
-0.12115
-0.09242
-0.06994
-0.04996
-0.02998
-0.01249
-0.00250
0.00250
0.00500
0.00749
0.00999
0.01249
0.01499
0.01749
0.01998
0.01998
0.01998
0.01998
0.01998
0.01998
0.01998
0.01998
0.01499
0.00749
0.00000
-0.00999
-0.02248
-0.03497
-0.03997
-0.03747
-0.02748
-0.00999
0.01374
0.03747
0.04996
0.05246
0.04746
0.04496
0.03997
0.03247
0.02998
0.02998
0.03247
0.03247
0.02498
0.00874
-0.02873
-0.07993
-0.09117
0.04371
0.33847
0.65946
0.80808
0.67319
0.36595
0.09242
-0.04246
-0.07494
-0.06869
-0.05495
-0.04996
-0.05246
-0.05495
-0.05495
-0.05745
-0.06245
-0.06744
-0.06994
-0.06994
-0.06994
-0.06994
-0.07244
-0.07993
-0.08993
-0.09742
-0.10491
-0.11241
-0.11990
-0.12989
-0.13988
-0.14988
-0.16237
-0.17486
-0.18235
-0.18984
-0.19984
-0.20733
-0.21232
-0.21482
-0.21982
-0.22481
-0.22731
-0.22731
-0.22107
-0.21232
-0.20733
-0.19359
-0.16861
-0.14113
-0.11116
-0.08118
-0.05371
-0.03372
-0.01873
-0.00375
0.00999
0.01749
0.01998
0.01998
0.02248
0.02248
0.01998
0.01998
0.01998
0.01998
0.01998
0.01998
0.02248
0.02498
0.02248
0.01749
0.01249
0.00999
0.00624
-0.00375
-0.01374
-0.02373
-0.03247
-0.03497
-0.02623
-0.00250
0.02623
0.04371
0.05246
0.05246
0.04746
0.04496
0.04246
0.04246
0.04246
0.03747
0.03247
0.02998
0.02373
0.00000
-0.04996
-0.10491
-0.06620
0.14988
0.48710
0.76937
0.80683
0.57203
0.24605
0.01998
-0.05870
-0.06120
-0.05121
-0.04496
-0.04496
-0.04496
-0.04496
-0.04496
-0.04746
-0.05371
-0.06245
-0.06744
-0.06994
-0.07244
-0.07869
-0.08743
-0.08993
-0.09367
-0.10366
-0.11366
-0.12240
-0.12864
-0.13864
-0.15113
-0.16611
-0.17860
-0.18859
-0.20108
-0.20983
-0.21232
-0.21857
-0.22731
-0.23231
-0.23481
-0.23730
-0.24230
-0.24480
-0.24105
-0.23106
-0.21732
-0.19734
-0.17236
-0.14238
-0.11491
-0.09242
-0.06994
-0.04496
-0.02373
-0.01124
-0.00250
0.00250
0.00500
0.00749
0.01374
0.02248
0.02248
0.01998
0.01998
0.01998
0.02248
0.02248
0.01998
0.01998
0.01998
0.01624
0.00749
0.00500
0.00125
-0.01249
-0.02873
-0.03747
-0.03747
-0.03247
-0.01998
0.00624
0.03497
0.05246
0.05495
0.05246
0.04996
0.04746
0.04496
0.04496
0.04496
0.04122
0.03122
0.02248
0.01249
-0.02123
-0.08243
-0.10991
0.01249
0.31974
0.67694
0.86179
0.73814
0.41466
0.11241
-0.04496
-0.08118
-0.06869
-0.05995
-0.05995
-0.06245
-0.06495
-0.06744
-0.06994
-0.06994
-0.06994
-0.07244
-0.07869
-0.08493
-0.08743
-0.09242
-0.09867
-0.10741
-0.11241
-0.11740
-0.12615
-0.14113
-0.15362
-0.16362
-0.17361
-0.18610
-0.19734
-0.20358
-0.21357
-0.22357
-0.23231
-0.23730
-0.24355
-0.24979
-0.24855
-0.24105
-0.23481
-0.23730
-0.23855
-0.22981
-0.21108
-0.18610
-0.16112
-0.13364
-0.10616
-0.08118
-0.05620
-0.03497
-0.02123
-0.01124
-0.00375
0.00125
0.00624
0.01124
0.01624
0.01998
0.01998
0.01998
0.01998
0.01998
0.01998
0.02123
0.02498
0.02373
0.01873
0.01124
0.00375
-0.00375
-0.01499
-0.02998
-0.03997
-0.03872
-0.03122
-0.01624
0.00874
0.03247
0.04496
0.04496
0.04371
0.03997
0.03997
0.03997
0.03872
0.03372
0.02873
0.02498
0.02373
0.01249
-0.01374
-0.06120
-0.09867
-0.03497
0.19359
0.52082
0.75937
0.74064
0.48710
0.18735
-0.00250
-0.06869
-0.07119
-0.06370
-0.05870
-0.05620
-0.06120
-0.06495
-0.06495
-0.06620
-0.06994
-0.07119
-0.07369
-0.07119
-0.07869
-0.08868
-0.09492
-0.09492
-0.09867
-0.10866
-0.12115
-0.14363
-0.16611
-0.18485
-0.19984
-0.21357
-0.22357
-0.23481
-0.24855
-0.25854
-0.26478
-0.26853
-0.27477
-0.27477
-0.27352
-0.27103
-0.27477
-0.27352
-0.26853
-0.26228
-0.24730
-0.22232
-0.19734
-0.17236
-0.14488
-0.11491
-0.08868
-0.07119
-0.06120
-0.05121
-0.04371
-0.03872
-0.03497
-0.03372
-0.02873
-0.02498
-0.02873
-0.03497
-0.03497
-0.03372
-0.02998
-0.02873
-0.02373
-0.02123
-0.02873
-0.03497
-0.03497
-0.03872
-0.04996
-0.06370
-0.07119
-0.07369
-0.06744
-0.05371
-0.03247
-0.00624
0.01624
0.01873
0.01374
0.01124
0.01624
0.01998
0.01998
0.01749
0.00874
0.00375
-0.00125
-0.00999
-0.03247
-0.07869
-0.12615
-0.09242
0.11491
0.44214
0.71441
0.75063
0.52457
0.21607
0.00125
-0.07993
-0.08493
-0.07369
-0.06994
-0.06994
-0.06994
-0.06994
-0.06994
-0.07119
-0.07494
-0.07744
-0.08618
-0.08993
-0.08993
-0.09117
-0.09617
-0.10242
-0.11116
-0.11491
-0.11615
-0.12490
-0.13739
-0.14738
-0.15737
-0.16986
-0.18235
-0.19109
-0.19609
-0.20108
-0.20358
-0.19859
-0.19484
-0.19609
-0.19984
-0.19734
-0.18859
-0.18485
-0.18360
-0.17610
-0.15987
-0.13864
-0.11865
-0.09492
-0.06120
-0.03372
-0.01374
0.00624
0.02373
0.03747
0.04496
0.04746
0.05495
0.05495
0.05495
0.05620
0.06120
0.06370
0.05870
0.05495
0.05745
0.06620
0.06994
0.06994
0.06744
0.05870
0.05246
0.04371
0.03622
0.02123
0.00749
0.00000
0.00125
0.00999
0.03247
0.05745
0.07869
0.09117
0.09367
0.08743
0.07869
0.07494
0.07494
0.07369
0.06994
0.06994
0.06869
0.06120
0.03872
-0.00999
-0.07619
-0.06869
0.12240
0.47586
0.79809
0.86554
0.63697
0.30725
0.07119
-0.02998
-0.04246
-0.03247
-0.02373
-0.02123
-0.02748
-0.03497
-0.03497
-0.03622
-0.04122
-0.04496
-0.04496
-0.04621
-0.05246
-0.06120
-0.06495
-0.06744
-0.07744
-0.08743
-0.09492
-0.09742
-0.10866
-0.12240
-0.13364
-0.14738
-0.15737
-0.16861
-0.18110
-0.18610
-0.19359
-0.20608
-0.21108
-0.21482
-0.21607
-0.22107
-0.22481
-0.22357
-0.21732
-0.20858
-0.19859
-0.17361
-0.14988
-0.12864
-0.10242
-0.07244
-0.04371
-0.02123
-0.00749
0.00250
0.01249
0.01998
0.02123
0.02623
0.03247
0.04122
0.04496
0.04496
0.04496
0.04496
0.04496
0.04496
0.04496
0.04496
0.04246
0.03372
0.02998
0.02748
0.01499
-0.00250
-0.01249
-0.01998
-0.01998
-0.01624
0.00375
0.03747
0.06245
0.06994
0.06994
0.06994
0.06869
0.06245
0.05495
0.05495
0.05371
0.04871
0.04371
0.03622
0.01374
-0.04246
-0.10366
-0.07244
0.15487
0.53081
0.84430
0.87053
0.59951
0.24855
0.01624
-0.06495
-0.06120
-0.04871
-0.04496
-0.04496
-0.04496
-0.04496
-0.04496
-0.04496
-0.04621
-0.05246
-0.06120
-0.06620
-0.06994
-0.07119
-0.07744
-0.08618
-0.09117
-0.09742
-0.10866
-0.12240
-0.13114
-0.13864
-0.15362
-0.16736
-0.17735
-0.18735
-0.19734
-0.20858
-0.22107
-0.22481
-0.22731
-0.23481
-0.23481
-0.23481
-0.23481
-0.23481
-0.23481
-0.23231
-0.22107
-0.19984
-0.17486
-0.14738
-0.11366
-0.08493
-0.05995
-0.03622
-0.01749
-0.00250
0.00500
0.00749
0.01624
0.02123
0.02623
0.02998
0.02998
0.02998
0.02998
0.02998
0.03122
0.03372
0.02998
0.02998
0.02998
0.02748
0.01873
0.01249
-0.00250
-0.01749
-0.02748
-0.03622
-0.03747
-0.01998
0.00500
0.02998
0.05246
0.06495
0.06245
0.05371
0.04871
0.04496
0.04496
0.04371
0.03872
0.03372
0.02873
0.01873
-0.01499
-0.06495
-0.10117
-0.01749
0.25854
0.63198
0.87053
0.78935
0.46337
0.13739
-0.03497
-0.07869
-0.07244
-0.05870
-0.05620
-0.06120
-0.06495
-0.06495
-0.06495
-0.06620
-0.06994
-0.07119
-0.07494
-0.07744
-0.08743
-0.09492
-0.09617
-0.10242
-0.11116
-0.11615
-0.12240
-0.13239
-0.14238
-0.15737
-0.17236
-0.18110
-0.18735
-0.19734
-0.21108
-0.21732
-0.22731
-0.23730
-0.24480
-0.24605
-0.24979
-0.24979
-0.24855
-0.24355
-0.23356
-0.22606
-0.20608
-0.18610
-0.16112
-0.13864
-0.10491
-0.07619
-0.05121
-0.03372
-0.02373
-0.01374
-0.00375
0.00125
0.00500
0.00624
0.01499
0.01374
0.00500
0.00500
0.00624
0.01499
0.01624
0.01998
0.01998
0.01998
0.01873
0.00874
-0.00125
-0.01374
-0.03247
-0.04621
-0.04871
-0.04246
-0.02623
0.00000
0.02873
0.05121
0.05371
0.04871
0.04496
0.04496
0.04371
0.03872
0.03622
0.03872
0.03372
0.02873
0.01749
-0.00500
-0.04496
-0.09867
-0.06620
0.14488
0.47211
0.74439
0.76687
0.52707
0.22107
0.01124
-0.07119
-0.07244
-0.05870
-0.04871
-0.04621
-0.05121
-0.05620
-0.05995
-0.06120
-0.06495
-0.06495
-0.06620
-0.07244
-0.08493
-0.08493
-0.08618
-0.09117
-0.09617
-0.10616
-0.11116
-0.12115
-0.12615
-0.13614
-0.14613
-0.15737
-0.17111
-0.18110
-0.18610
-0.19109
-0.20108
-0.20483
-0.20483
-0.20608
-0.20983
-0.20983
-0.20983
-0.20858
-0.19859
-0.18859
-0.17610
-0.15237
-0.13239
-0.11116
-0.08618
-0.06120
-0.03747
-0.02248
-0.00874
-0.00375
0.00500
0.00500
0.00624
0.00999
0.00874
0.00500
0.00624
0.01124
0.01998
0.01499
0.01124
0.01624
0.01998
0.01998
0.01998
0.01499
0.00874
-0.00125
-0.01124
-0.02623
-0.03622
-0.03997
-0.03372
-0.02248
-0.00125
0.02748
0.04621
0.05495
0.05495
0.04996
0.04996
0.04996
0.04496
0.03997
0.03997
0.03497
0.03497
0.02748
0.00500
-0.03622
-0.09117
-0.08743
0.08618
0.41216
0.72315
0.80933
0.60325
0.27727
0.03872
-0.05121
-0.05870
-0.04871
-0.03997
-0.03497
-0.03997
-0.04496
-0.04496
-0.04496
-0.04996
-0.05495
-0.05995
-0.06495
-0.06495
-0.07119
-0.07993
-0.08493
-0.08618
-0.09492
-0.10117
-0.11116
-0.11990
-0.12615
-0.14113
-0.15487
-0.16112
-0.17111
-0.18110
-0.18610
-0.19609
-0.20108
-0.20983
-0.20983
-0.21108
-0.21482
-0.21482
-0.21482
-0.20983
-0.20358
-0.18859
-0.16861
-0.14738
-0.11740
-0.09367
-0.07369
-0.05371
-0.03372
-0.01873
-0.00375
0.00624
0.01499
0.01998
0.01998
0.01998
0.01998
0.02498
0.01998
0.01998
0.01998
0.02498
0.02998
0.02998
0.02998
0.02498
0.01998
0.01998
0.01873
0.00874
-0.00125
-0.01624
-0.02998
-0.03497
-0.03497
-0.02873
-0.01249
0.02248
0.04996
0.05495
0.05495
0.05495
0.05495
0.04996
0.04496
0.04496
0.04496
0.04496
0.04496
0.03872
0.02248
-0.01499
-0.07869
-0.12365
-0.02873
0.27228
0.64822
0.87428
0.78186
0.45088
0.12739
-0.04246
-0.07369
-0.05870
-0.04996
-0.04496
-0.04496
-0.05121
-0.05995
-0.05995
-0.05495
-0.05495
-0.05995
-0.06495
-0.06994
-0.07119
-0.08118
-0.08993
-0.09492
-0.10117
-0.11116
-0.11990
-0.12615
-0.13614
-0.14613
-0.15612
-0.17111
-0.18110
-0.19109
-0.20108
-0.20983
-0.21482
-0.22107
-0.22981
-0.23481
-0.23980
-0.23980
-0.23481
-0.23481
-0.23481
-0.22481
-0.20858
-0.18859
-0.15862
-0.12864
-0.10366
-0.07869
-0.05870
-0.03872
-0.01998
-0.00999
-0.00500
0.00500
0.01499
0.01998
0.01998
0.01998
0.02498
0.02498
0.01998
0.01998
0.01998
0.01998
0.01998
0.02498
0.02998
0.02498
0.01998
0.01998
0.01499
0.00999
-0.00624
-0.02498
-0.03497
-0.03497
-0.03497
-0.03372
-0.00874
0.02623
0.04996
0.05495
0.04996
0.04496
0.04496
0.03997
0.03997
0.03997
0.02998
0.02998
0.02498
0.02498
0.00874
-0.03247
-0.09492
-0.10366
0.08118
0.43089
0.77436
0.88802
0.66320
0.29226
0.02248
-0.07993
-0.07993
-0.06994
-0.05995
-0.05995
-0.06495
-0.06495
-0.06994
-0.06994
-0.07993
-0.08493
-0.08493
-0.08493
-0.08493
-0.09492
-0.09492
-0.10491
-0.10991
-0.11990
-0.12989
-0.13489
-0.13988
-0.14988
-0.16486
-0.17985
-0.18485
-0.19484
-0.20483
-0.21482
-0.22481
-0.22981
-0.23481
-0.23980
-0.23980
-0.23980
-0.24979
-0.24979
-0.24979
-0.22981
-0.21482
-0.19984
-0.17486
-0.14988
-0.12490
-0.10491
-0.07494
-0.04496
-0.03497
-0.01998
-0.00999
0.00000
0.00500
0.01499
0.01998
0.01998
0.01499
0.00999
0.01499
0.01998
0.01998
0.01998
0.01998
0.01998
0.01998
0.01499
0.00500
0.00000
0.00000
-0.00500
-0.01998
-0.03497
-0.03997
-0.04496
-0.04496
-0.03497
-0.01499
0.01499
0.02998
0.03997
0.03997
0.04496
0.03497
0.02998
0.02998
0.02998
0.02998
0.02498
0.01998
0.01998
0.00000
-0.03997
-0.09992
-0.12989
0.00874
0.31224
0.65196
0.80808
0.66695
0.35845
0.08243
-0.05371
-0.07993
-0.06994
-0.05995
-0.05995
-0.05995
-0.06994
-0.06994
-0.06994
-0.06495
-0.06994
-0.06994
-0.06994
-0.06994
-0.07494
-0.08493
-0.08993
-0.09492
-0.09992
-0.10991
-0.11491
-0.12490
-0.13489
-0.14988
-0.15987
-0.16486
-0.17486
-0.18984
-0.19984
-0.20483
-0.20983
-0.21482
-0.21982
-0.21982
-0.21982
-0.22481
-0.21982
-0.21482
-0.20483
-0.18984
-0.17486
-0.15612
-0.13114
-0.10616
-0.08118
-0.06495
-0.04122
-0.02498
-0.01499
-0.00500
-0.00500
0.00500
0.00500
0.00500
0.00999
0.00500
0.00500
0.00000
0.00500
0.01499
0.00500
0.00500
0.00500
0.00999
0.00999
0.00500
0.00500
0.00500
-0.00500
-0.00999
-0.01998
-0.03497
-0.04496
-0.04496
-0.03997
-0.02998
-0.01499
0.00874
0.03372
0.04996
0.04496
0.03997
0.03497
0.03997
0.04496
0.03497
0.02998
0.02498
0.02498
0.01998
0.01499
-0.01873
-0.07744
-0.11865
-0.02498
0.25604
0.59826
0.80559
0.71941
0.41591
0.11990
-0.03247
-0.07369
-0.06495
-0.05495
-0.04996
-0.05995
-0.05995
-0.05995
-0.05995
-0.06495
-0.06495
-0.06495
-0.06495
-0.06994
-0.06994
-0.07494
-0.07993
-0.08993
-0.09492
-0.09992
-0.10991
-0.11990
-0.12989
-0.13988
-0.14988
-0.15987
-0.17361
-0.18859
-0.19984
-0.20483
-0.20983
-0.21982
-0.21982
-0.22481
-0.22481
-0.22981
-0.22481
-0.22481
-0.21607
-0.20983
-0.20108
-0.18110
-0.15237
-0.12240
-0.09617
-0.06744
-0.04621
-0.03122
-0.01124
-0.00125
0.00874
0.01499
0.01499
0.01998
0.02873
0.02498
0.01998
0.02498
0.02998
0.02498
0.01998
0.01998
0.01998
0.01998
0.01998
0.01998
0.02498
0.02498
0.01998
0.01124
0.00500
-0.00375
-0.02373
-0.03372
-0.03497
-0.02623
-0.03372
-0.02998
-0.00250
0.02748
0.04371
0.04496
0.04496
0.04496
0.03622
0.02998
0.02998
0.02998
0.02998
0.02998
0.02123
0.01499
-0.01749
-0.08368
-0.13614
-0.02123
0.30475
0.67694
0.87803
0.75812
0.41716
0.10366
-0.05620
-0.08368
-0.07119
-0.06120
-0.05995
-0.06495
-0.06495
-0.06994
-0.07494
-0.07494
-0.06994
-0.07494
-0.08368
-0.08993
-0.09492
-0.09492
-0.09992
-0.09992
-0.10866
-0.11865
-0.13364
-0.13988
-0.14488
-0.15862
-0.17860
-0.18859
-0.20358
-0.21357
-0.22357
-0.23356
-0.24355
-0.25354
-0.25979
-0.26478
-0.26478
-0.26103
-0.25979
-0.25979
-0.25104
-0.23606
-0.23106
-0.20733
-0.18235
-0.14863
-0.11865
-0.10117
-0.08243
-0.05745
-0.04122
-0.03497
-0.02623
-0.01624
-0.00624
0.00000
0.00500
0.00500
0.00500
0.00500
0.00500
0.00500
0.00999
0.00500
0.00500
0.00500
0.00500
0.00500
0.00500
0.00500
0.00500
-0.00375
-0.00999
-0.01873
-0.02873
-0.03872
-0.04871
-0.04621
-0.04122
-0.03122
-0.00749
0.02623
0.04371
0.04496
0.03622
0.03122
0.02998
0.02998
0.02623
0.02123
0.01998
0.02498
0.02498
0.01249
-0.01998
-0.07744
-0.11990
-0.04246
0.22232
0.57328
0.79434
0.72440
0.43589
0.13864
-0.03497
-0.08118
-0.07619
-0.06620
-0.06120
-0.06495
-0.06994
-0.06620
-0.06495
-0.06994
-0.06994
-0.06994
-0.07494
-0.08368
-0.08493
-0.08993
-0.08993
-0.09867
-0.10866
-0.11491
-0.12365
-0.13364
-0.14738
-0.15862
-0.16486
-0.17735
-0.18859
-0.19859
-0.19984
-0.20858
-0.21482
-0.22357
-0.22981
-0.22981
-0.22981
-0.22606
-0.22481
-0.22107
-0.21108
-0.20608
-0.19234
-0.17236
-0.14863
-0.12365
-0.10242
-0.07869
-0.05745
-0.04246
-0.02748
-0.01249
-0.00624
0.00375
0.00500
0.00500
0.00125
0.00000
-0.00375
-0.00500
-0.00500
-0.00500
-0.00125
0.00000
0.00375
0.00500
0.00500
0.00500
0.00500
0.00500
0.00125
-0.00375
-0.00500
-0.01374
-0.02748
-0.04246
-0.04871
-0.04996
-0.04621
-0.04122
-0.02373
0.00125
0.02623
0.03372
0.03497
0.03497
0.03122
0.02998
0.02998
0.02998
0.02998
0.02123
0.01998
0.01998
0.00375
-0.04122
-0.10366
-0.11491
0.04246
0.35346
0.67070
0.79185
0.63573
0.32723
0.06744
-0.05745
-0.07869
-0.07119
-0.06120
-0.05620
-0.05495
-0.05870
-0.06370
-0.06495
-0.06495
-0.06869
-0.06994
-0.07369
-0.07119
-0.07369
-0.08368
-0.08493
-0.08868
-0.09867
-0.10866
-0.11865
-0.12365
-0.13364
-0.14363
-0.15737
-0.16362
-0.17735
-0.18859
-0.19859
-0.19984
-0.20358
-0.21357
-0.22357
-0.22481
-0.22481
-0.22481
-0.22481
-0.22481
-0.21732
-0.20233
-0.18735
-0.16861
-0.14488
-0.11615
-0.08993
-0.06869
-0.04871
-0.02873
-0.01749
-0.00749
0.00250
0.01249
0.01873
0.01998
0.01998
0.01998
0.01998
0.01998
0.01998
0.01998
0.01998
0.01998
0.01998
0.02373
0.02123
0.01998
0.01998
0.01998
0.01998
0.01624
0.01124
0.00624
-0.00250
-0.02123
-0.03247
-0.03497
-0.02748
-0.02123
-0.00749
0.01499
0.03997
0.05246
0.05121
0.04621
0.04496
0.04122
0.03622
0.03497
0.03497
0.03122
0.02998
0.02248
0.00375
-0.04746
-0.11865
-0.10366
0.11366
0.47711
0.79310
0.84680
0.61200
0.27477
0.02748
-0.07119
-0.07744
-0.05870
-0.05495
-0.05870
-0.05995
-0.05620
-0.05870
-0.05995
-0.06370
-0.06495
-0.06869
-0.07369
-0.08243
-0.08493
-0.08493
-0.09242
-0.09867
-0.10366
-0.11241
-0.11865
-0.12739
-0.13739
-0.15113
-0.16237
-0.17610
-0.18735
-0.20108
-0.21232
-0.22232
-0.22856
-0.23356
-0.23855
-0.24355
-0.24855
-0.24979
-0.24605
-0.24105
-0.23606
-0.22357
-0.20483
-0.18485
-0.16486
-0.13364
-0.09867
-0.07119
-0.04996
-0.03372
-0.01873
-0.00749
-0.00500
0.00250
0.00874
0.01749
0.01998
0.01998
0.01998
0.01998
0.01998
0.01998
0.01998
0.02373
0.02873
0.02623
0.02498
0.02498
0.02498
0.02498
0.02873
0.03372
0.02748
0.01749
0.01499
0.01124
-0.00125
-0.02373
-0.03747
-0.03997
-0.03997
-0.03622
-0.01249
0.01749
0.03997
0.04496
0.04496
0.04496
0.04122
0.03622
0.03497
0.03497
0.03122
0.02998
0.02623
0.02123
0.00125
-0.04246
-0.09992
-0.06994
0.14738
0.48835
0.76687
0.79310
0.55579
0.23730
0.01374
-0.06869
-0.06869
-0.05371
-0.04621
-0.05246
-0.05870
-0.06370
-0.06495
-0.06495
-0.06495
-0.06869
-0.07369
-0.08243
-0.08493
-0.08493
-0.08868
-0.09367
-0.09867
-0.10741
-0.11366
-0.12240
-0.12864
-0.13364
-0.14238
-0.15612
-0.16736
-0.17361
-0.18235
-0.19609
-0.20358
-0.20483
-0.20858
-0.20983
-0.20983
-0.20983
-0.20983
-0.20983
-0.20983
-0.20233
-0.18859
-0.16986
-0.14988
-0.12739
-0.09867
-0.07869
-0.05995
-0.03622
-0.01499
-0.00624
-0.00500
-0.00125
0.00749
0.01749
0.01998
0.01998
0.01998
0.02373
0.02123
0.01998
0.01998
0.02373
0.02498
0.02123
0.02373
0.02498
0.02498
0.02498
0.02498
0.02498
0.02123
0.01249
0.00624
-0.00250
-0.01624
-0.03122
-0.03497
-0.02748
-0.02123
-0.00874
0.01249
0.03747
0.05246
0.05495
0.05121
0.04996
0.04621
0.04122
0.03247
0.02998
0.03372
0.03122
0.02623
0.01499
-0.01873
-0.07619
-0.10242
0.02873
0.32473
0.64697
0.79684
0.67569
0.38218
0.10866
-0.03497
-0.06869
-0.05620
-0.04621
-0.04496
-0.04871
-0.04996
-0.04996
-0.05745
-0.06370
-0.06495
-0.06495
-0.06869
-0.07369
-0.07494
-0.07869
-0.08368
-0.09242
-0.09492
-0.09867
-0.10741
-0.11740
-0.12989
-0.13864
-0.14738
-0.15987
-0.17236
-0.18235
-0.18859
-0.19734
-0.20358
-0.20858
-0.20983
-0.21732
-0.21982
-0.21982
-0.21982
-0.21982
-0.21357
-0.19984
-0.18110
-0.16486
-0.14613
-0.11990
-0.08993
-0.06994
-0.04746
-0.02998
-0.01499
-0.00375
0.00375
0.00874
0.01624
0.02373
0.02123
0.01998
0.01998
0.01998
0.01998
0.01998
0.01998
0.02373
0.02123
0.01998
0.01998
0.02373
0.02498
0.02498
0.02498
0.02498
0.01873
0.00874
0.00125
-0.00375
-0.01499
-0.02998
-0.03872
-0.03622
-0.03497
-0.02873
-0.00500
0.02498
0.04496
0.04621
0.04496
0.04496
0.04122
0.03622
0.03497
0.03497
0.03497
0.03122
0.02373
0.01374
-0.01624
-0.07993
-0.11865
-0.00500
0.29476
0.64822
0.84181
0.74064
0.43089
0.12739
-0.03747
-0.07869
-0.06994
-0.05870
-0.05870
-0.06370
-0.06495
-0.06495
-0.06869
-0.06994
-0.06994
-0.07369
-0.07869
-0.08368
-0.08493
-0.08493
-0.08868
-0.09367
-0.10491
-0.11366
-0.11865
-0.12989
-0.13864
-0.14613
-0.15987
-0.17486
-0.18610
-0.19359
-0.20108
-0.21108
-0.22107
-0.22856
-0.23356
-0.23855
-0.24355
-0.24480
-0.24855
-0.24979
-0.24355
-0.23356
-0.21732
-0.19984
-0.17860
-0.15362
-0.12615
-0.09867
-0.07369
-0.04871
-0.02998
-0.01499
-0.00624
-0.00500
0.00125
0.00874
0.00999
0.01374
0.01873
0.01998
0.01624
0.01499
0.01873
0.01998
0.01998
0.01998
0.01998
0.01998
0.01998
0.01998
0.01998
0.01998
0.01374
0.00624
0.00125
-0.00375
-0.01124
-0.02748
-0.04122
-0.04496
-0.04246
-0.02998
-0.00250
0.02873
0.04371
0.04246
0.03747
0.03497
0.03247
0.02998
0.02748
0.02248
0.01998
0.01998
0.01749
0.00500
-0.02873
-0.08618
-0.09742
0.04996
0.35346
0.67195
0.80309
0.65571
0.34846
0.07744
-0.05620
-0.08243
-0.07119
-0.06245
-0.06370
-0.06495
-0.06495
-0.06495
-0.06495
-0.06869
-0.07369
-0.07494
-0.07244
-0.07369
-0.08118
-0.08868
-0.09617
-0.10616
-0.11366
-0.11491
-0.12115
-0.13364
-0.14613
-0.15612
-0.16362
-0.17111
-0.18110
-0.18859
-0.19609
-0.20608
-0.20983
-0.20983
-0.20983
-0.21607
-0.22357
-0.22481
-0.22232
-0.21732
-0.21232
-0.20358
-0.18735
-0.16736
-0.14738
-0.12490
-0.09992
-0.07494
-0.05620
-0.04371
-0.03122
-0.01624
-0.00749
-0.00500
-0.00500
0.00125
0.00500
0.00500
0.00500
0.00500
0.00500
0.00500
0.00500
0.00749
0.00999
0.00749
0.00500
0.00749
0.01624
0.01749
0.01499
0.01499
0.00874
0.00250
-0.00624
-0.01624
-0.02623
-0.03872
-0.04246
-0.03372
-0.02123
-0.00375
0.01998
0.03872
0.04496
0.04246
0.03747
0.03497
0.03497
0.03247
0.02748
0.02248
0.01998
0.01749
0.00624
-0.01998
-0.06994
-0.11491
-0.05371
0.17486
0.49834
0.74189
0.74189
0.50458
0.20108
0.00500
-0.06495
-0.06869
-0.05870
-0.04871
-0.04746
-0.05246
-0.05246
-0.04996
-0.05620
-0.06245
-0.06495
-0.06495
-0.06744
-0.07244
-0.08118
-0.08493
-0.09117
-0.09742
-0.10616
-0.11241
-0.11740
-0.12615
-0.13614
-0.14613
-0.15612
-0.17111
-0.18610
-0.19609
-0.19984
-0.20608
-0.21607
-0.22232
-0.22481
-0.22731
-0.23231
-0.23231
-0.22731
-0.22481
-0.21982
-0.20608
-0.18360
-0.15612
-0.13364
-0.11366
-0.08868
-0.06120
-0.03872
-0.02123
-0.00999
0.00000
0.00500
0.00500
0.00749
0.01499
0.01998
0.01749
0.01499
0.01749
0.01998
0.01998
0.02248
0.02498
0.02498
0.02248
0.02248
0.02748
0.02998
0.02998
0.02998
0.02998
0.02498
0.01749
0.00624
-0.00874
-0.01998
-0.02998
-0.03497
-0.03247
-0.02123
-0.00125
0.02623
0.04871
0.05495
0.05246
0.04746
0.04246
0.03997
0.03997
0.03497
0.02748
0.02248
0.01998
0.01499
-0.01499
-0.07619
-0.12615
-0.05371
0.20358
0.56079
0.81058
0.77686
0.49584
0.17860
-0.01249
-0.07369
-0.07494
-0.06495
-0.05995
-0.05995
-0.06245
-0.06495
-0.06495
-0.06495
-0.06495
-0.06744
-0.06994
-0.07244
-0.07744
-0.08243
-0.08493
-0.08993
-0.09992
-0.10991
-0.11740
-0.12490
-0.13489
-0.14738
-0.15987
-0.16986
-0.18235
-0.19484
-0.20483
-0.21482
-0.22481
-0.23231
-0.23730
-0.23730
-0.23980
-0.24730
-0.24979
-0.24979
-0.24480
-0.23730
-0.22981
-0.21732
-0.20233
-0.18735
-0.16736
-0.14238
-0.11740
-0.09742
-0.08243
-0.06994
-0.05995
-0.04996
-0.04496
-0.04496
-0.04246
-0.03997
-0.04246
-0.04496
-0.03997
-0.03497
-0.03747
-0.03997
-0.03747
-0.03497
-0.03497
-0.03497
-0.03497
-0.02998
-0.02748
-0.03247
-0.03497
-0.03497
-0.03997
-0.04996
-0.06245
-0.07244
-0.07993
-0.08493
-0.08243
-0.07244
-0.04746
-0.01749
0.00000
0.00500
0.00250
-0.00250
-0.00500
-0.00749
-0.00999
-0.01499
-0.01998
-0.01998
-0.01998
-0.02998
-0.06245
-0.11740
-0.13988
-0.01998
0.26978
0.60950
0.78810
0.67070
0.35845
0.06994
-0.07744
-0.11241
-0.10491
-0.09742
-0.09492
-0.09492
-0.09492
-0.09492
-0.09492
-0.09492
-0.09992
-0.10741
-0.11241
-0.11491
-0.11740
-0.12240
-0.12739
-0.13239
-0.13988
-0.15237
-0.15987
-0.15987
-0.16736
-0.17985
-0.18984
-0.19734
-0.20483
-0.21732
-0.22731
-0.23231
-0.23481
-0.23980
-0.24730
-0.25229
-0.25479
-0.25229
-0.24979
-0.24979
-0.24230
-0.23231
-0.22232
-0.20483
-0.18235
-0.15113
-0.11366
-0.07869
-0.04621
-0.01998
-0.00500
0.00500
0.01499
0.02498
0.03247
0.03247
0.03247
0.03747
0.04246
0.04746
0.04996
0.04746
0.04496
0.04746
0.05246
0.05246
0.04746
0.04496
0.04746
0.04996
0.04746
0.03747
0.02998
0.02748
0.01749
0.00250
-0.00749
-0.00749
-0.00500
0.00250
0.02623
0.05371
0.06744
0.06994
0.06994
0.06744
0.06245
0.05745
0.05246
0.04996
0.04996
0.04746
0.04246
0.03247
0.00375
-0.04996
-0.07869
0.01998
0.27477
0.58577
0.77686
0.71691
0.45338
0.17236
0.00125
-0.05246
-0.04871
-0.03747
-0.03497
-0.03747
-0.03747
-0.03747
-0.04246
-0.04746
-0.04996
-0.04996
-0.05246
-0.05745
-0.05995
-0.06245
-0.06744
-0.07619
-0.08493
-0.08743
-0.09492
-0.10491
-0.11241
-0.11740
-0.12490
-0.13614
-0.14988
-0.15987
-0.16986
-0.18110
-0.19234
-0.19484
-0.19734
-0.20233
-0.20483
-0.20483
-0.20233
-0.19984
-0.19609
-0.18360
-0.16611
-0.14613
-0.12615
-0.10366
-0.08118
-0.06120
-0.04122
-0.02123
-0.00375
0.00999
0.01749
0.01998
0.02248
0.02498
0.02248
0.01998
0.02248
0.02498
0.02248
0.01998
0.01998
0.02248
0.02248
0.01998
0.01998
0.01998
0.01998
0.01998
0.01998
0.01749
0.01124
0.00250
-0.00375
-0.01624
-0.02873
-0.03497
-0.03122
-0.02123
-0.00624
0.01624
0.03872
0.05246
0.05246
0.04746
0.04496
0.04246
0.04246
0.04246
0.03747
0.03497
0.03247
0.02373
0.00000
-0.04496
-0.09742
-0.07119
0.12240
0.45088
0.74314
0.81183
0.60700
0.28601
0.03997
-0.06245
-0.07369
-0.06120
-0.05121
-0.04746
-0.05371
-0.05995
-0.05995
-0.05995
-0.05995
-0.06245
-0.06744
-0.06994
-0.06994
-0.07244
-0.07744
-0.08243
-0.08868
-0.09742
-0.10366
-0.11241
-0.11865
-0.12864
-0.13864
-0.14863
-0.16112
-0.17361
-0.18360
-0.19359
-0.20233
-0.20733
-0.21357
-0.22232
-0.22481
-0.22731
-0.22981
-0.22856
-0.22481
-0.22107
-0.21108
-0.19484
-0.16986
-0.14488
-0.11990
-0.09492
-0.06994
-0.04746
-0.02873
-0.01374
-0.00125
0.00500
0.00749
0.01249
0.01749
0.01998
0.01998
0.01998
0.01998
0.01998
0.01998
0.01998
0.01998
0.01998
0.01998
0.01998
0.01998
0.01998
0.01998
0.01624
0.00999
0.00749
0.00125
-0.01249
-0.02873
-0.03497
-0.03497
-0.03247
-0.02248
0.00375
0.03497
0.05246
0.05121
0.04246
0.03372
0.01873
0.00624
0.00000
-0.00250
-0.00874
-0.01749
-0.02373
-0.03747
-0.07244
-0.13864
-0.16611
-0.02748
0.30100
0.65946
0.82807
0.69068
0.35721
0.05121
-0.10242
-0.13489
-0.11990
-0.10866
-0.10366
-0.09992
-0.10366
-0.11241
-0.11740
-0.11865
-0.11740
-0.11990
-0.11990
-0.11990
-0.12240
-0.12864
-0.13864
-0.14488
-0.14738
-0.15362
-0.16611
-0.17860
-0.18735
-0.19359
-0.20358
-0.21607
-0.22731
-0.23231
-0.24105
-0.25229
-0.25479
-0.25854
-0.26728
-0.26978
-0.26478
-0.25104
-0.24105
-0.23356
-0.22481
-0.20983
-0.19234
-0.17486
-0.15612
-0.12739
-0.09617
-0.07119
-0.04996
-0.03122
-0.00999
0.00125
0.00874
0.01624
0.02123
0.02623
0.02998
0.02998
0.03122
0.03622
0.04122
0.04496
0.04371
0.03872
0.03497
0.03872
0.04496
0.04371
0.03872
0.03372
0.02998
0.02873
0.02123
0.00999
-0.00500
-0.01624
-0.01998
-0.01873
-0.00999
0.00874
0.03372
0.05121
0.05495
0.05495
0.05371
0.04996
0.04996
0.04871
0.04371
0.03997
0.04122
0.04371
0.03497
0.00999
-0.03997
-0.09242
-0.06869
0.12615
0.45463
0.74189
0.79060
0.57578
0.26978
0.04621
-0.04621
-0.05870
-0.05121
-0.04496
-0.04371
-0.04122
-0.04496
-0.04496
-0.04621
-0.05121
-0.05620
-0.05995
-0.05995
-0.06120
-0.06620
-0.07119
-0.07619
-0.08368
-0.09367
-0.10366
-0.11116
-0.11865
-0.12989
-0.14363
-0.15113
-0.15862
-0.16986
-0.18110
-0.18610
-0.19359
-0.20358
-0.20983
-0.21108
-0.21357
-0.20983
-0.20983
-0.20983
-0.20858
-0.20233
-0.18984
-0.17236
-0.14738
-0.12240
-0.09867
-0.07744
-0.04996
-0.02373
-0.00624
0.00125
0.00874
0.01624
0.01998
0.01998
0.01998
0.01998
0.01998
0.01998
0.01998
0.01998
0.01998
0.01998
0.01998
0.01998
0.01998
0.01998
0.01998
0.01998
0.01873
0.01249
0.00375
-0.00125
-0.00999
-0.02498
-0.03622
-0.03747
-0.02498
-0.00749
0.01873
0.04746
0.06495
0.06245
0.05495
0.05495
0.05495
0.05371
0.04871
0.04371
0.03997
0.03747
0.02873
0.01873
-0.01249
-0.07244
-0.09867
0.01749
0.30974
0.65071
0.83556
0.73814
0.42840
0.12615
-0.03247
-0.07244
-0.06120
-0.04871
-0.04496
-0.04621
-0.04996
-0.05121
-0.05620
-0.06120
-0.06495
-0.06495
-0.06620
-0.06994
-0.07119
-0.07494
-0.07744
-0.08743
-0.09617
-0.10242
-0.11241
-0.12490
-0.13614
-0.14238
-0.15237
-0.16486
-0.17735
-0.18610
-0.19234
-0.20233
-0.21232
-0.22107
-0.22606
-0.23106
-0.23481
-0.23481
-0.23481
-0.23481
-0.23356
-0.22606
-0.20983
-0.18984
-0.16861
-0.14113
-0.10991
-0.07619
-0.04996
-0.03122
-0.01624
-0.00250
0.00624
0.01124
0.01624
0.01998
0.01998
0.01998
0.01998
0.02123
0.02498
0.02373
0.01998
0.01998
0.02123
0.02498
0.02623
0.03122
0.03372
0.02873
0.02373
0.01998
0.01749
0.00749
-0.00500
-0.02373
-0.03622
-0.03997
-0.03747
-0.02123
0.01249
0.03997
0.05495
0.05495
0.05495
0.05371
0.04871
0.04496
0.04496
0.04371
0.03872
0.03372
0.02873
0.01873
-0.01624
-0.08118
-0.11366
0.01249
0.33847
0.71066
0.89926
0.76812
0.42465
0.10991
-0.04496
-0.07119
-0.05745
-0.04996
-0.05121
-0.05495
-0.05620
-0.06120
-0.06495
-0.06495
-0.06495
-0.06495
-0.06620
-0.06994
-0.07244
-0.08243
-0.09117
-0.09617
-0.10117
-0.10741
-0.11865
-0.13114
-0.13864
-0.15237
-0.16362
-0.17735
-0.18735
-0.19859
-0.21232
-0.22107
-0.22606
-0.23106
-0.23481
-0.23481
-0.23730
-0.24605
-0.24979
-0.24855
-0.24230
-0.23231
-0.21982
-0.19984
-0.17735
-0.14738
-0.11740
-0.08993
-0.06994
-0.05121
-0.03497
-0.01624
-0.00375
0.00125
0.00500
0.00624
0.00999
0.00874
0.00500
0.00500
0.00500
0.00624
0.01124
0.01624
0.01998
0.01998
0.01998
0.01873
0.01374
0.00874
0.00375
-0.00125
-0.00874
-0.02123
-0.02748
-0.03622
-0.03997
-0.03497
-0.01249
0.01998
0.04122
0.04496
0.04496
0.04496
0.04496
0.04496
0.04496
0.04496
0.04246
0.03372
0.02998
0.02623
0.00749
-0.03372
-0.09117
-0.08493
0.09492
0.42215
0.73190
0.81433
0.61324
0.29226
0.05371
-0.04871
-0.06370
-0.05745
-0.04871
-0.04496
-0.04621
-0.05121
-0.05495
-0.05495
-0.05745
-0.06620
-0.06994
-0.06869
-0.06620
-0.07119
-0.07619
-0.08243
-0.09242
-0.10242
-0.11116
-0.11615
-0.12240
-0.13239
-0.14363
-0.15737
-0.16736
-0.17735
-0.18859
-0.20108
-0.20483
-0.20608
-0.20983
-0.20983
-0.20983
-0.21108
-0.21482
-0.21482
-0.21357
-0.20858
-0.19734
-0.18110
-0.15987
-0.13364
-0.10491
-0.08118
-0.06120
-0.04246
-0.02748
-0.01749
-0.00749
0.00125
0.00500
0.00500
0.00624
0.01124
0.01499
0.01499
0.01499
0.01624
0.01873
0.01374
0.00999
0.01124
0.01499
0.01374
0.00999
0.00999
0.00874
0.00375
-0.00624
-0.01249
-0.02748
-0.03622
-0.03872
-0.03372
-0.01998
0.00624
0.03622
0.04496
0.04496
0.04496
0.04496
0.04496
0.04371
0.03872
0.03372
0.02998
0.02998
0.02873
0.01873
-0.02123
-0.07744
-0.10117
0.01249
0.29850
0.63573
0.81433
0.71191
0.40467
0.11366
-0.04246
-0.07869
-0.06869
-0.05995
-0.05870
-0.05620
-0.05995
-0.05995
-0.05995
-0.06120
-0.06620
-0.06994
-0.06994
-0.07119
-0.08118
-0.08618
-0.08993
-0.09117
-0.10117
-0.11116
-0.11990
-0.12115
-0.12739
-0.14238
-0.15612
-0.16112
-0.17111
-0.18235
-0.19609
-0.20108
-0.20608
-0.21108
-0.21482
-0.21482
-0.21607
-0.22481
-0.22481
-0.22357
-0.21357
-0.20358
-0.19234
-0.17610
-0.15113
-0.12615
-0.10117
-0.07619
-0.05246
-0.03247
-0.01749
-0.00375
0.00624
0.01624
0.01998
0.01998
0.01998
0.01998
0.01998
0.01998
0.01998
0.01998
0.01998
0.01998
0.01998
0.01998
0.01998
0.01998
0.01998
0.01873
0.00874
0.00375
-0.00624
-0.01249
-0.02623
-0.03497
-0.03372
-0.02248
-0.00125
0.02748
0.04621
0.05495
0.05371
0.04871
0.04371
0.03997
0.03997
0.03872
0.02998
0.02998
0.02873
0.02248
0.00250
-0.05495
-0.11491
-0.08118
0.14488
0.50209
0.80683
0.84555
0.58077
0.23730
0.01249
-0.06620
-0.07369
-0.06370
-0.05371
-0.04621
-0.05620
-0.05995
-0.05995
-0.05995
-0.06120
-0.06495
-0.06495
-0.06620
-0.07119
-0.08118
-0.08993
-0.09117
-0.09617
-0.10616
-0.11116
-0.11615
-0.12739
-0.14113
-0.15113
-0.16112
-0.17236
-0.18735
-0.20108
-0.20608
-0.21108
-0.22107
-0.23106
-0.23481
-0.23606
-0.24105
-0.24480
-0.23980
-0.23481
-0.22856
-0.21857
-0.20233
-0.17735
-0.15237
-0.12739
-0.10117
-0.07119
-0.04246
-0.02373
-0.01374
-0.00500
0.00000
0.00500
0.00500
0.00999
0.01499
0.01998
0.01998
0.01998
0.02498
0.01998
0.01998
0.01998
0.01998
0.02498
0.02998
0.02998
0.02373
0.01374
0.00500
-0.00125
-0.01249
-0.03122
-0.03997
-0.04496
-0.03747
-0.01624
0.01873
0.04621
0.05495
0.05495
0.04996
0.04496
0.04496
0.04996
0.04496
0.03997
0.03497
0.03497
0.02748
0.00500
-0.04246
-0.10616
-0.10117
0.10741
0.49209
0.84056
0.91175
0.65821
0.28352
0.02498
-0.07494
-0.07869
-0.06370
-0.05495
-0.05495
-0.05995
-0.05995
-0.05995
-0.06120
-0.06994
-0.06994
-0.07494
-0.07993
-0.08493
-0.08993
-0.08993
-0.09617
-0.10616
-0.11615
-0.12615
-0.13614
-0.14613
-0.15612
-0.16611
-0.17610
-0.18610
-0.20483
-0.20983
-0.21607
-0.22606
-0.23606
-0.24480
-0.24480
-0.24979
-0.25479
-0.25479
-0.25479
-0.24979
-0.23980
-0.23356
-0.21857
-0.19234
-0.16362
-0.13739
-0.10741
-0.07869
-0.05371
-0.03872
-0.02373
-0.00999
-0.00375
0.00500
0.00500
0.00500
0.00500
0.00500
0.01124
0.01998
0.01998
0.01499
0.00999
0.01499
0.01998
0.01998
0.01998
0.01374
0.00500
0.00375
-0.00624
-0.01998
-0.02623
-0.03997
-0.04496
-0.03872
-0.02373
0.00250
0.03122
0.04496
0.04496
0.04996
0.04996
0.04496
0.03997
0.03997
0.03997
0.02998
0.02998
0.02498
0.01873
-0.00749
-0.05870
-0.11116
-0.03997
0.23106
0.57952
0.81308
0.76312
0.47211
0.15487
-0.02873
-0.08493
-0.07993
-0.06994
-0.06495
-0.05995
-0.05995
-0.05995
-0.05995
-0.05995
-0.06495
-0.06994
-0.06994
-0.07993
-0.08993
-0.09492
-0.09992
-0.09992
-0.09992
-0.10991
-0.11990
-0.11990
-0.12989
-0.14113
-0.15487
-0.15987
-0.16986
-0.18110
-0.19484
-0.19984
-0.20483
-0.20983
-0.20983
-0.20983
-0.21482
-0.22481
-0.22481
-0.21982
-0.20983
-0.20483
-0.18984
-0.17361
-0.14863
-0.11865
-0.09867
-0.07869
-0.05371
-0.02873
-0.00999
-0.00500
0.00000
0.00500
0.00999
0.00500
0.00500
0.01499
0.00500
0.00500
0.00500
0.00500
0.00500
0.00500
0.00500
0.00999
0.01499
0.00500
0.00500
0.00000
0.00000
-0.00999
-0.02498
-0.03497
-0.03997
-0.03997
-0.02873
-0.00375
0.02498
0.04496
0.04996
0.04496
0.04496
0.04496
0.04496
0.03997
0.03497
0.02998
0.02498
0.02998
0.02498
0.00375
-0.04621
-0.10991
-0.10117
0.09617
0.42590
0.74189
0.81558
0.58951
0.25604
0.02873
-0.06495
-0.06994
-0.05495
-0.04496
-0.04496
-0.04496
-0.04996
-0.05495
-0.05995
-0.05995
-0.06495
-0.06994
-0.06994
-0.06994
-0.07494
-0.07993
-0.08493
-0.08993
-0.09992
-0.10991
-0.11990
-0.12490
-0.13489
-0.14988
-0.15987
-0.15987
-0.17486
-0.18485
-0.19984
-0.20483
-0.20483
-0.20983
-0.21482
-0.21982
-0.22481
-0.22981
-0.22981
-0.22481
-0.21482
-0.19984
-0.17985
-0.15987
-0.13489
-0.10491
-0.08493
-0.06495
-0.03997
-0.02498
-0.00999
-0.00500
0.00500
0.00999
0.01998
0.01998
0.01998
0.01998
0.01998
0.01998
0.01998
0.01998
0.01998
0.01998
0.01998
0.01998
0.01499
0.00500
0.00500
0.00500
0.00000
-0.01499
-0.02998
-0.03497
-0.03497
-0.02998
-0.01499
0.01499
0.04496
0.05495
0.04996
0.04996
0.04996
0.04496
0.04496
0.03997
0.03497
0.02998
0.02998
0.02498
0.00999
-0.03372
-0.11366
-0.13988
0.03122
0.39218
0.76187
0.89676
0.69942
0.34846
0.06120
-0.06245
-0.07494
-0.05495
-0.04496
-0.04496
-0.04996
-0.04996
-0.05495
-0.05995
-0.05995
-0.05995
-0.05995
-0.06994
-0.06994
-0.07494
-0.07993
-0.08493
-0.08993
-0.09492
-0.10491
-0.11491
-0.12989
-0.13489
-0.14988
-0.16486
-0.17985
-0.18485
-0.19984
-0.20983
-0.21482
-0.21982
-0.22481
-0.23481
-0.23481
-0.23481
-0.23481
-0.23481
-0.23481
-0.23481
-0.22481
-0.20608
-0.18610
-0.16611
-0.13114
-0.10117
-0.07119
-0.05121
-0.03122
-0.01624
-0.00500
0.00000
0.00500
0.01499
0.01998
0.01998
0.01998
0.01998
0.01998
0.01998
0.02498
0.02998
0.02498
0.01998
0.01998
0.01998
0.01499
0.00500
0.00500
-0.00500
-0.01499
-0.03372
-0.04496
-0.04496
-0.03997
-0.02998
0.00375
0.03372
0.05371
0.04996
0.04496
0.04496
0.03997
0.03497
0.02998
0.02498
0.02498
0.01998
0.01499
0.00125
-0.04246
-0.11116
-0.11990
0.07244
0.44713
0.79809
0.89052
0.66071
0.30225
0.03122
-0.07869
-0.08493
-0.07119
-0.06120
-0.06495
-0.06994
-0.06994
-0.06994
-0.06994
-0.06994
-0.06994
-0.07494
-0.08493
-0.08993
-0.09492
-0.09992
-0.10991
-0.11491
-0.11990
-0.12989
-0.13988
-0.14988
-0.15987
-0.16986
-0.17985
-0.18984
-0.20358
-0.20983
-0.21982
-0.22481
-0.23481
-0.23481
-0.23980
-0.24480
-0.24480
-0.23980
-0.23481
-0.23481
-0.23481
-0.22107
-0.19734
-0.17236
-0.14738
-0.11740
-0.09242
-0.06744
-0.05121
-0.03622
-0.02123
-0.00624
-0.00500
-0.00500
0.00000
0.00500
0.00500
0.00500
0.00500
0.00500
0.00999
0.00999
0.00999
0.01499
0.01998
0.01124
0.00500
0.00000
0.00000
-0.00500
-0.01873
-0.03372
-0.04371
-0.04996
-0.04496
-0.02623
0.00624
0.03747
0.04496
0.04496
0.03997
0.03497
0.03497
0.02998
0.02998
0.02998
0.02498
0.02498
0.01998
0.00250
-0.03122
-0.08868
-0.11740
-0.00250
0.28976
0.63448
0.81808
0.70941
0.40342
0.10991
-0.04122
-0.07744
-0.07119
-0.06120
-0.05995
-0.05495
-0.05995
-0.05995
-0.05121
-0.05495
-0.05995
-0.06869
-0.06994
-0.06994
-0.07494
-0.08368
-0.08993
-0.08993
-0.09492
-0.10366
-0.11366
-0.11990
-0.12864
-0.13864
-0.15362
-0.16362
-0.17361
-0.18360
-0.19359
-0.19984
-0.20483
-0.20983
-0.21857
-0.22481
-0.22107
-0.21607
-0.21482
-0.21482
-0.20608
-0.19234
-0.18110
-0.16237
-0.13364
-0.10741
-0.08243
-0.06620
-0.04246
-0.02623
-0.01124
-0.00500
0.00000
0.00500
0.00500
0.00500
0.00999
0.01499
0.01124
0.00624
0.00500
0.00999
0.00624
0.00500
0.00500
0.01374
0.01124
0.00125
-0.00375
-0.00500
-0.01374
-0.02748
-0.03497
-0.03497
-0.03122
-0.02123
-0.00250
0.02623
0.04746
0.05495
0.05121
0.04996
0.04996
0.04621
0.04496
0.04122
0.04371
0.03622
0.03122
0.02623
0.00375
-0.05121
-0.11116
-0.07244
0.16362
0.51832
0.79434
0.80434
0.55080
0.22606
0.01249
-0.06245
-0.06620
-0.05246
-0.04621
-0.04496
-0.04496
-0.04496
-0.04496
-0.04496
-0.04871
-0.05371
-0.05870
-0.06370
-0.06495
-0.06495
-0.06869
-0.07869
-0.08368
-0.08868
-0.09867
-0.11241
-0.12365
-0.13364
-0.14738
-0.15862
-0.16861
-0.17860
-0.18859
-0.19859
-0.20858
-0.20983
-0.21857
-0.22481
-0.23356
-0.23481
-0.23106
-0.22981
-0.22606
-0.21607
-0.20608
-0.18360
-0.16362
-0.13864
-0.10991
-0.07993
-0.05371
-0.03372
-0.01374
-0.00624
0.00375
0.00500
0.01374
0.01873
0.01998
0.01998
0.01998
0.01998
0.01998
0.01998
0.01998
0.02373
0.02498
0.02498
0.02123
0.01998
0.01624
0.01124
0.00624
-0.00375
-0.01749
-0.03247
-0.03497
-0.03122
-0.01749
0.00624
0.03122
0.04746
0.05371
0.05121
0.04621
0.04496
0.04122
0.03122
0.02623
0.02498
0.02498
0.02498
0.01624
-0.01374
-0.08118
-0.13614
-0.03372
0.27352
0.64697
0.87053
0.77311
0.44963
0.13114
-0.03997
-0.08118
-0.06869
-0.05620
-0.05870
-0.06370
-0.06495
-0.06495
-0.06495
-0.06869
-0.06994
-0.07369
-0.07869
-0.08368
-0.08868
-0.08993
-0.08993
-0.09367
-0.09867
-0.10366
-0.10491
-0.10866
-0.11865
-0.11990
-0.11990
-0.11615
-0.11116
-0.10991
-0.11366
-0.12365
-0.13739
-0.15612
-0.17610
-0.18859
-0.20983
-0.23980
-0.25354
-0.24730
-0.23231
-0.20983
-0.18485
-0.16362
-0.14738
-0.14113
-0.12739
-0.10866
-0.08118
-0.06245
-0.05246
-0.03747
-0.02248
-0.01624
-0.01124
-0.00999
-0.01374
-0.01873
-0.01998
-0.01249
-0.00624
-0.00874
-0.01374
-0.01499
-0.01499
-0.01873
-0.02748
-0.03372
-0.03872
-0.04371
-0.05246
-0.07494
-0.09617
-0.11241
-0.11491
-0.11116
-0.09867
-0.06744
-0.03622
-0.01873
-0.01124
-0.00624
-0.00874
-0.01374
-0.01499
-0.01499
-0.01124
-0.00624
-0.00500
-0.00874
-0.02123
-0.05246
-0.11116
-0.14488
-0.02123
0.28102
0.63697
0.82432
0.70192
0.37469
0.07619
-0.06744
-0.09367
-0.08743
-0.07744
-0.07119
-0.06994
-0.06994
-0.06994
-0.06994
-0.07369
-0.08243
-0.08493
-0.08493
-0.08493
-0.08493
-0.08868
-0.09742
-0.10741
-0.10991
-0.11740
-0.12739
-0.13364
-0.14613
-0.15737
-0.17111
-0.17860
-0.18360
-0.19609
-0.20733
-0.21357
-0.22232
-0.22481
-0.22856
-0.22981
-0.22606
-0.22481
-0.22481
-0.22481
-0.21357
-0.20233
-0.18485
-0.16112
-0.13614
-0.10741
-0.08118
-0.05995
-0.03622
-0.01499
-0.00624
0.00250
0.00874
0.01749
0.01998
0.01998
0.01998
0.01998
0.01998
0.01998
0.01998
0.02373
0.02123
0.01998
0.01998
0.01624
0.00749
0.00125
0.00000
-0.00749
-0.02123
-0.03247
-0.03497
-0.02373
-0.01249
0.00500
0.02873
0.04996
0.05495
0.05495
0.05121
0.04996
0.04996
0.04621
0.04496
0.04122
0.04371
0.03747
0.02748
0.00624
-0.03372
-0.08618
-0.08493
0.07993
0.38843
0.69068
0.79060
0.62199
0.31849
0.07119
-0.04496
-0.06869
-0.05870
-0.04746
-0.04871
-0.05371
-0.05121
-0.04621
-0.04871
-0.05371
-0.05495
-0.05870
-0.06370
-0.06869
-0.07369
-0.07869
-0.08368
-0.08868
-0.09367
-0.10242
