-0.03031
-0.03031
-0.03031
-0.03031
-0.02621
-0.02130
-0.01638
-0.01474
-0.01147
-0.00983
-0.00983
-0.00983
-0.00983
-0.00983
-0.00983
-0.00983
-0.00983
-0.00655
-0.00491
-0.00491
-0.00491
-0.00164
0.00000
0.00000
0.00000
0.00328
0.00491
0.00491
0.00819
0.00983
0.00983
0.00983
0.00983
0.00983
0.00983
0.00983
0.00983
0.00983
0.00983
0.01311
0.01474
0.01474
0.01474
0.01474
0.01474
0.01474
0.01474
0.01474
0.01474
0.01474
0.01474
0.01474
0.01474
0.01474
0.01474
0.01474
0.01474
0.01474
0.01802
0.01966
0.01966
0.01966
0.01966
0.01966
0.01966
0.01638
0.01474
0.01474
0.01802
0.01966
0.01966
0.01966
0.02294
0.02539
0.02867
0.03031
0.03031
0.02703
0.02539
0.02539
0.02539
0.02539
0.02539
0.02539
0.02539
0.02539
0.02539
0.02539
0.02539
0.02539
0.02539
0.02539
0.02539
0.02539
0.02539
0.02539
0.02539
0.02539
0.02539
0.02539
0.02539
0.02539
0.02539
0.02785
0.03031
0.02703
0.02539
0.02539
0.02539
0.02212
0.01966
0.01966
0.01638
0.01474
0.01474
0.01147
0.00983
0.00655
0.00491
0.00164
0.00000
-0.00328
-0.00491
-0.00491
-0.00819
-0.01311
-0.01474
-0.01802
-0.01966
-0.01966
-0.01966
-0.01966
-0.01966
-0.01966
-0.01966
-0.01966
-0.01966
-0.01720
-0.01474
-0.01474
-0.01474
-0.01802
-0.01966
-0.01966
-0.02294
-0.02539
-0.02785
-0.03031
-0.03031
-0.03031
-0.03031
-0.03031
-0.03031
-0.03031
-0.03277
-0.03522
-0.03850
-0.04014
-0.04342
-0.04505
-0.04833
-0.04997
-0.04997
-0.04997
-0.04997
-0.04997
-0.04997
-0.04997
-0.05325
-0.05488
-0.05488
-0.05488
-0.05488
-0.05816
-0.05980
-0.05980
-0.05652
-0.05161
-0.04342
-0.03359
-0.02703
-0.01884
-0.00901
-0.00164
0.00901
0.02703
0.04096
0.05406
0.06307
0.06471
0.06471
0.06226
0.05406
0.04423
0.03113
0.01884
0.00246
-0.01393
-0.02949
-0.04423
-0.05570
-0.06635
-0.07618
-0.08273
-0.08765
-0.09011
-0.09011
-0.09011
-0.09338
-0.09175
-0.09011
-0.09011
-0.09011
-0.09011
-0.09011
-0.08683
-0.08519
-0.08519
-0.08519
-0.08765
-0.09011
-0.09011
-0.09011
-0.08683
-0.08519
-0.08519
-0.08519
-0.08519
-0.08519
-0.08192
-0.07700
-0.07209
-0.06717
-0.05898
-0.04014
-0.00901
0.02621
0.06963
0.12533
0.18841
0.26868
0.36452
0.43169
0.41449
0.29490
0.10895
-0.09011
-0.27360
-0.41613
-0.50951
-0.56358
-0.58897
-0.57996
-0.53163
-0.45463
-0.36125
-0.26131
-0.17612
-0.11550
-0.07700
-0.05325
-0.03604
-0.02703
-0.02212
-0.01720
-0.01474
-0.01474
-0.01474
-0.01474
-0.01474
-0.01229
-0.00737
-0.00491
-0.00491
-0.00491
-0.00491
-0.00491
-0.00491
-0.00246
0.00328
0.00819
0.00983
0.01311
0.01474
0.01474
0.01474
0.01474
0.01474
0.01474
0.01474
0.01474
0.01474
0.01474
0.01474
0.01474
0.01474
0.01474
0.01474
0.01474
0.01474
0.01802
0.02294
0.02539
0.02539
0.02212
0.02294
0.02539
0.02539
0.02539
0.02539
0.02785
0.03031
0.03031
0.03031
0.03031
0.03031
0.03031
0.03031
0.03277
0.03522
0.03522
0.03522
0.03522
0.03522
0.03522
0.03522
0.03522
0.03522
0.03522
0.03522
0.03522
0.03522
0.03768
0.04014
0.04014
0.04014
0.04014
0.04014
0.04014
0.04014
0.04014
0.03686
0.03522
0.03522
0.03522
0.03522
0.03522
0.03522
0.03522
0.03522
0.03195
0.03277
0.03522
0.03522
0.03522
0.03522
0.03522
0.03195
0.03031
0.03031
0.03031
0.03277
0.03522
0.03195
0.03031
0.03031
0.03031
0.03031
0.03031
0.03031
0.03031
0.02703
0.02539
0.02212
0.01966
0.01966
0.01720
0.01474
0.01229
0.00983
0.00983
0.00737
0.00246
-0.00246
-0.00491
-0.00737
-0.01229
-0.01474
-0.01802
-0.01966
-0.01966
-0.02294
-0.02539
-0.02539
-0.02539
-0.02539
-0.02539
-0.02539
-0.02539
-0.02539
-0.02212
-0.01966
-0.01966
-0.01966
-0.02294
-0.02539
-0.02212
-0.01966
-0.01966
-0.02294
-0.02539
-0.02785
-0.03031
-0.03031
-0.03031
-0.03031
-0.03031
-0.03031
-0.03277
-0.03522
-0.03522
-0.03522
-0.03768
-0.04014
-0.04260
-0.04505
-0.04505
-0.04505
-0.04751
-0.04997
-0.04997
-0.04997
-0.04997
-0.04997
-0.05243
-0.05488
-0.05488
-0.05488
-0.05488
-0.05488
-0.05488
-0.05488
-0.05488
-0.05243
-0.04751
-0.04014
-0.03277
-0.02457
-0.01474
-0.00737
0.00000
0.00983
0.02539
0.04260
0.05734
0.07045
0.07536
0.07209
0.06717
0.06471
0.05734
0.04505
0.03277
0.01720
0.00246
-0.01720
-0.03768
-0.04997
-0.05734
-0.06471
-0.07290
-0.07782
-0.08028
-0.08028
-0.08028
-0.08028
-0.08028
-0.08028
-0.08028
-0.08028
-0.08028
-0.08273
-0.08519
-0.08519
-0.08519
-0.08273
-0.08028
-0.08028
-0.08028
-0.08028
-0.08028
-0.08028
-0.08028
-0.08028
-0.08273
-0.08519
-0.08273
-0.08028
-0.08028
-0.07782
-0.07045
-0.05488
-0.03031
0.00246
0.04178
0.09175
0.15154
0.22854
0.32111
0.38418
0.36862
0.26213
0.09502
-0.09420
-0.27524
-0.41777
-0.51607
-0.57423
-0.60454
-0.60536
-0.56358
-0.48658
-0.38910
-0.28916
-0.20397
-0.13844
-0.09338
-0.06553
-0.04505
-0.03031
-0.02294
-0.01802
-0.01229
-0.00983
-0.00983
-0.00737
-0.00491
-0.00737
-0.00983
-0.00737
-0.00491
-0.00737
-0.00983
-0.00983
-0.00983
-0.00983
-0.00983
-0.00983
-0.00737
-0.00491
-0.00491
-0.00491
-0.00491
-0.00246
0.00246
0.00491
0.00491
0.00491
0.00491
0.00737
0.01229
0.01474
0.01474
0.01474
0.01474
0.01474
0.01474
0.01474
0.01474
0.01474
0.01474
0.01474
0.01474
0.01474
0.01474
0.01474
0.01474
0.01474
0.01720
0.01966
0.01966
0.02212
0.02294
0.01966
0.01966
0.01966
0.01966
0.01966
0.01966
0.01966
0.01966
0.01966
0.01966
0.02212
0.02539
0.02539
0.02539
0.02703
0.03031
0.03031
0.03195
0.03277
0.03031
0.02785
0.02539
0.02539
0.02539
0.02539
0.02539
0.02539
0.02703
0.03031
0.03031
0.03031
0.03031
0.03031
0.03031
0.02785
0.02539
0.02539
0.02539
0.02539
0.02539
0.02539
0.02294
0.01966
0.01966
0.01966
0.01966
0.02212
0.02539
0.02539
0.02539
0.02539
0.02539
0.02294
0.01966
0.01966
0.01966
0.01802
0.01474
0.01474
0.01474
0.01474
0.01311
0.00983
0.00819
0.00491
0.00246
-0.00246
-0.00491
-0.00737
-0.00983
-0.00983
-0.01229
-0.01474
-0.01720
-0.01966
-0.02212
-0.02703
-0.03031
-0.03031
-0.03031
-0.03031
-0.03031
-0.03031
-0.03031
-0.03031
-0.03031
-0.03031
-0.03031
-0.03031
-0.03195
-0.03522
-0.03522
-0.03522
-0.03522
-0.03522
-0.03522
-0.03686
-0.04014
-0.04014
-0.04014
-0.04178
-0.04505
-0.04505
-0.04505
-0.04505
-0.04505
-0.04669
-0.05243
-0.05488
-0.05488
-0.05488
-0.05488
-0.05734
-0.06226
-0.06471
-0.06307
-0.05980
-0.06226
-0.06471
-0.06471
-0.06307
-0.05980
-0.05816
-0.05734
-0.05980
-0.05980
-0.06226
-0.06471
-0.06307
-0.05816
-0.05079
-0.04096
-0.03277
-0.02621
-0.01556
-0.00573
0.00573
0.02294
0.03932
0.05079
0.06226
0.06307
0.05816
0.05325
0.04587
0.03768
0.02867
0.01638
0.00410
-0.01311
-0.03113
-0.04587
-0.05898
-0.06881
-0.07700
-0.08192
-0.08683
-0.09011
-0.09011
-0.09011
-0.09011
-0.09011
-0.09011
-0.08765
-0.08519
-0.08519
-0.08683
-0.09011
-0.09011
-0.09011
-0.09175
-0.09338
-0.09011
-0.09175
-0.09502
-0.09502
-0.09338
-0.08847
-0.08273
-0.08192
-0.08519
-0.08519
-0.08273
-0.08028
-0.07782
-0.06963
-0.05079
-0.02130
0.01720
0.06389
0.11796
0.18185
0.26131
0.35224
0.40876
0.37927
0.24984
0.05734
-0.14335
-0.31947
-0.44972
-0.53573
-0.58324
-0.60699
-0.59716
-0.54883
-0.46938
-0.37108
-0.27114
-0.19086
-0.13352
-0.09584
-0.07290
-0.05652
-0.04669
-0.03850
-0.03277
-0.03031
-0.03031
-0.03031
-0.03031
-0.03031
-0.02785
-0.02539
-0.02294
-0.01802
-0.01474
-0.01474
-0.01311
-0.00983
-0.00983
-0.00819
-0.00491
-0.00491
-0.00328
0.00000
0.00000
0.00000
0.00164
0.00491
0.00328
0.00000
0.00000
0.00000
0.00164
0.00491
0.00491
0.00491
0.00491
0.00655
0.00983
0.00983
0.00983
0.00983
0.00983
0.01147
0.01474
0.01474
0.01474
0.01474
0.01474
0.01474
0.01474
0.01474
0.01474
0.01638
0.01966
0.01966
0.01966
0.01966
0.01966
0.01966
0.01966
0.01966
0.01966
0.01966
0.02212
0.02539
0.02539
0.02539
0.02703
0.03031
0.03031
0.03031
0.02867
0.02539
0.02539
0.02539
0.02294
0.01966
0.01966
0.01966
0.01966
0.01966
0.02130
0.02539
0.02539
0.02539
0.02539
0.02539
0.02294
0.01966
0.01966
0.01966
0.02130
0.02539
0.02539
0.02539
0.02294
0.01966
0.02130
0.02539
0.02539
0.02539
0.02539
0.02539
0.02539
0.02376
0.01966
0.01802
0.01474
0.01474
0.01474
0.01474
0.01474
0.01474
0.01474
0.01311
0.00819
0.00491
0.00328
-0.00164
-0.00491
-0.00491
-0.00655
-0.01147
-0.01638
-0.01966
-0.02130
-0.02539
-0.02621
-0.03031
-0.03031
-0.03031
-0.03031
-0.03031
-0.03031
-0.03195
-0.03359
-0.03031
-0.03031
-0.03031
-0.03031
-0.03031
-0.02867
-0.02539
-0.02539
-0.02539
-0.02539
-0.02539
-0.02539
-0.02539
-0.02621
-0.03031
-0.03031
-0.03031
-0.03031
-0.03195
-0.03522
-0.03522
-0.03522
-0.03522
-0.03686
-0.04178
-0.04505
-0.04505
-0.04505
-0.04669
-0.04997
-0.05161
-0.05488
-0.05488
-0.05488
-0.05488
-0.05488
-0.05488
-0.05488
-0.05488
-0.05652
-0.06144
-0.06471
-0.06471
-0.06471
-0.06389
-0.05816
-0.05488
-0.05325
-0.04669
-0.03850
-0.03359
-0.02703
-0.01720
-0.00737
0.00410
0.01802
0.02949
0.04423
0.05816
0.06471
0.06389
0.05816
0.05243
0.04342
0.03522
0.02048
0.00573
-0.01065
-0.02949
-0.04423
-0.05898
-0.07290
-0.08110
-0.08683
-0.09175
-0.09502
-0.09502
-0.09502
-0.09502
-0.09502
-0.09666
-0.09994
-0.09830
-0.09502
-0.09502
-0.09666
-0.09994
-0.09994
-0.09994
-0.09994
-0.09994
-0.09994
-0.09994
-0.09994
-0.09994
-0.09994
-0.10158
-0.10485
-0.10485
-0.10485
-0.10321
-0.09994
-0.09830
-0.09093
-0.07290
-0.04423
-0.00573
0.03277
0.08028
0.14089
0.22117
0.31046
0.36780
0.35224
0.24247
0.06062
-0.13680
-0.31537
-0.45054
-0.53491
-0.58406
-0.61027
-0.59962
-0.55129
-0.47593
-0.38336
-0.28588
-0.20151
-0.13680
-0.09502
-0.07454
-0.05898
-0.05243
-0.04342
-0.04014
-0.03850
-0.03522
-0.03359
-0.03031
-0.03031
-0.03031
-0.02867
-0.02539
-0.02539
-0.02376
-0.01966
-0.01966
-0.01966
-0.01966
-0.01884
-0.01393
-0.00983
-0.00983
-0.00983
-0.00983
-0.00983
-0.00983
-0.00983
-0.00983
-0.00983
-0.00983
-0.00901
-0.00491
-0.00491
-0.00491
-0.00410
0.00000
0.00000
0.00000
0.00000
0.00000
0.00000
0.00000
0.00164
0.00491
0.00410
0.00000
0.00000
0.00000
0.00164
0.00655
0.00983
0.01147
0.01474
0.01474
0.01474
0.01474
0.01474
0.01474
0.01474
0.01474
0.01638
0.01966
0.01966
0.01966
0.01966
0.01966
0.01884
0.01474
0.01474
0.01474
0.01638
0.01966
0.02130
0.02539
0.02539
0.02539
0.02539
0.02376
0.01966
0.01966
0.01966
0.01966
0.01966
0.02130
0.02539
0.02539
0.02539
0.02376
0.01966
0.01966
0.01966
0.02130
0.02539
0.02539
0.02376
0.01966
0.01966
0.01966
0.01966
0.02130
0.02539
0.02539
0.02539
0.02539
0.02539
0.02376
0.01966
0.01966
0.02130
0.02539
0.02376
0.01884
0.01474
0.01393
0.00983
0.00983
0.00983
0.00901
0.00410
-0.00082
-0.00491
-0.00491
-0.00491
-0.00491
-0.00573
-0.01147
-0.01393
-0.00983
-0.01147
-0.01638
-0.01966
-0.02130
-0.02539
-0.02539
-0.02539
-0.02539
-0.02539
-0.02539
-0.02539
-0.02539
-0.02539
-0.02539
-0.02539
-0.02376
-0.01966
-0.01966
-0.02130
-0.02539
-0.02539
-0.02539
-0.02539
-0.02539
-0.02621
-0.03031
-0.03031
-0.03113
-0.03522
-0.03522
-0.03604
-0.04014
-0.04096
-0.04505
-0.04505
-0.04505
-0.04587
-0.05079
-0.05488
-0.05488
-0.05488
-0.05488
-0.05488
-0.05488
-0.05488
-0.05488
-0.05488
-0.05488
-0.05488
-0.05488
-0.05488
-0.05488
-0.05570
-0.05898
-0.05488
-0.05325
-0.04342
-0.03440
-0.02867
-0.02294
-0.01311
-0.00328
0.00819
0.02376
0.04178
0.05243
0.06553
0.06881
0.06471
0.06389
0.05734
0.04423
0.03850
0.02703
0.01147
-0.00901
-0.02785
-0.04260
-0.05652
-0.06717
-0.07618
-0.08110
-0.08601
-0.09011
-0.09011
-0.09011
-0.09093
-0.09502
-0.09502
-0.09502
-0.09420
-0.09011
-0.09093
-0.09502
-0.09502
-0.09502
-0.09502
-0.09502
-0.09502
-0.09502
-0.09502
-0.09502
-0.09420
-0.08929
-0.08519
-0.08437
-0.08028
-0.08028
-0.08028
-0.07946
-0.07454
-0.06717
-0.05079
-0.02294
0.01638
0.05652
0.09912
0.15728
0.23674
0.33422
0.40630
0.39893
0.28916
0.10158
-0.10239
-0.28916
-0.42514
-0.51443
-0.57095
-0.59962
-0.59471
-0.55375
-0.48002
-0.38255
-0.27524
-0.18922
-0.12943
-0.09502
-0.06717
-0.04833
-0.03850
-0.03031
-0.02949
-0.02539
-0.02539
-0.02539
-0.02457
-0.01966
-0.01966
-0.01884
-0.01474
-0.01474
-0.01393
-0.00983
-0.00983
-0.00983
-0.00901
-0.00491
-0.00491
-0.00491
-0.00491
-0.00410
0.00000
0.00000
0.00082
0.00491
0.00491
0.00491
0.00491
0.00573
0.00983
0.00983
0.00983
0.00983
0.00983
0.01065
0.01474
0.01474
0.01474
0.01474
0.01474
0.01474
0.01474
0.01474
0.01474
0.01474
0.01474
0.01474
0.01474
0.01474
0.01474
0.01474
0.01474
0.01474
0.01474
0.01474
0.01474
0.01474
0.01474
0.01556
0.01966
0.01966
0.01966
0.01966
0.01966
0.01966
0.01966
0.02048
0.02539
0.02539
0.02539
0.02457
0.01966
0.01966
0.01966
0.01966
0.02048
0.02539
0.02457
0.02048
0.02539
0.02539
0.03031
0.03031
0.03031
0.03031
0.03031
0.03031
0.03031
0.02949
0.02539
0.02539
0.02539
0.02539
0.02539
0.02539
0.02539
0.03031
0.03031
0.03031
0.03031
0.03031
0.03031
0.03031
0.02949
0.02539
0.02539
0.02539
0.02539
0.03031
0.02949
0.02539
0.02457
0.01966
0.01474
0.01474
0.01474
0.01474
0.00983
0.00410
-0.00082
-0.00491
-0.00491
-0.00491
-0.00573
-0.01065
-0.01474
-0.01556
-0.01966
-0.01966
-0.02048
-0.02539
-0.02539
-0.02539
-0.02539
-0.02539
-0.02539
-0.02539
-0.02539
-0.02539
-0.02539
-0.03031
-0.03031
-0.03031
-0.03031
-0.03031
-0.03031
-0.03031
-0.03031
-0.03031
-0.03031
-0.03031
-0.03031
-0.03031
-0.03031
-0.03522
-0.03522
-0.04014
-0.04014
-0.04014
-0.04505
-0.04505
-0.04505
-0.04587
-0.04997
-0.05079
-0.05488
-0.05488
-0.05488
-0.05570
-0.05980
-0.05980
-0.05980
-0.05488
-0.05488
-0.05488
-0.05488
-0.05406
-0.04342
-0.02867
-0.01393
-0.00328
0.01556
0.02621
0.03522
0.03522
0.03522
0.03522
0.03522
0.03932
0.03359
0.01884
0.00410
-0.01147
-0.03113
-0.04096
-0.05570
-0.06062
-0.06553
-0.07536
-0.08028
-0.08028
-0.08028
-0.08028
-0.08519
-0.09011
-0.09011
-0.09011
-0.09011
-0.09011
-0.09502
-0.09011
-0.08929
-0.08519
-0.08519
-0.08519
-0.08519
-0.08519
-0.08519
-0.08519
-0.08519
-0.08519
-0.09011
-0.09011
-0.08929
-0.08519
-0.08519
-0.08437
-0.07946
-0.07372
-0.05325
-0.02212
0.01720
0.05816
0.10895
0.16957
0.24575
0.33340
0.38910
0.36289
0.23755
0.04260
-0.15564
-0.33258
-0.46036
-0.54310
-0.59143
-0.61437
-0.60699
-0.56030
-0.47921
-0.38418
-0.28015
-0.19168
-0.13270
-0.09830
-0.06881
-0.05406
-0.04505
-0.03932
-0.03522
-0.03440
-0.02949
-0.02539
-0.02539
-0.02457
-0.01966
-0.01966
-0.01966
-0.01966
-0.01474
-0.01474
-0.00983
-0.00983
-0.00983
-0.00983
-0.00983
-0.00491
-0.00491
-0.00491
-0.00491
-0.00491
-0.00491
-0.00491
-0.00491
-0.00491
0.00000
0.00000
0.00491
0.00491
0.00491
0.00491
0.00983
0.00983
0.00983
0.00491
0.00491
0.00491
0.00983
0.00983
0.00983
0.00983
0.00983
0.00983
0.00983
0.00983
0.00983
0.01474
0.01474
0.01474
0.01474
0.01474
0.01474
0.01474
0.01474
0.01474
0.01474
0.01474
0.00983
0.00983
0.00983
0.00983
0.01474
0.01474
0.01474
0.01474
0.01474
0.01474
0.01474
0.01474
0.01474
0.01474
0.01966
0.01966
0.01966
0.01966
0.01474
0.01474
0.01474
0.01474
0.01474
0.01474
0.01474
0.01474
0.01474
0.01474
0.01474
0.01474
0.01474
0.01474
0.01474
0.01474
0.01474
0.01474
0.01966
0.01474
0.01474
0.01474
0.01474
0.00983
0.01474
0.01474
0.01474
0.01474
0.01474
0.01474
0.01474
0.01474
0.01474
0.01474
0.01474
0.00983
0.00491
0.00000
-0.00491
-0.00983
-0.01474
-0.01474
-0.01966
-0.01966
-0.02539
-0.03031
-0.03031
-0.03031
-0.03522
-0.03522
-0.04014
-0.04014
-0.04014
-0.04014
-0.04014
-0.04014
-0.04014
-0.04014
-0.04014
-0.03522
-0.03522
-0.03522
-0.03522
-0.03031
-0.03031
-0.03522
-0.03522
-0.04014
-0.04014
-0.04505
-0.04505
-0.04997
-0.04997
-0.05488
-0.05488
-0.05488
-0.05488
-0.05488
-0.05488
-0.05488
-0.05488
-0.05980
-0.05980
-0.05980
-0.06471
-0.06471
-0.06963
-0.06471
-0.06471
-0.06471
-0.06471
-0.06963
-0.06963
-0.06963
-0.06963
-0.06963
-0.06963
-0.06963
-0.06963
-0.07454
-0.07536
-0.08028
-0.07536
-0.07536
-0.07536
-0.07045
-0.06471
-0.06471
-0.05980
-0.05488
-0.04505
-0.03522
-0.03031
-0.02048
-0.00573
0.00983
0.02949
0.04505
0.05980
0.06471
0.05980
0.04997
0.04505
0.04014
0.02539
0.01556
-0.00410
-0.01966
-0.03440
-0.05406
-0.06471
-0.07946
-0.08519
-0.09502
-0.09994
-0.09994
-0.10485
-0.10485
-0.10485
-0.10485
-0.10485
-0.10485
-0.10485
-0.10485
-0.10485
-0.09994
-0.09994
-0.09994
-0.09994
-0.09994
-0.09994
-0.09994
-0.09994
-0.09994
-0.09994
-0.09994
-0.09994
-0.09994
-0.09994
-0.09502
-0.09502
-0.09011
-0.08519
-0.08028
-0.05570
-0.02621
0.01311
0.05325
0.10731
0.17694
0.27114
0.36534
0.42268
0.39156
0.26131
0.06389
-0.14008
-0.31701
-0.44890
-0.53081
-0.58242
-0.60863
-0.59061
-0.54228
-0.46856
-0.37026
-0.27032
-0.18922
-0.12779
-0.09175
-0.07127
-0.05570
-0.04587
-0.03522
-0.03031
-0.03031
-0.03031
-0.02539
-0.02539
-0.02048
-0.01966
-0.01966
-0.01966
-0.01556
-0.01474
-0.01474
-0.01474
-0.01474
-0.01474
-0.01474
-0.01474
-0.01065
-0.00983
-0.00983
-0.00491
-0.00491
-0.00491
0.00000
0.00000
0.00000
-0.00491
0.00000
0.00000
-0.00491
-0.00491
-0.00491
-0.00491
-0.00491
-0.00491
0.00000
0.00000
0.00000
0.00000
0.00000
0.00000
0.00000
0.00000
0.00000
0.00000
0.00000
0.00000
0.00000
0.00491
0.00491
0.00983
0.00983
0.00983
0.00983
0.01474
0.01474
0.01474
0.01474
0.01474
0.01474
0.01474
0.01474
0.01474
0.01474
0.01474
0.01474
0.01474
0.01966
0.01966
0.01966
0.01966
0.01966
0.01966
0.02457
0.02539
0.02539
0.02539
0.02048
0.01966
0.01966
0.01966
0.01966
0.01966
0.01966
0.01966
0.01966
0.02457
0.02539
0.02539
0.02539
0.02048
0.01966
0.01966
0.01556
0.01474
0.01474
0.01474
0.01966
0.01966
0.01966
0.01966
0.01966
0.01966
0.02457
0.02048
0.01966
0.01966
0.01966
0.01556
0.01474
0.01474
0.01474
0.01065
0.00983
0.00573
0.00082
-0.00410
-0.00491
-0.00983
-0.01474
-0.01966
-0.01966
-0.01966
-0.01966
-0.02457
-0.02949
-0.03031
-0.03031
-0.03031
-0.03031
-0.03031
-0.03031
-0.03031
-0.03031
-0.03031
-0.03031
-0.03031
-0.03031
-0.03031
-0.03031
-0.03031
-0.03031
-0.03031
-0.03031
-0.03031
-0.03031
-0.03031
-0.03031
-0.03031
-0.03031
-0.03031
-0.03031
-0.03031
-0.03031
-0.03031
-0.03440
-0.03522
-0.03932
-0.04014
-0.04014
-0.04014
-0.04423
-0.04505
-0.04505
-0.04505
-0.04505
-0.04096
-0.04423
-0.04915
-0.04997
-0.04997
-0.04997
-0.04997
-0.05406
-0.05488
-0.05488
-0.05079
-0.04997
-0.05406
-0.05488
-0.05079
-0.04096
-0.03113
-0.02539
-0.01638
-0.00655
-0.00082
0.00901
0.01884
0.03768
0.04833
0.05898
0.06471
0.06471
0.06471
0.06062
0.05161
0.04096
0.03113
0.01720
-0.00246
-0.01802
-0.03768
-0.05325
-0.06799
-0.07864
-0.08437
-0.08929
-0.09011
-0.09420
-0.09502
-0.09502
-0.09502
-0.09502
-0.09502
-0.09502
-0.09093
-0.09011
-0.09011
-0.09420
-0.09502
-0.09502
-0.09502
-0.09502
-0.09502
-0.09502
-0.09093
-0.09011
-0.09420
-0.09502
-0.09502
-0.09502
-0.09093
-0.09011
-0.09011
-0.08601
-0.08110
-0.06717
-0.03932
-0.00983
0.02867
0.07290
0.12697
0.19905
0.29080
0.36862
0.37190
0.27687
0.10731
-0.09338
-0.26868
-0.40958
-0.50624
-0.56194
-0.59962
-0.60044
-0.57013
-0.50214
-0.40548
-0.30554
-0.20970
-0.14417
-0.10158
-0.07372
-0.05734
-0.04669
-0.03686
-0.03113
-0.03031
-0.02621
-0.02539
-0.02539
-0.02539
-0.02539
-0.02048
-0.01966
-0.01556
-0.01474
-0.01065
-0.00983
-0.00573
-0.00491
-0.00491
-0.00491
-0.00491
-0.00491
-0.00491
-0.00082
0.00000
0.00000
0.00000
0.00000
0.00000
0.00000
0.00000
0.00000
0.00000
0.00410
0.00491
0.00491
0.00901
0.00983
0.00983
0.00983
0.00983
0.00983
0.00983
0.00983
0.01393
0.01474
0.01474
0.01474
0.01474
0.01474
0.01474
0.01474
0.01474
0.01474
0.01474
0.01474
0.01474
0.01884
0.01966
0.02376
0.02949
0.03031
0.02621
0.02539
0.02539
0.02539
0.02867
0.03031
0.02621
0.02539
0.02539
0.02539
0.02539
0.02539
0.02539
0.02539
0.02867
0.03031
0.03031
0.03031
0.03031
0.02621
0.02539
0.02130
0.01966
0.01966
0.01966
0.01966
0.02376
0.02539
0.02130
0.02376
0.02539
0.02130
0.01966
0.01966
0.02376
0.02539
0.02539
0.02539
0.02539
0.02539
0.02867
0.03031
0.03031
0.03359
0.03522
0.03522
0.03113
0.03031
0.03031
0.03031
0.03031
0.03031
0.02621
0.02130
0.01638
0.01474
0.01474
0.01065
0.00573
0.00082
-0.00410
-0.00491
-0.00491
-0.00901
-0.01393
-0.01474
-0.01474
-0.01884
-0.02376
-0.02539
-0.02539
-0.02539
-0.02539
-0.02539
-0.02867
-0.03031
-0.03031
-0.03031
-0.03031
-0.03031
-0.03031
-0.03031
-0.03031
-0.03031
-0.03031
-0.03031
-0.03031
-0.03359
-0.03522
-0.03522
-0.03522
-0.03522
-0.03522
-0.03850
-0.04014
-0.04423
-0.04505
-0.04505
-0.04505
-0.04505
-0.04915
-0.04997
-0.05406
-0.05488
-0.05488
-0.05488
-0.05488
-0.05488
-0.05488
-0.05488
-0.05488
-0.05488
-0.05488
-0.05488
-0.05488
-0.05898
-0.05980
-0.05980
-0.05980
-0.05652
-0.05488
-0.05488
-0.05488
-0.05079
-0.04587
-0.03359
-0.02621
-0.01720
-0.00737
0.00655
0.02130
0.03604
0.05161
0.06226
0.06471
0.06144
0.05652
0.04751
0.03768
0.02703
0.01720
0.00000
-0.02048
-0.03277
-0.04997
-0.06226
-0.07290
-0.07864
-0.08765
-0.09338
-0.09502
-0.09502
-0.09502
-0.09502
-0.09502
-0.09502
-0.09502
-0.09502
-0.09502
-0.09502
-0.09502
-0.09502
-0.09093
-0.09011
-0.09011
-0.09011
-0.09011
-0.09011
-0.09011
-0.09011
-0.09011
-0.09011
-0.09011
-0.08601
-0.08519
-0.08519
-0.08110
-0.08028
-0.07290
-0.05898
-0.02867
0.00573
0.04833
0.10076
0.16301
0.24657
0.33667
0.40057
0.39647
0.28998
0.11059
-0.08765
-0.26950
-0.40712
-0.50296
-0.55784
-0.58815
-0.59143
-0.55703
-0.48576
-0.38746
-0.28670
-0.19742
-0.13434
-0.09093
-0.06144
-0.04423
-0.03277
-0.03031
-0.03031
-0.02621
-0.02539
-0.02130
-0.01966
-0.01638
-0.01147
-0.00983
-0.00983
-0.00983
-0.00983
-0.00655
-0.00491
-0.00491
-0.00491
-0.00491
-0.00491
-0.00491
-0.00491
-0.00164
0.00328
0.00491
0.00491
0.00491
0.00491
0.00901
0.00983
0.00655
0.00491
0.00901
0.00983
0.00983
0.00983
0.00983
0.00983
0.00983
0.00983
0.00983
0.00983
0.01393
0.01474
0.01474
0.01474
0.01474
0.01474
0.01474
0.01474
0.01884
0.01966
0.02376
0.02539
0.02539
0.02539
0.02539
0.02539
0.02539
0.02539
0.02867
0.03031
0.03031
0.03031
0.03031
0.03359
0.03522
0.03522
0.03522
0.03522
0.03850
0.04014
0.04014
0.04014
0.04014
0.04014
0.04014
0.04014
0.03686
0.03522
0.03522
0.03522
0.03522
0.03522
0.03522
0.03522
0.03113
0.03359
0.03522
0.03522
0.03522
0.03113
0.03031
0.03031
0.03031
0.02621
0.02539
0.02539
0.02539
0.02539
0.02867
0.03031
0.03031
0.03031
0.03031
0.03031
0.03031
0.02621
0.02539
0.02539
0.02539
0.02130
0.01966
0.01966
0.01638
0.01474
0.01147
0.00983
0.00655
0.00164
-0.00328
-0.00491
-0.00819
-0.01311
-0.01474
-0.01474
-0.01802
-0.01966
-0.02376
-0.02539
-0.02867
-0.03031
-0.03031
-0.03031
-0.03031
-0.03031
-0.03031
-0.03031
-0.03031
-0.03031
-0.03031
-0.03031
-0.03031
-0.03031
-0.03031
-0.03031
-0.02703
-0.02539
-0.02539
-0.02539
-0.02867
-0.03031
-0.03031
-0.03031
-0.03031
-0.03031
-0.03031
-0.03359
-0.03522
-0.03522
-0.03522
-0.03850
-0.04342
-0.04505
-0.04505
-0.04505
-0.04833
-0.04997
-0.05325
-0.05488
-0.05488
-0.05488
-0.05488
-0.05488
-0.05488
-0.05488
-0.05488
-0.05488
-0.05488
-0.05488
-0.05488
-0.05488
-0.05161
-0.04342
-0.03359
-0.02376
-0.01638
-0.01147
-0.00328
0.00655
0.01966
0.03522
0.04997
0.06471
0.07290
0.07209
0.06963
0.06635
0.05816
0.04833
0.03522
0.02048
0.00164
-0.02130
-0.04014
-0.05161
-0.06144
-0.07127
-0.07864
-0.08028
-0.08355
-0.08847
-0.09011
-0.09011
-0.09011
-0.09011
-0.09011
-0.09011
-0.09011
-0.09011
-0.09338
-0.09502
-0.09502
-0.09502
-0.09502
-0.09502
-0.09502
-0.09502
-0.09502
-0.09502
-0.09502
-0.09502
-0.09502
-0.09175
-0.09011
-0.08683
-0.08192
-0.08028
-0.07700
-0.06226
-0.03932
-0.00491
0.03195
0.07372
0.12779
0.19742
0.28834
0.36616
0.37108
0.27769
0.10977
-0.08028
-0.25148
-0.39238
-0.49067
-0.55129
-0.58570
-0.59225
-0.55539
-0.48494
-0.39483
-0.29408
-0.20151
-0.13516
-0.09338
-0.06717
-0.05406
-0.04096
-0.03195
-0.03031
-0.02703
-0.02539
-0.02212
-0.01966
-0.01966
-0.01720
-0.01229
-0.00983
-0.00655
-0.00491
-0.00491
-0.00491
-0.00491
-0.00491
-0.00164
0.00000
0.00328
0.00491
0.00819
0.00983
0.00983
0.01311
0.01474
0.01474
0.01474
0.01229
0.00983
0.00655
0.00491
0.00819
0.00983
0.00983
0.00983
0.00983
0.00983
0.01311
0.01474
0.01474
0.01474
0.01474
0.01474
0.01474
0.01802
0.01966
0.01966
0.01966
0.01966
0.01966
0.01966
0.01966
0.01966
0.01966
0.01966
0.01966
0.01966
0.01966
0.01966
0.01966
0.01966
0.01966
0.02294
0.02539
0.02539
0.02539
0.02539
0.02785
0.03031
0.02703
0.02539
0.02539
0.02539
0.02212
0.01966
0.02294
0.02539
0.02539
0.02539
0.02539
0.02539
0.02539
0.02539
0.02539
0.02539
0.02785
0.03031
0.03031
0.03031
0.03031
0.03031
0.03031
0.03031
0.03031
0.03031
0.03031
0.03031
0.03031
0.03031
0.03031
0.03031
0.03277
0.03522
0.03522
0.03522
0.03522
0.03522
0.03522
0.03522
0.03195
0.03031
0.03031
0.02703
0.02539
0.02212
0.01966
0.01720
0.01474
0.01229
0.00983
0.00737
0.00491
0.00246
-0.00328
-0.00491
-0.00819
-0.01311
-0.01474
-0.01802
-0.01966
-0.02294
-0.02539
-0.02539
-0.02539
-0.02539
-0.02539
-0.02539
-0.02539
-0.02539
-0.02539
-0.02785
-0.03031
-0.03031
-0.03031
-0.03277
-0.03522
-0.03768
-0.04014
-0.04014
-0.04014
-0.04014
-0.04014
-0.04014
-0.04014
-0.04260
-0.04505
-0.04751
-0.04997
-0.04997
-0.05243
-0.05488
-0.05488
-0.05488
-0.05488
-0.05816
-0.05980
-0.06307
-0.06471
-0.06226
-0.05980
-0.05980
-0.05980
-0.05980
-0.06307
-0.06471
-0.06471
-0.06471
-0.06471
-0.06471
-0.06226
-0.05734
-0.04915
-0.04260
-0.03686
-0.02949
-0.01966
-0.00655
0.00819
0.02621
0.04014
0.05079
0.05488
0.05243
0.04423
0.03686
0.02949
0.01966
0.00655
-0.01065
-0.02785
-0.04587
-0.06062
-0.07045
-0.08028
-0.09011
-0.09748
-0.09994
-0.09994
-0.10239
-0.10485
-0.10485
-0.10239
-0.09994
-0.09994
-0.09994
-0.09994
-0.09994
-0.09994
-0.09994
-0.09994
-0.09994
-0.09994
-0.09994
-0.09994
-0.09994
-0.09994
-0.09994
-0.09994
-0.09994
-0.09994
-0.09748
-0.09502
-0.09256
-0.09011
-0.09011
-0.08765
-0.07700
-0.05406
-0.01884
0.02376
0.07454
0.13434
0.21298
0.30800
0.38910
0.40958
0.33422
0.17448
-0.02294
-0.21462
-0.37108
-0.48248
-0.55129
-0.59061
-0.59962
-0.57177
-0.51361
-0.43006
-0.33258
-0.23755
-0.16629
-0.11878
-0.08929
-0.06963
-0.05488
-0.04751
-0.04014
-0.03522
-0.03277
-0.03031
-0.03031
-0.03031
-0.02703
-0.02539
-0.02539
-0.02212
-0.01966
-0.01720
-0.01474
-0.01474
-0.01229
-0.00983
-0.00983
-0.00983
-0.00737
-0.00491
-0.00491
-0.00491
-0.00491
-0.00246
0.00000
0.00246
0.00491
0.00737
0.00983
0.00983
0.00983
0.00983
0.00983
0.00983
0.00983
0.01229
0.01229
0.01229
0.01474
0.01474
0.01474
0.01474
0.01720
0.01966
0.01720
0.01474
0.01474
0.01474
0.01474
0.01720
0.01966
0.02212
0.02539
0.02539
0.02539
0.02539
0.02539
0.02539
0.02539
0.02539
0.02539
0.02785
0.03031
0.03277
0.03277
0.03031
0.03277
0.03522
0.03277
0.03031
0.03031
0.03031
0.03031
0.03031
0.03031
0.02785
0.02539
0.02539
0.02539
0.02539
0.02539
0.02539
0.02539
0.02703
0.03031
0.03031
0.02785
0.02539
0.02539
0.02539
0.02539
0.02539
0.02539
0.02539
0.02539
0.02703
0.03031
0.03031
0.03031
0.03031
0.03031
0.02785
0.02539
0.02539
0.02294
0.01966
0.01966
0.01966
0.01966
0.01966
0.01966
0.01802
0.01474
0.01229
0.00983
0.00737
0.00246
-0.00246
-0.00491
-0.00737
-0.01229
-0.01474
-0.01720
-0.01966
-0.02212
-0.02703
-0.03031
-0.03031
-0.03031
-0.03031
-0.03031
-0.03031
-0.03031
-0.03031
-0.03031
-0.03031
-0.03031
-0.03031
-0.03031
-0.03031
-0.03031
-0.03031
-0.03031
-0.03031
-0.02785
-0.02539
-0.02539
-0.02539
-0.02539
-0.02703
-0.03031
-0.03031
-0.03031
-0.03031
-0.03031
-0.03031
-0.03195
-0.03768
-0.04014
-0.04260
-0.04505
-0.04751
-0.04997
-0.04997
-0.04997
-0.04997
-0.04997
-0.04997
-0.04997
-0.04997
-0.05243
-0.05488
-0.05488
-0.05488
-0.05488
-0.05734
-0.05980
-0.05816
-0.05488
-0.05079
-0.04014
-0.03277
-0.02539
-0.01311
-0.00246
0.00410
0.01638
0.03195
0.04423
0.05652
0.06471
0.06471
0.06307
0.05816
0.05079
0.04260
0.03359
0.01802
0.00082
-0.01884
-0.03686
-0.04915
-0.05980
-0.06963
-0.07700
-0.08028
-0.08192
-0.08519
-0.08519
-0.08519
-0.08519
-0.08683
-0.09011
-0.09256
-0.09502
-0.09502
-0.09502
-0.09502
-0.09502
-0.09502
-0.09748
-0.09994
-0.09994
-0.09748
-0.09502
-0.09502
-0.09502
-0.09502
-0.09502
-0.09256
-0.08765
-0.08519
-0.08519
-0.08273
-0.07782
-0.06635
-0.04260
-0.00819
0.03195
0.07372
0.12369
0.18677
0.27032
0.35224
0.37927
0.31046
0.15482
-0.03686
-0.22363
-0.37927
-0.48822
-0.55375
-0.59061
-0.60044
-0.57587
-0.51852
-0.43497
-0.33422
-0.23428
-0.16219
-0.11550
-0.08683
-0.06881
-0.05816
-0.05325
-0.04587
-0.03768
-0.03522
-0.03522
-0.03522
-0.03277
-0.03195
-0.03277
-0.03031
-0.03031
-0.02785
-0.02539
-0.02294
-0.01966
-0.01966
-0.01802
-0.01474
-0.01311
-0.00983
-0.00983
-0.00983
-0.00983
-0.00983
-0.00819
-0.00491
-0.00491
-0.00491
-0.00491
-0.00491
-0.00491
-0.00491
-0.00491
-0.00491
-0.00491
-0.00491
-0.00491
-0.00491
-0.00328
0.00000
0.00164
0.00491
0.00737
0.00983
0.00983
0.00819
0.00491
0.00491
0.00491
0.00491
0.00491
0.00491
0.00491
0.00737
0.00983
0.01229
0.01474
0.01474
0.01474
0.01474
0.01720
0.02212
0.02539
0.02539
0.02294
0.01966
0.01966
0.01966
0.01966
0.01966
0.01966
0.01966
0.01966
0.02212
0.02539
0.02539
0.02539
0.02539
0.02539
0.02703
0.03195
0.03522
0.03277
0.02785
0.02539
0.02539
0.02294
0.02212
0.02294
0.01966
0.01966
0.01966
0.01966
0.01966
0.01966
0.01966
0.01966
0.02212
0.02539
0.02539
0.02539
0.02539
0.02539
0.02539
0.02539
0.02539
0.02539
0.02539
0.02539
0.02294
0.01802
0.01474
0.01474
0.01474
0.01311
0.00819
0.00328
-0.00164
-0.00491
-0.00655
-0.00983
-0.00983
-0.01147
-0.01720
-0.02212
-0.02539
-0.02539
-0.02539
-0.02539
-0.02703
-0.03031
-0.03031
-0.03031
-0.03031
-0.03031
-0.03031
-0.03031
-0.03031
-0.03031
-0.03031
-0.03195
-0.03522
-0.03686
-0.04014
-0.04014
-0.04014
-0.04014
-0.04178
-0.04505
-0.04505
-0.04505
-0.04342
-0.04014
-0.04014
-0.04178
-0.04505
-0.04669
-0.05161
-0.05488
-0.05488
-0.05488
-0.05652
-0.05980
-0.05980
-0.05980
-0.05980
-0.05980
-0.05980
-0.05980
-0.06144
-0.06471
-0.06471
-0.06471
-0.06635
-0.06963
-0.06799
-0.06471
-0.06471
-0.06471
-0.06471
-0.06307
-0.05816
-0.05488
-0.05161
-0.04178
-0.03195
-0.02130
-0.01147
0.00000
0.01474
0.03031
0.04505
0.05816
0.06471
0.06144
0.05325
0.04669
0.03686
0.02703
0.01474
0.00000
-0.01638
-0.03522
-0.04997
-0.06471
-0.07700
-0.08355
-0.09175
-0.09666
-0.09994
-0.09994
-0.09994
-0.09994
-0.09994
-0.09994
-0.09994
-0.09994
-0.09994
-0.09994
-0.09994
-0.09994
-0.09994
-0.09994
-0.09994
-0.09994
-0.09994
-0.09994
-0.09994
-0.09994
-0.09830
-0.09502
-0.09338
-0.09011
-0.09011
-0.08847
-0.08519
-0.08355
-0.07864
-0.06881
-0.04669
-0.01556
0.02785
0.07209
0.13025
0.20315
0.29653
0.38091
0.40712
0.34732
0.19332
-0.00410
-0.20151
-0.36616
-0.48166
-0.55539
-0.59634
-0.60536
-0.57914
-0.52180
-0.44071
-0.34404
-0.24984
-0.17448
-0.11878
-0.08765
-0.06553
-0.05161
-0.04342
-0.03850
-0.03359
-0.03031
-0.03031
-0.03031
-0.03031
-0.02867
-0.02376
-0.01966
-0.01966
-0.01966
-0.01966
-0.01884
-0.01474
-0.01474
-0.01474
-0.01474
-0.01311
-0.00983
-0.00983
-0.00819
-0.00491
-0.00491
-0.00491
-0.00491
-0.00328
0.00000
0.00000
0.00000
0.00000
0.00164
0.00491
0.00491
0.00491
0.00491
0.00491
0.00491
0.00655
0.00983
0.00983
0.00983
0.00819
0.00491
0.00491
0.00491
0.00655
0.01147
0.01474
0.01474
0.01474
0.01474
0.01474
0.01474
0.01474
0.01474
0.01638
0.01966
0.01966
0.01966
0.01966
0.01966
0.02130
0.02539
0.02621
0.03031
0.03031
0.03031
0.03031
0.03031
0.03031
0.03031
0.03031
0.03031
0.03031
0.03031
0.03031
0.03031
0.03031
0.02867
0.02539
0.02539
0.02539
0.02621
0.03031
0.03031
0.03031
0.03031
0.03031
0.03031
0.03031
0.02867
0.02539
0.02621
0.03031
0.02867
0.02539
0.02539
0.02539
0.02539
0.02539
0.02539
0.02539
0.02539
0.02539
0.02539
0.02539
0.02539
0.02376
0.01966
0.01966
0.01884
0.01474
0.01474
0.01393
0.00901
0.00410
0.00000
-0.00164
-0.00491
-0.00491
-0.00491
-0.00655
-0.00983
-0.01147
-0.01638
-0.01966
-0.01966
-0.02130
-0.02539
-0.02539
-0.02539
-0.02539
-0.02539
-0.02539
-0.02539
-0.02539
-0.02376
-0.01966
-0.01966
-0.01966
-0.01966
-0.01966
-0.01966
-0.01966
-0.01966
-0.01966
-0.01966
-0.01966
-0.01966
-0.01966
-0.01966
-0.01966
-0.02130
-0.02621
-0.03031
-0.03031
-0.03031
-0.03031
-0.03031
-0.03031
-0.03031
-0.03031
-0.03113
-0.03522
-0.03522
-0.03522
-0.03522
-0.03604
-0.04014
-0.04014
-0.04014
-0.04096
-0.04505
-0.04587
-0.04997
-0.04997
-0.04997
-0.04997
-0.04915
-0.04505
-0.04505
-0.04423
-0.03768
-0.02867
-0.02294
-0.01229
-0.00410
0.00082
0.00819
0.02457
0.04342
0.05734
0.06881
0.08028
0.07864
0.07372
0.06881
0.06307
0.05161
0.03686
0.02130
0.00573
-0.01474
-0.03359
-0.04751
-0.05816
-0.07209
-0.08028
-0.08110
-0.08601
-0.09011
-0.08929
-0.08519
-0.08519
-0.08601
-0.09011
-0.09011
-0.09093
-0.09420
-0.09011
-0.09011
-0.09011
-0.09011
-0.09011
-0.09011
-0.09011
-0.09011
-0.08929
-0.08355
-0.08028
-0.08110
-0.08519
-0.08519
-0.08355
-0.08028
-0.08028
-0.08028
-0.07700
-0.05980
-0.03277
0.00246
0.03932
0.08683
0.14499
0.21953
0.31292
0.38336
0.37763
0.27442
0.09830
-0.09748
-0.27032
-0.40630
-0.50214
-0.55784
-0.59143
-0.58979
-0.55539
-0.48166
-0.38992
-0.29080
-0.20069
-0.13598
-0.09420
-0.06635
-0.04669
-0.03440
-0.02867
-0.02376
-0.01966
-0.01966
-0.01966
-0.01966
-0.01966
-0.01884
-0.01474
-0.01474
-0.01393
-0.00983
-0.00901
-0.00491
-0.00491
-0.00491
-0.00491
-0.00491
-0.00491
-0.00491
-0.00410
0.00000
0.00082
0.00491
0.00491
0.00491
0.00491
0.00573
0.00983
0.00983
0.00983
0.00983
0.00983
0.00983
0.00983
0.00983
0.01065
0.01474
0.01474
0.01393
0.01065
0.01474
0.01474
0.01474
0.01474
0.01474
0.01474
0.01474
0.01474
0.01474
0.01556
0.01966
0.01884
0.01556
0.01966
0.01966
0.02130
0.02539
0.02539
0.02539
0.02539
0.02621
0.03031
0.03031
0.03031
0.03031
0.03031
0.03031
0.02949
0.02539
0.02621
0.03031
0.03031
0.03031
0.03113
0.03522
0.03522
0.03522
0.03522
0.03522
0.03522
0.03522
0.03522
0.03522
0.03522
0.03440
0.03031
0.03031
0.02949
0.02539
0.02621
0.03031
0.03031
0.03031
0.03031
0.03031
0.03031
0.03031
0.03113
0.03440
0.03031
0.02949
0.02539
0.02539
0.02539
0.03031
0.03031
0.02949
0.02539
0.02539
0.02539
0.02539
0.02539
0.02539
0.02539
0.02457
0.01884
0.01393
0.00819
-0.00082
-0.00491
-0.00491
-0.00573
-0.01065
-0.01474
-0.01474
-0.01556
-0.02048
-0.02539
-0.03031
-0.03031
-0.03031
-0.03031
-0.03113
-0.03440
-0.03031
-0.03031
-0.03031
-0.03031
-0.03113
-0.03604
-0.03932
-0.03522
-0.03522
-0.03440
-0.03031
-0.03604
-0.04014
-0.04096
-0.04505
-0.04505
-0.04505
-0.04505
-0.04505
-0.04505
-0.04505
-0.04505
-0.04505
-0.04505
-0.04587
-0.04997
-0.05079
-0.05488
-0.05488
-0.05488
-0.05488
-0.05488
-0.05488
-0.05570
-0.05980
-0.05980
-0.05980
-0.06062
-0.06471
-0.06553
-0.06963
-0.06963
-0.06963
-0.06963
-0.06963
-0.06471
-0.05898
-0.05406
-0.04342
-0.03440
-0.02949
-0.02376
-0.01311
0.00164
0.01720
0.03113
0.04096
0.05079
0.05488
0.05406
0.04423
0.03850
0.02867
0.01884
0.00819
-0.00737
-0.02703
-0.04178
-0.05652
-0.06717
-0.08028
-0.08601
-0.09502
-0.09584
-0.09994
-0.09994
-0.09994
-0.09994
-0.09994
-0.09994
-0.09994
-0.09994
-0.09994
-0.09994
-0.10076
-0.10485
-0.10403
-0.09994
-0.09994
-0.09994
-0.09994
-0.09994
-0.09994
-0.09994
-0.09994
-0.09994
-0.09994
-0.09994
-0.09994
-0.09912
-0.09420
-0.08929
-0.08355
-0.06717
-0.03604
0.00410
0.04505
0.09584
0.15810
0.24001
0.33749
0.40466
0.39401
0.28179
0.09912
-0.10895
-0.29490
-0.43989
-0.53081
-0.58324
-0.61519
-0.61191
-0.57341
-0.50050
-0.40466
-0.30063
-0.20888
-0.14581
-0.10239
-0.07782
-0.05406
-0.04423
-0.03440
-0.03031
-0.03031
-0.03031
-0.03031
-0.03031
-0.03031
-0.02949
-0.02539
-0.02457
-0.01966
-0.01474
-0.01474
-0.01474
-0.01474
-0.01474
-0.01474
-0.00983
-0.00983
-0.00983
-0.00983
-0.00983
-0.00491
-0.00491
-0.00491
-0.00491
-0.00491
0.00000
0.00000
0.00000
0.00000
0.00000
0.00000
0.00000
0.00000
0.00000
0.00491
0.00491
0.00573
0.00983
0.00983
0.00491
0.00491
0.00573
0.00983
0.00983
0.00983
0.00983
0.00983
0.01065
0.01474
0.01474
0.01474
0.01474
0.01474
0.01474
0.01556
0.01966
0.01966
0.01966
0.01966
0.01966
0.01474
0.01474
0.01474
0.01474
0.01474
0.01474
0.01474
0.01556
0.01966
0.01966
0.01966
0.01966
0.02048
0.02457
0.01966
0.01966
0.01966
0.01966
0.01966
0.01966
0.01966
0.01474
0.01474
0.01474
0.01474
0.01474
0.01474
0.01474
0.01556
0.01966
0.01966
0.01966
0.01966
0.01966
0.01966
0.01966
0.01966
0.01966
0.02048
0.02539
0.02539
0.02539
0.02539
0.02539
0.02457
0.01966
0.01966
0.01474
0.01474
0.01474
0.01474
0.00983
0.00983
0.00491
0.00491
0.00000
-0.00491
-0.00491
-0.00983
-0.00983
-0.01556
-0.01966
-0.02048
-0.02539
-0.02539
-0.02539
-0.02539
-0.03031
-0.03031
-0.03031
-0.03031
-0.03031
-0.03031
-0.03031
-0.03031
-0.03031
-0.03031
-0.03031
-0.03031
-0.03031
-0.03031
-0.03031
-0.03031
-0.03031
-0.03031
-0.03031
-0.03031
-0.03031
-0.03031
-0.03522
-0.03522
-0.03522
-0.03522
-0.03522
-0.03522
-0.04014
-0.04014
-0.04014
-0.04505
-0.04997
-0.04997
-0.05488
-0.05488
-0.05488
-0.05488
-0.05488
-0.05980
-0.05488
-0.05488
-0.05980
-0.05980
-0.05980
-0.05980
-0.05980
-0.05980
-0.05980
-0.05980
-0.05488
-0.05488
-0.04505
-0.03522
-0.02949
-0.02457
-0.01474
-0.00491
0.01065
0.02539
0.04014
0.04997
0.05980
0.05980
0.05488
0.04997
0.04505
0.03522
0.02457
0.01474
-0.00491
-0.02539
-0.04014
-0.05488
-0.06553
-0.07536
-0.08028
-0.08519
-0.08519
-0.08519
-0.08519
-0.09011
-0.09011
-0.09011
-0.08519
-0.08519
-0.09011
-0.09011
-0.09011
-0.09011
-0.09011
-0.09011
-0.09011
-0.09502
-0.09502
-0.09502
-0.09994
-0.09502
-0.09011
-0.08519
-0.08028
-0.08028
-0.08028
-0.08519
-0.08519
-0.08519
-0.08028
-0.06963
-0.04997
-0.00983
0.02457
0.06471
0.10977
0.18021
0.26950
0.35961
0.38500
0.31537
0.15564
-0.04915
-0.23428
-0.38418
-0.48904
-0.54965
-0.59471
-0.59962
-0.57013
-0.50542
-0.41613
-0.31128
-0.22117
-0.15072
-0.10567
-0.08028
-0.05488
-0.04505
-0.03522
-0.03031
-0.03031
-0.03031
-0.02539
-0.02539
-0.02539
-0.02048
-0.01966
-0.01966
-0.01966
-0.01474
-0.01474
-0.00983
-0.00983
-0.00983
-0.00983
-0.00983
-0.00983
-0.00983
-0.00983
-0.00983
-0.00983
-0.00983
-0.00983
-0.00983
-0.00491
-0.00491
-0.00491
-0.00491
0.00000
0.00000
0.00491
0.00983
0.00983
0.00983
0.00983
0.01474
0.01474
0.01474
0.00983
0.00983
0.01474
0.01474
0.01474
0.01474
0.01474
0.01474
0.01474
0.01474
0.01474
0.01474
0.01474
0.01474
0.01474
0.01474
0.01474
0.01474
0.01966
0.01966
0.01966
0.02457
0.02949
0.03031
0.03031
0.03031
0.03031
0.03031
0.03031
0.03440
0.04014
0.04014
0.04014
0.04014
0.04014
0.04014
0.04014
0.03522
0.03522
0.03031
0.03031
0.03031
0.03031
0.03031
0.02539
0.02539
0.02539
0.02539
0.02539
0.02539
0.02539
0.02949
0.03031
0.03031
0.03031
0.02539
0.02539
0.02048
0.01966
0.01966
0.01966
0.01966
0.01966
0.01966
0.02457
0.02949
0.02539
0.02539
0.02048
0.01966
0.01966
0.01966
0.01556
0.01474
0.01065
0.00491
0.00000
-0.00491
-0.00983
-0.01474
-0.01966
-0.02457
-0.02539
-0.02949
-0.03031
-0.03440
-0.03932
-0.04505
-0.04505
-0.04997
-0.04997
-0.05488
-0.05488
-0.04997
-0.04997
-0.04505
-0.04505
-0.04014
-0.04014
-0.04014
-0.04014
-0.04014
-0.04014
-0.04014
-0.04014
-0.04014
-0.04014
-0.04014
-0.04014
-0.04423
-0.04505
-0.04505
-0.04997
-0.05488
-0.05488
-0.05488
-0.05488
-0.05488
-0.05488
-0.05980
-0.05980
-0.06471
-0.06471
-0.06963
-0.06963
-0.06553
-0.06963
-0.06963
-0.07454
-0.07536
-0.07536
-0.07946
-0.08028
-0.08028
-0.08028
-0.08028
-0.08028
-0.08028
-0.08028
-0.08028
-0.08028
-0.07536
-0.07045
-0.06553
-0.05570
-0.04587
-0.03604
-0.02621
-0.00655
0.00901
0.01884
0.03850
0.04423
0.05406
0.05488
0.05079
0.04505
0.04014
0.03113
0.01638
0.00164
-0.01393
-0.02867
-0.04342
-0.05898
-0.07372
-0.08437
-0.09420
-0.09912
-0.09994
-0.09994
-0.09994
-0.10485
-0.10485
-0.10485
-0.10485
-0.10485
-0.10485
-0.10485
-0.10485
-0.10485
-0.10485
-0.10485
-0.10076
-0.09994
-0.09994
-0.09994
-0.10485
-0.10485
-0.10485
-0.10076
-0.09994
-0.09994
-0.09994
-0.09994
-0.09584
-0.09093
-0.09011
-0.08110
-0.06226
-0.03359
0.00983
0.05488
0.10485
0.17202
0.26459
0.35961
0.41859
0.39401
0.27032
0.08192
-0.12615
-0.30964
-0.44562
-0.53081
-0.58406
-0.61191
-0.60208
-0.56030
-0.48412
-0.38664
-0.28261
-0.19905
-0.13680
-0.09912
-0.07700
-0.05734
-0.05079
-0.04587
-0.04096
-0.03522
-0.03522
-0.03522
-0.03031
-0.03440
-0.03031
-0.03031
-0.03031
-0.03031
-0.03031
-0.03031
-0.03031
-0.02539
-0.02539
-0.02048
-0.01556
-0.01474
-0.01474
-0.01474
-0.01065
-0.00983
-0.00983
-0.00983
-0.00573
-0.00491
-0.00491
-0.00491
-0.00491
-0.00491
-0.00491
-0.00491
-0.00491
-0.00491
-0.00082
0.00000
0.00000
0.00000
0.00000
0.00000
0.00000
0.00000
0.00000
0.00000
0.00000
0.00000
0.00000
0.00410
0.00491
0.00491
0.00901
0.00983
0.01393
0.01474
0.01474
0.01474
0.01474
0.01474
0.01474
0.01474
0.01966
0.01966
0.01966
0.01966
0.01966
0.01966
0.01966
0.01966
0.01966
0.01966
0.01966
0.02457
0.02539
0.02539
0.02539
0.02539
0.02539
0.02048
0.01966
0.01966
0.01966
0.01966
0.02457
0.02539
0.02949
0.03031
0.03031
0.03031
0.03031
0.03031
0.03031
0.03031
0.03031
0.03031
0.03031
0.03031
0.03031
0.03031
0.03031
0.03031
0.03440
0.03522
0.03113
0.03440
0.03522
0.03113
0.03031
0.03031
0.02621
0.02539
0.02048
0.01966
0.01556
0.01474
0.01474
0.01065
0.00983
0.00573
0.00082
-0.00410
-0.00491
-0.00491
-0.00491
-0.00491
-0.00901
-0.00983
-0.01393
-0.01474
-0.01884
-0.01966
-0.01966
-0.02376
-0.02539
-0.02539
-0.02048
-0.01966
-0.01966
-0.01966
-0.01966
-0.01966
-0.01556
-0.01474
-0.01884
-0.01966
-0.01966
-0.02376
-0.02539
-0.02539
-0.02539
-0.02539
-0.02949
-0.03031
-0.03031
-0.03031
-0.03031
-0.03440
-0.03522
-0.03932
-0.04014
-0.04423
-0.04915
-0.04997
-0.04997
-0.05406
-0.05488
-0.05488
-0.05898
-0.05980
-0.05980
-0.05980
-0.05980
-0.05980
-0.05980
-0.05980
-0.05980
-0.05980
-0.05980
-0.05570
-0.05079
-0.03359
-0.02212
-0.00819
0.00737
0.02212
0.03277
0.03522
0.03522
0.03522
0.03932
0.04014
0.04014
0.02785
0.01311
-0.00573
-0.02621
-0.03768
-0.05243
-0.05898
-0.07209
-0.07864
-0.08437
-0.08929
-0.09011
-0.09420
-0.09502
-0.09502
-0.09093
-0.09011
-0.09011
-0.09420
-0.09502
-0.09502
-0.09502
-0.09093
-0.09420
-0.09502
-0.09502
-0.09502
-0.09502
-0.09093
-0.09011
-0.08601
-0.08519
-0.08519
-0.08519
-0.08519
-0.08110
-0.08028
-0.08028
-0.07618
-0.05898
-0.03522
-0.00246
0.03277
0.07536
0.12861
0.19905
0.28588
0.35961
0.37517
0.29653
0.13352
-0.05816
-0.24902
-0.39975
-0.49641
-0.55784
-0.59307
-0.59962
-0.57668
-0.51115
-0.42105
-0.31456
-0.21953
-0.14909
-0.10403
-0.07127
-0.05325
-0.03850
-0.03113
-0.02621
-0.02130
-0.01966
-0.01638
-0.01474
-0.01147
-0.00983
-0.00983
-0.00983
-0.00983
-0.00983
-0.00983
-0.00573
-0.00491
-0.00491
-0.00491
-0.00491
-0.00491
-0.00491
-0.00491
-0.00491
-0.00082
0.00000
0.00000
0.00410
0.00491
0.00082
0.00000
0.00000
0.00000
0.00410
0.00491
0.00491
0.00491
0.00901
0.00983
0.00655
0.00901
0.00983
0.01393
0.01474
0.01147
0.00983
0.00983
0.00983
0.00983
0.00983
0.01393
0.01147
0.00983
0.01393
0.01474
0.01474
0.01474
0.01474
0.01474
0.01474
0.01474
0.01474
0.01884
0.01966
0.01966
0.01966
0.02376
0.02130
0.01966
0.01966
0.01966
0.02376
0.02539
0.02539
0.02539
0.02539
0.02539
0.02539
0.02539
0.02539
0.02130
0.01966
0.01966
0.01966
0.01966
0.01966
0.01966
0.01966
0.01966
0.01966
0.02376
0.02867
0.03031
0.03031
0.03031
0.03031
0.03359
0.03522
0.03522
0.02785
0.02130
0.01966
0.01966
0.02376
0.02130
0.01966
0.01966
0.01638
0.01884
0.01966
0.01638
0.01474
0.01474
0.01474
0.01474
0.01474
0.01147
0.00655
0.00164
-0.00328
-0.00491
-0.01229
-0.01884
-0.01966
-0.02376
-0.02539
-0.02539
-0.02867
-0.03031
-0.03031
-0.03031
-0.03031
-0.03031
-0.03031
-0.03359
-0.03522
-0.03113
-0.03031
-0.03031
-0.03031
-0.03031
-0.03031
-0.03031
-0.03031
-0.03031
-0.03031
-0.03031
-0.03359
-0.03522
-0.03522
-0.03522
-0.03522
-0.03522
-0.03850
-0.04014
-0.04342
-0.04505
-0.04833
-0.04997
-0.05325
-0.05488
-0.05488
-0.05488
-0.05488
-0.05816
-0.06389
-0.06471
-0.06144
-0.05980
-0.05980
-0.06389
-0.06471
-0.06881
-0.06963
-0.06963
-0.06963
-0.06963
-0.07372
-0.07536
-0.07127
-0.06963
-0.06963
-0.06963
-0.06963
-0.06963
-0.06963
-0.06963
-0.06963
-0.06635
-0.06144
-0.05652
-0.04833
-0.03768
-0.03113
-0.02294
-0.00983
0.00164
0.01556
0.03359
0.04669
0.05734
0.06389
0.05816
0.04833
0.04178
0.02949
0.01802
0.00082
-0.01884
-0.03522
-0.05079
-0.06553
-0.07700
-0.08683
-0.09338
-0.09830
-0.09994
-0.09994
-0.09994
-0.09994
-0.10321
-0.10485
-0.10485
-0.10485
-0.10485
-0.10158
-0.09994
-0.09994
-0.09994
-0.09994
-0.09994
-0.09994
-0.09994
-0.09994
-0.09994
-0.09994
-0.09994
-0.09994
-0.09994
-0.09994
-0.09994
-0.09666
-0.09502
-0.09175
-0.09011
-0.08355
-0.06635
-0.03604
0.00246
0.04915
0.10567
0.17612
0.26131
0.35060
0.40384
0.37108
0.24493
0.05325
-0.15318
-0.33094
-0.46282
-0.54720
-0.60044
-0.62502
-0.61682
-0.56604
-0.48822
-0.38992
-0.28425
-0.19660
-0.14008
-0.10158
-0.07290
-0.05816
-0.04833
-0.04178
-0.03686
-0.03195
-0.03031
-0.02703
-0.02539
-0.02130
-0.01966
-0.01966
-0.01966
-0.01966
-0.01966
-0.01638
-0.01474
-0.01147
-0.00983
-0.00983
-0.00655
-0.00491
-0.00491
-0.00491
-0.00491
-0.00491
-0.00491
-0.00491
-0.00491
-0.00491
-0.00491
-0.00491
-0.00491
-0.00491
-0.00491
-0.00491
-0.00491
-0.00164
0.00000
0.00000
0.00000
0.00000
0.00000
0.00000
0.00328
0.00491
0.00819
0.00983
0.00983
0.00983
0.00983
0.01311
0.01474
0.01474
0.01474
0.01474
0.01474
0.01474
0.01474
0.01474
0.01474
0.01474
0.01474
0.01474
0.01802
0.01966
0.01966
0.02294
0.02539
0.02539
0.02539
0.02539
0.02539
0.02785
0.03031
0.02703
0.02539
0.02539
0.02212
0.01966
0.01966
0.02294
0.02539
0.02785
0.03031
0.03031
0.03031
0.03031
0.03031
0.03031
0.02703
0.02539
0.02539
0.02539
0.02539
0.02785
0.03031
0.03031
0.03031
0.03031
0.03031
0.03031
0.03031
0.03031
0.03031
0.03031
0.03031
0.03031
0.03031
0.03031
0.03031
0.03031
0.02703
0.02539
0.02539
0.02539
0.02539
0.02212
0.01720
0.01474
0.01474
0.01474
0.01229
0.00655
0.00164
-0.00328
-0.00491
-0.00819
-0.01311
-0.01802
-0.01966
-0.01966
-0.01966
-0.01720
-0.01474
-0.01802
-0.01966
-0.01966
-0.01966
-0.01966
-0.01966
-0.01966
-0.01966
-0.01966
-0.01966
-0.01966
-0.01966
-0.01966
-0.01966
-0.01966
-0.01966
-0.01966
-0.02294
-0.02785
-0.03031
-0.03031
-0.03031
-0.03031
-0.03277
-0.03522
-0.03768
-0.04014
-0.04014
-0.04342
-0.04505
-0.04505
-0.04505
-0.04833
-0.04997
-0.05325
-0.05488
-0.05488
-0.05488
-0.05488
-0.05488
-0.05488
-0.05488
-0.05488
-0.05816
-0.05980
-0.05734
-0.05488
-0.05816
-0.05734
-0.05488
-0.04915
-0.03932
-0.02867
-0.02212
-0.01393
-0.00737
0.00410
0.01884
0.03359
0.04915
0.06062
0.06471
0.06471
0.06226
0.05406
0.04423
0.03113
0.01638
0.00082
-0.01966
-0.03850
-0.05406
-0.06553
-0.07618
-0.08273
-0.08765
-0.09011
-0.09011
-0.09011
-0.09256
-0.09502
-0.09502
-0.09502
-0.09830
-0.09748
-0.09502
-0.09502
-0.09175
-0.09011
-0.09011
-0.09011
-0.09011
-0.09011
-0.09256
-0.09502
-0.09502
-0.09502
-0.09502
-0.09502
-0.09175
-0.09011
-0.09011
-0.08683
-0.08519
-0.08192
-0.07700
-0.06389
-0.04096
-0.00983
0.02785
0.07045
0.12697
0.19742
0.28425
0.35387
0.34978
0.24738
0.07946
-0.10239
-0.27114
-0.41122
-0.51033
-0.57341
-0.60617
-0.60372
-0.56358
-0.49231
-0.39565
-0.29326
-0.20807
-0.14663
-0.10239
-0.07372
-0.05652
-0.04751
-0.04260
-0.03686
-0.03195
-0.03031
-0.03031
-0.03031
-0.02703
-0.02539
-0.02539
-0.02212
-0.01966
-0.01720
-0.01474
-0.01229
-0.00983
-0.00983
-0.00737
-0.00491
-0.00491
-0.00491
-0.00246
0.00000
0.00000
0.00000
0.00000
0.00246
0.00491
0.00491
0.00491
0.00491
0.00491
0.00491
0.00491
0.00737
0.00983
0.00983
0.01311
0.01474
0.01474
0.01474
0.01474
0.01474
0.01229
0.00983
0.01311
0.01474
0.01474
0.01474
0.01474
0.01474
0.01474
0.01474
0.01802
0.01966
0.01966
0.01966
0.01966
0.01966
0.01966
0.01966
0.01720
0.01474
0.01802
0.01966
0.01966
0.02294
0.02539
0.02539
0.02539
0.02212
0.01966
0.02294
0.02539
0.02212
0.01966
0.01966
0.01966
0.01966
0.01966
0.01966
0.01966
0.01966
0.01966
0.02294
0.02539
0.02539
0.02539
0.02539
0.02539
0.02212
0.01966
0.01966
0.01966
0.01720
0.01474
0.01474
0.01474
0.01474
0.01474
0.01474
0.01474
0.01474
0.01474
0.01474
0.01474
0.01474
0.01474
0.01474
0.01474
0.01229
0.00983
0.00737
0.00246
-0.00246
-0.00491
-0.00491
-0.00491
-0.00491
-0.00737
-0.01229
-0.01474
-0.01474
-0.01720
-0.01966
-0.02294
-0.02539
-0.02539
-0.02539
-0.02539
-0.02539
-0.02539
-0.02539
-0.02539
-0.02539
-0.02212
-0.01966
-0.01966
-0.01966
-0.01966
-0.01966
-0.01966
-0.01966
-0.01966
-0.01966
-0.01966
-0.02212
-0.02539
-0.02539
-0.02785
-0.03031
-0.03031
-0.03031
-0.03277
-0.03522
-0.03522
-0.03768
-0.04014
-0.04260
-0.04505
-0.04751
-0.04997
-0.04997
-0.05243
-0.05488
-0.05488
-0.05488
-0.05488
-0.05488
-0.05488
-0.05488
-0.05488
-0.05488
-0.05488
-0.05488
-0.05488
-0.05488
-0.05488
-0.05734
-0.05980
-0.05980
-0.05980
-0.05734
-0.05488
-0.05488
-0.05488
-0.04997
-0.04014
-0.03277
-0.02539
-0.01474
-0.00737
0.00246
0.01720
0.03195
0.04751
0.05980
0.06471
0.06471
0.06226
0.05488
0.04505
0.03768
0.02785
0.01311
-0.00246
-0.01966
-0.03686
-0.05243
-0.06717
-0.07700
-0.08437
-0.09256
-0.09502
-0.09256
-0.09256
-0.09502
-0.09502
-0.09502
-0.09748
-0.09994
-0.09994
-0.09994
-0.09994
-0.09994
-0.09994
-0.09994
-0.09994
-0.09994
-0.09994
-0.09994
-0.09994
-0.09994
-0.09994
-0.09994
-0.09994
-0.09748
-0.09502
-0.09256
-0.08765
-0.08273
-0.08028
-0.07045
-0.04587
-0.01393
0.02376
0.06799
0.12287
0.19414
0.28588
0.37272
0.40057
0.33667
0.18513
-0.01393
-0.20970
-0.37435
-0.49149
-0.56522
-0.60617
-0.61764
-0.59471
-0.53327
-0.44398
-0.34404
-0.24657
-0.16793
-0.11878
-0.08847
-0.06553
-0.05243
-0.04587
-0.03768
-0.03277
-0.03031
-0.03031
-0.02785
-0.02294
-0.01966
-0.01802
-0.01474
-0.01474
-0.01474
-0.01311
-0.00983
-0.00983
-0.00983
-0.00737
-0.00491
-0.00491
-0.00491
-0.00491
-0.00246
0.00000
0.00246
0.00491
0.00491
0.00491
0.00737
0.00983
0.00983
0.00983
0.01229
0.01474
0.01474
0.01474
0.01474
0.01474
0.01474
0.01474
0.01474
0.01474
0.01474
0.01474
0.01474
0.01474
0.01474
0.01474
0.01474
0.01720
0.01966
0.01966
0.02212
0.02539
0.02539
0.02539
0.02539
0.02539
0.02703
0.03031
0.03031
0.03031
0.03031
0.03031
0.03195
0.03522
0.03522
0.03522
0.03522
0.03522
0.03522
0.03522
0.03522
0.03522
0.03522
0.03522
0.03522
0.03522
0.03522
0.03522
0.03686
0.04014
0.04014
0.04014
0.04014
0.04014
0.04014
0.04014
0.03768
0.03522
0.03522
0.03522
0.03522
0.03277
0.03195
0.03522
0.03522
0.03522
0.03522
0.03522
0.03522
0.03522
0.03522
0.03522
0.03522
0.03522
0.03522
0.03277
0.03195
0.03522
0.03522
0.03522
0.03522
0.03277
0.03031
0.02785
0.02294
0.01802
0.01474
0.01311
0.00983
0.00819
0.00328
0.00000
-0.00164
-0.00491
-0.00491
-0.00737
-0.00983
-0.00983
-0.00983
-0.00983
-0.00983
-0.00983
-0.00983
-0.00983
-0.00983
-0.01229
-0.01474
-0.01311
-0.00983
-0.00983
-0.00983
-0.01229
-0.01311
-0.00983
-0.01229
-0.01474
-0.01474
-0.01474
-0.01474
-0.01720
-0.01966
-0.02212
-0.02539
-0.02703
-0.03031
-0.03031
-0.03031
-0.03195
-0.03686
-0.04014
-0.04014
-0.04178
-0.04505
-0.04669
-0.04997
-0.04997
-0.04997
-0.04997
-0.04997
-0.04997
-0.04997
-0.05161
-0.05488
-0.05488
-0.05488
-0.05488
-0.05488
-0.05488
-0.05488
-0.05488
-0.05325
-0.04833
-0.04096
-0.03277
-0.02621
-0.01638
-0.00819
0.00082
0.01556
0.03031
0.04342
0.05570
0.06471
0.06471
0.06307
0.05652
0.04587
0.03850
0.02949
0.01474
-0.00082
-0.01720
-0.03522
-0.04833
-0.05898
-0.06881
-0.07700
-0.08192
-0.08519
-0.08683
-0.09011
-0.09011
-0.09011
-0.09011
-0.09011
-0.09011
-0.09011
-0.09011
-0.08847
-0.08519
-0.08519
-0.08519
-0.08519
-0.08683
-0.09011
-0.08847
-0.08519
-0.08683
-0.09011
-0.09011
-0.09011
-0.09011
-0.09011
-0.08847
-0.08355
-0.08028
-0.07618
-0.06471
-0.04587
-0.01720
0.01720
0.05570
0.10485
0.16465
0.24001
0.32357
0.37681
0.34486
0.21953
0.03768
-0.15892
-0.32439
-0.44808
-0.53081
-0.58078
-0.60208
-0.59307
-0.54392
-0.46036
-0.35797
-0.25885
-0.17694
-0.12287
-0.08929
-0.06471
-0.04997
-0.03850
-0.03359
-0.02867
-0.02539
-0.02539
-0.02294
-0.01966
-0.01966
-0.01802
-0.01474
-0.01311
-0.00983
-0.00983
-0.00819
-0.00491
-0.00491
-0.00491
-0.00491
-0.00491
-0.00328
0.00000
0.00000
0.00000
0.00000
0.00000
0.00000
0.00000
0.00000
0.00000
0.00164
0.00491
0.00491
0.00655
0.00983
0.01147
0.01474
0.01474
0.01474
0.01474
0.01474
0.01474
0.01474
0.01474
0.01474
0.01474
0.01474
0.01474
0.01474
0.01474
0.01474
0.01474
0.01474
0.01474
0.01474
0.01474
0.01474
0.01638
0.01966
0.02130
0.02539
0.02539
0.02376
0.01802
0.01474
0.01474
0.01638
0.01966
0.02130
0.02621
0.03031
0.03031
0.03031
0.03031
0.03195
0.03522
0.03359
0.03031
0.03031
0.02867
0.02539
0.02539
0.02539
0.02539
0.02539
0.02539
0.02539
0.02539
0.02539
0.02539
0.02539
0.02539
0.02376
0.01966
0.01966
0.01966
0.01884
0.01474
0.01638
0.01966
0.01966
0.01966
0.01966
0.01966
0.01884
0.01474
0.01474
0.01474
0.01474
0.01474
0.01474
0.01474
0.01311
0.00819
0.00328
-0.00164
-0.00491
-0.00655
-0.00983
-0.00983
-0.01147
-0.01474
-0.01474
-0.01638
-0.01966
-0.02130
-0.02539
-0.02539
-0.02539
-0.02376
-0.01966
-0.01966
-0.01966
-0.01966
-0.01966
-0.01966
-0.01884
-0.01474
-0.01393
-0.00983
-0.00819
-0.00491
-0.00491
-0.00491
-0.00491
-0.00491
-0.00655
-0.00983
-0.00983
-0.00983
-0.01147
-0.01474
-0.01638
-0.02130
-0.02539
-0.02539
-0.02621
-0.03031
-0.03031
-0.03113
-0.03522
-0.03604
-0.04014
-0.04014
-0.04014
-0.04014
-0.04014
-0.04014
-0.04178
-0.04669
-0.04997
-0.04997
-0.04997
-0.04997
-0.04997
-0.04833
-0.04669
-0.05161
-0.05325
-0.04997
-0.04997
-0.04833
-0.04669
-0.04997
-0.04997
-0.04997
-0.04833
-0.04342
-0.03768
-0.02703
-0.01720
-0.00901
-0.00246
0.00737
0.02048
0.03768
0.04915
0.06144
0.06471
0.06471
0.06389
0.05734
0.04751
0.03768
0.02621
0.00983
-0.00901
-0.02376
-0.03932
-0.05243
-0.06226
-0.07290
-0.08028
-0.08110
-0.08519
-0.08519
-0.08601
-0.09011
-0.09011
-0.08847
-0.08519
-0.08355
-0.08028
-0.08028
-0.08110
-0.08519
-0.08519
-0.08519
-0.08519
-0.08601
-0.09011
-0.09011
-0.09011
-0.09011
-0.09011
-0.09011
-0.08847
-0.08355
-0.08028
-0.08028
-0.07864
-0.07372
-0.06717
-0.05652
-0.03522
0.00491
0.04587
0.09338
0.15236
0.22936
0.32848
0.40958
0.42432
0.33667
0.16957
-0.03686
-0.23510
-0.39074
-0.50214
-0.56440
-0.59962
-0.61027
-0.58078
-0.51443
-0.42596
-0.32439
-0.22691
-0.15646
-0.10649
-0.07372
-0.05243
-0.04260
-0.03359
-0.02867
-0.02376
-0.01966
-0.01966
-0.01966
-0.01884
-0.01474
-0.01474
-0.01474
-0.01474
-0.01474
-0.01393
-0.00901
-0.00491
-0.00410
0.00000
0.00000
0.00000
0.00000
0.00000
0.00082
0.00491
0.00491
0.00491
0.00491
0.00491
0.00491
0.00573
0.00983
0.00983
0.00983
0.00983
0.00983
0.00983
0.00983
0.00983
0.00983
0.00983
0.01147
0.01474
0.01474
0.01474
0.01474
0.01474
0.01638
0.01966
0.01966
0.01884
0.01474
0.01638
0.01966
0.02130
0.02539
0.02539
0.02539
0.02621
0.03031
0.03113
0.03522
0.03522
0.03522
0.03522
0.03522
0.03522
0.03359
0.03031
0.03113
0.03522
0.03522
0.03522
0.03522
0.03604
0.03932
0.03522
0.03522
0.03604
0.04014
0.04014
0.04014
0.03932
0.03522
0.03522
0.03522
0.03522
0.03522
0.03522
0.03522
0.03522
0.03522
0.03522
0.03522
0.03522
0.03522
0.03522
0.03604
0.03932
0.03522
0.03522
0.03522
0.03604
0.04014
0.04014
0.04014
0.04014
0.04014
0.04014
0.04014
0.04014
0.04014
0.04014
0.04014
0.03932
0.03522
0.03440
0.02867
0.02376
0.01966
0.01884
0.01474
0.01474
0.01474
0.01393
0.00901
0.00491
0.00410
0.00000
-0.00082
-0.00491
-0.00491
-0.00491
-0.00491
-0.00491
-0.00491
-0.00491
-0.00491
-0.00491
-0.00491
-0.00491
-0.00491
-0.00491
-0.00491
-0.00491
-0.00491
-0.00491
-0.00491
-0.00573
-0.00983
-0.00983
-0.01065
-0.01474
-0.01474
-0.01556
-0.01966
-0.01966
-0.01966
-0.02048
-0.02539
-0.02539
-0.02539
-0.02621
-0.03031
-0.03031
-0.03113
-0.03522
-0.03604
-0.04014
-0.04014
-0.04014
-0.04014
-0.04096
-0.04505
-0.04505
-0.04587
-0.04997
-0.04997
-0.04997
-0.04915
-0.04505
-0.04505
-0.04423
-0.03850
-0.02949
-0.02376
-0.01311
-0.00410
0.00164
0.01065
0.01720
0.03277
0.04751
0.06144
0.06963
0.06963
0.06881
0.06389
0.05816
0.04833
0.03850
0.02785
0.01147
-0.00819
-0.02703
-0.04260
-0.05570
-0.06062
-0.06553
-0.07045
-0.07536
-0.07618
-0.08028
-0.08028
-0.08028
-0.08110
-0.08601
-0.09011
-0.09011
-0.09011
-0.09011
-0.09011
-0.09011
-0.09011
-0.09011
-0.09011
-0.08929
-0.08519
-0.08519
-0.08519
-0.08601
-0.09011
-0.08929
-0.08519
-0.08519
-0.08519
-0.08437
-0.08028
-0.07946
-0.07209
-0.05079
-0.01966
0.01966
0.05570
0.09830
0.16055
0.23837
0.32930
0.38255
0.34732
0.21462
0.02703
-0.16793
-0.32684
-0.44644
-0.52672
-0.57341
-0.59471
-0.58324
-0.52917
-0.44644
-0.34568
-0.24329
-0.16301
-0.11468
-0.07700
-0.05816
-0.04342
-0.03440
-0.03031
-0.03031
-0.02949
-0.02457
-0.01966
-0.01474
-0.01474
-0.00901
-0.00491
-0.00491
-0.00491
-0.00491
-0.00491
-0.00491
-0.00491
-0.00491
-0.00491
-0.00491
-0.00491
-0.00491
-0.00410
0.00000
0.00082
0.00491
0.00573
0.00983
0.00983
0.00983
0.00983
0.00983
0.01065
0.01474
0.01474
0.01474
0.01474
0.01474
0.01474
0.01474
0.01474
0.01474
0.01474
0.01474
0.01474
0.01474
0.01065
0.01474
0.01474
0.01065
0.01474
0.01474
0.01474
0.01474
0.01474
0.01474
0.01474
0.01556
0.02048
0.02539
0.02539
0.03031
0.02949
0.02539
0.02539
0.02539
0.02539
0.02539
0.02539
0.03031
0.03031
0.03031
0.03031
0.03031
0.03031
0.03031
0.03031
0.03031
0.03031
0.02949
0.02539
0.02539
0.02539
0.02539
0.02539
0.02539
0.02539
0.02539
0.03031
0.03031
0.03031
0.03031
0.03031
0.03031
0.03031
0.03440
0.03031
0.03031
0.03031
0.03031
0.03031
0.03031
0.03031
0.03031
0.03031
0.03031
0.03031
0.02949
0.02457
0.01966
0.01966
0.01966
0.01474
0.01474
0.01474
0.01474
0.00983
0.00491
0.00491
0.00000
-0.00082
-0.00491
-0.00491
-0.00573
-0.01065
-0.01556
-0.01966
-0.01966
-0.02048
-0.02539
-0.02457
-0.01966
-0.01966
-0.01474
-0.01474
-0.01474
-0.01474
-0.01474
-0.01474
-0.01474
-0.01474
-0.01474
-0.01474
-0.00983
-0.01065
-0.01474
-0.01474
-0.01556
-0.01966
-0.02048
-0.02539
-0.03031
-0.03031
-0.03031
-0.03522
-0.03522
-0.03522
-0.03522
-0.03522
-0.04014
-0.04014
-0.04014
-0.04014
-0.04505
-0.04505
-0.04505
-0.04505
-0.04997
-0.04997
-0.04997
-0.05488
-0.05488
-0.05570
-0.05980
-0.05980
-0.05488
-0.05488
-0.05488
-0.05488
-0.05488
-0.05488
-0.05488
-0.05488
-0.05488
-0.05488
-0.05406
-0.03932
-0.02949
-0.02457
-0.01474
-0.00410
0.00573
0.01556
0.03031
0.04096
0.05570
0.06471
0.06471
0.05980
0.05406
0.04505
0.03932
0.02949
0.01393
-0.00573
-0.02539
-0.03604
-0.04997
-0.05570
-0.06553
-0.07536
-0.08028
-0.08028
-0.08519
-0.09011
-0.09011
-0.09502
-0.09011
-0.09011
-0.09011
-0.09011
-0.09502
-0.09502
-0.09502
-0.09502
-0.09994
-0.09994
-0.09502
-0.09502
-0.09502
-0.09502
-0.09502
-0.09502
-0.09502
-0.09011
-0.09011
-0.09011
-0.08519
-0.08519
-0.08519
-0.08519
-0.07946
-0.05406
-0.02376
0.01638
0.06226
0.11714
0.18267
0.26868
0.36698
0.41367
0.36534
0.21871
0.02376
-0.17530
-0.34896
-0.47265
-0.54638
-0.59553
-0.61437
-0.59880
-0.54801
-0.46692
-0.36207
-0.26295
-0.17858
-0.12369
-0.08929
-0.06963
-0.05488
-0.04505
-0.03522
-0.03031
-0.02949
-0.02539
-0.02457
-0.01966
-0.01966
-0.01474
-0.01474
-0.01474
-0.00983
-0.00983
-0.00983
-0.00983
-0.00983
-0.00983
-0.00983
-0.00983
-0.00983
-0.00491
-0.00491
-0.00491
-0.00491
-0.00491
0.00000
0.00000
0.00000
0.00000
0.00000
0.00000
0.00491
0.00491
0.00983
0.00983
0.00983
0.00983
0.00983
0.01474
0.01474
0.01474
0.01474
0.01474
0.01474
0.01474
0.01474
0.01474
0.01474
0.01474
0.01474
0.01474
0.01474
0.01474
0.01966
0.01966
0.01966
0.01966
0.02539
0.02539
0.03031
0.02539
0.02539
0.02539
0.02539
0.02539
0.01966
0.01966
0.02539
0.02539
0.03031
0.03031
0.03031
0.03031
0.03031
0.03031
0.03031
0.03522
0.03522
0.03522
0.03031
0.03031
0.03031
0.03031
0.03031
0.02539
0.02539
0.03031
0.03031
0.03522
0.03522
0.03522
0.03522
0.03522
0.04014
0.04014
0.04014
0.03522
0.03522
0.03522
0.03522
0.03031
0.03031
0.03522
0.03031
0.03031
0.03522
0.03522
0.03031
0.03031
0.03031
0.03031
0.02539
0.02539
0.02048
0.01474
0.01474
0.01474
0.00983
0.00491
0.00000
-0.00491
-0.00491
-0.00983
-0.00983
-0.01474
-0.01474
-0.01474
-0.01474
-0.01966
-0.01966
-0.01966
-0.02457
-0.02539
-0.02539
-0.02539
-0.02539
-0.02539
-0.02048
-0.01966
-0.01966
-0.01966
-0.01966
-0.02457
-0.02539
-0.02539
-0.02539
-0.02539
-0.02539
-0.02539
-0.02539
-0.02539
-0.02539
-0.02539
-0.02949
-0.03031
-0.03031
-0.03440
-0.03522
-0.03522
-0.04014
-0.04505
-0.04505
-0.04505
-0.04505
-0.04997
-0.05488
-0.05488
-0.05488
-0.05488
-0.05488
-0.05488
-0.05488
-0.05488
-0.05488
-0.05488
-0.05980
-0.05980
-0.05488
-0.05488
-0.04587
-0.03031
-0.01556
-0.00573
0.01393
0.01966
0.02457
0.02539
0.02539
0.02539
0.02949
0.03440
0.03522
0.02048
0.00082
-0.01393
-0.02949
-0.04423
-0.05406
-0.06471
-0.07454
-0.07946
-0.08028
-0.08028
-0.08437
-0.09011
-0.09011
-0.09011
-0.09011
-0.09011
-0.09011
-0.09011
-0.09011
-0.09011
-0.09011
-0.09011
-0.09011
-0.09011
-0.09011
-0.09011
-0.09011
-0.09011
-0.09011
-0.08519
-0.08519
-0.08519
-0.08519
-0.08519
-0.08519
-0.08028
-0.08028
-0.07536
-0.05652
-0.03195
0.00246
0.03768
0.08683
0.14581
0.21052
0.29408
0.36944
0.37026
0.27278
0.09830
-0.10485
-0.28261
-0.42023
-0.51361
-0.56604
-0.60208
-0.60536
-0.56767
-0.49067
-0.39729
-0.29326
-0.20233
-0.13516
-0.09748
-0.06717
-0.05079
-0.03604
-0.03031
-0.02539
-0.02539
-0.02539
-0.02539
-0.02539
-0.02048
-0.01966
-0.01556
-0.01474
-0.01474
-0.01474
-0.01474
-0.01065
-0.00983
-0.00573
-0.00491
-0.00491
-0.00491
-0.00491
-0.00491
-0.00491
-0.00491
-0.00082
-0.00491
-0.00491
-0.00082
0.00491
0.00491
0.00491
0.00491
0.00491
0.00983
0.00983
0.00983
0.01474
0.01474
0.01474
0.01065
0.00983
0.01474
0.01474
0.01474
0.01474
0.01474
0.01474
0.01065
0.00983
0.00983
0.01474
0.01474
0.01474
0.01474
0.01474
0.01474
0.01474
0.01966
0.01966
0.01966
0.01966
0.01556
0.01474
0.01474
0.01474
0.01966
0.02457
0.02539
0.02539
0.02539
0.02949
0.03031
0.03031
0.03031
0.02539
0.02539
0.02539
0.02539
0.02539
0.02539
0.02539
0.02539
0.02539
0.02539
0.02949
0.03031
0.03440
0.03031
0.03031
0.03031
0.02539
0.02539
0.02539
0.02949
0.03031
0.03031
0.03031
0.02539
0.02539
0.02048
0.01966
0.01966
0.02457
0.02539
0.02539
0.02539
0.02539
0.02539
0.02048
0.01556
0.01474
0.01474
0.01474
0.01065
0.00983
0.00573
0.00082
-0.00410
-0.00491
-0.00491
-0.00901
-0.00983
-0.01474
-0.01966
-0.01966
-0.02457
-0.02539
-0.02949
-0.03031
-0.03031
-0.03031
-0.03031
-0.03031
-0.03031
-0.03031
-0.03031
-0.03031
-0.03031
-0.03031
-0.03031
-0.03031
-0.03031
-0.03031
-0.03031
-0.03031
-0.03031
-0.03031
-0.03031
-0.03031
-0.03031
-0.03031
-0.03031
-0.03031
-0.03031
-0.03031
-0.03440
-0.03522
-0.03522
-0.03932
-0.04014
-0.04423
-0.04915
-0.05406
-0.05488
-0.05488
-0.05488
-0.05488
-0.05488
-0.05898
-0.05980
-0.05980
-0.05980
-0.05980
-0.05980
-0.05570
-0.05488
-0.05488
-0.05488
-0.05488
-0.05488
-0.05488
-0.05488
-0.05898
-0.05980
-0.05570
-0.05079
-0.04178
-0.03195
-0.02539
-0.01638
-0.00655
-0.00082
0.01229
0.02785
0.04260
0.05734
0.06881
0.06963
0.06553
0.06471
0.06062
0.05161
0.04178
0.02703
0.00819
-0.01147
-0.02785
-0.05079
-0.06307
-0.07372
-0.07946
-0.08028
-0.08437
-0.08929
-0.09011
-0.09011
-0.09011
-0.09011
-0.09011
-0.09011
-0.09011
-0.09011
-0.08601
-0.08519
-0.08519
-0.08519
-0.08929
-0.09011
-0.09011
-0.09420
-0.09502
-0.09093
-0.09011
-0.09011
-0.09011
-0.08601
-0.08519
-0.08519
-0.08519
-0.08110
-0.08028
-0.07618
-0.05816
-0.03031
0.00819
0.05652
0.10649
0.17284
0.25885
0.35306
0.41122
0.39156
0.27032
0.08110
-0.11878
-0.30227
-0.43743
-0.52917
-0.58160
-0.60208
-0.59307
-0.54883
-0.47839
-0.38336
-0.28343
-0.19578
-0.13516
-0.09256
-0.06471
-0.05161
-0.04178
-0.03195
-0.03031
-0.03031
-0.02621
-0.02130
-0.01966
-0.01966
-0.01966
-0.01966
-0.01966
-0.01556
-0.01474
-0.01065
-0.00983
-0.00573
-0.00491
-0.00491
-0.00491
-0.00491
-0.00082
0.00000
0.00000
0.00000
0.00000
0.00410
0.00491
0.00491
0.00491
0.00901
0.00983
0.00983
0.00983
0.00983
0.00983
0.00983
0.00983
0.00983
0.00983
0.01393
0.01474
0.01474
0.01474
0.01474
0.01474
0.01474
0.01474
0.01474
0.01474
0.01884
0.01966
0.01966
0.01966
0.01966
0.01966
0.01966
0.01966
0.01966
0.01966
0.02376
0.02539
0.02867
0.03031
0.03031
0.03031
0.03031
0.03359
0.03932
0.03604
0.03522
0.03113
0.03359
0.03522
0.03522
0.03522
0.03522
0.03522
0.03522
0.03113
0.03031
0.03031
0.03031
0.03359
0.03522
0.03850
0.03604
0.03522
0.03522
0.03522
0.03522
0.03522
0.03113
0.03031
0.03031
0.03031
0.03359
0.03113
0.03031
0.03359
0.03522
0.03522
0.03113
0.03031
0.03031
0.02621
0.02539
0.02539
0.02539
0.02539
0.02539
0.02539
0.02539
0.02539
0.02130
0.01966
0.01966
0.01638
0.01474
0.01147
0.00655
0.00082
-0.00410
-0.00491
-0.00491
-0.00491
-0.00491
-0.00901
-0.00983
-0.00983
-0.00983
-0.01393
-0.01474
-0.01474
-0.01474
-0.01474
-0.01474
-0.01474
-0.01474
-0.01474
-0.01474
-0.01147
-0.00983
-0.00983
-0.00983
-0.00983
-0.00655
-0.00491
-0.00491
-0.00491
-0.00901
-0.01393
-0.01884
-0.01966
-0.01966
-0.01966
-0.01966
-0.02376
-0.02867
-0.03031
-0.03031
-0.03031
-0.03031
-0.03768
-0.04342
-0.04505
-0.04505
-0.04505
-0.04505
-0.04833
-0.04997
-0.04997
-0.04997
-0.04997
-0.05406
-0.05488
-0.05488
-0.05488
-0.05488
-0.05161
-0.04260
-0.03277
-0.01556
0.00082
0.01638
0.03113
0.03850
0.04014
0.04014
0.04014
0.04342
0.04833
0.04669
0.03359
0.01556
-0.00082
-0.01966
-0.03195
-0.04260
-0.05243
-0.05898
-0.06389
-0.06471
-0.06881
-0.06963
-0.06963
-0.06963
-0.07372
-0.07864
-0.08028
-0.08028
-0.08028
-0.07618
-0.07127
-0.06963
-0.06963
-0.06963
-0.07372
-0.07536
-0.07127
-0.06963
-0.07372
-0.07536
-0.07536
-0.07536
-0.07536
-0.07536
-0.07127
-0.06963
-0.06635
-0.06144
-0.05652
-0.04096
-0.01720
0.01147
0.04915
0.09256
0.14827
0.22281
0.31701
0.38828
0.39074
0.30636
0.15646
-0.02949
-0.21380
-0.36862
-0.48166
-0.54965
-0.58651
-0.59143
-0.55784
-0.49149
-0.40630
-0.31210
-0.22117
-0.14499
-0.09338
-0.06226
-0.04096
-0.03113
-0.02621
-0.02539
-0.02130
-0.01638
-0.01474
-0.01474
-0.01474
-0.01147
-0.00655
-0.00491
-0.00491
-0.00491
-0.00491
-0.00491
-0.00164
0.00000
0.00328
0.00491
0.00819
0.00983
0.00983
0.00983
0.00983
0.00983
0.00983
0.01311
0.01474
0.01474
0.01474
0.01474
0.01474
0.01474
0.01474
0.01474
0.01474
0.01474
0.01474
0.01474
0.01474
0.01474
0.01474
0.01474
0.01474
0.01474
0.01884
0.01966
0.01966
0.01966
0.01966
0.02376
0.02539
0.02867
0.03031
0.03031
0.03031
0.03359
0.03522
0.03522
0.03522
0.03522
0.03522
0.03850
0.04014
0.04014
0.04014
0.03686
0.03522
0.03850
0.04014
0.04014
0.04014
0.04014
0.04014
0.04014
0.04014
0.04014
0.04014
0.04014
0.04014
0.04014
0.04014
0.04014
0.04014
0.04014
0.04014
0.04014
0.04014
0.04014
0.04014
0.04014
0.04014
0.04014
0.04014
0.04014
0.04014
0.04014
0.04014
0.04342
0.04505
0.04505
0.04505
0.04505
0.04505
0.04505
0.04505
0.04833
0.04997
0.04669
0.04505
0.04505
0.04505
0.04178
0.04014
0.04014
0.04014
0.03686
0.03195
0.02703
0.02130
0.01638
0.01474
0.01147
0.00983
0.00655
0.00491
0.00164
0.00000
-0.00328
-0.00491
-0.00491
-0.00491
-0.00491
-0.00491
-0.00491
-0.00491
-0.00491
-0.00491
-0.00491
-0.00819
-0.00983
-0.00983
-0.01311
-0.01474
-0.01474
-0.01802
-0.01966
-0.01966
-0.01966
-0.02294
-0.02539
-0.02539
-0.02539
-0.02785
-0.03031
-0.03031
-0.03031
-0.03359
-0.03522
-0.03522
-0.03850
-0.04014
-0.04014
-0.04014
-0.04342
-0.04505
-0.04505
-0.04505
-0.04505
-0.04833
-0.04997
-0.04997
-0.04997
-0.04997
-0.04997
-0.04669
-0.04833
-0.04997
-0.04669
-0.04505
-0.04505
-0.04505
-0.04833
-0.04997
-0.04997
-0.04669
-0.04505
-0.03850
-0.03195
-0.02703
-0.02212
-0.01393
-0.00655
0.00164
0.01474
0.03277
0.04915
0.06471
0.07618
0.08028
0.07700
0.07209
0.06717
0.06226
0.05079
0.03522
0.02048
0.00246
-0.01720
-0.03440
-0.04587
-0.05325
-0.06144
-0.06799
-0.07290
-0.07782
-0.08028
-0.08028
-0.08028
-0.08028
-0.08028
-0.08028
-0.08028
-0.08028
-0.08028
-0.08028
-0.08028
-0.08028
-0.08028
-0.08028
-0.08028
-0.08028
-0.08028
-0.08028
-0.08028
-0.08028
-0.08028
-0.07700
-0.07536
-0.07209
-0.06717
-0.06471
-0.06226
-0.05734
-0.04260
-0.01638
0.01966
0.06226
0.11386
0.17776
0.25967
0.34978
0.40302
0.36944
0.24247
0.06799
-0.11714
-0.28670
-0.41695
-0.50214
-0.55457
-0.57914
-0.57013
-0.52098
-0.44071
-0.34486
-0.25066
-0.17284
-0.11468
-0.07700
-0.05325
-0.03932
-0.03195
-0.02703
-0.02212
-0.01720
-0.01474
-0.01229
-0.00737
-0.00491
-0.00491
-0.00491
-0.00491
-0.00491
-0.00491
-0.00491
-0.00164
0.00000
0.00000
0.00000
0.00000
0.00000
0.00000
0.00328
0.00491
0.00819
0.00983
0.01311
0.01474
0.01474
0.01474
0.01474
0.01474
0.01474
0.01474
0.01474
0.01474
0.01474
0.01802
0.01966
0.01966
0.01966
0.01966
0.01966
0.01966
0.01966
0.01966
0.01966
0.02294
0.02539
0.02212
0.01966
0.01966
0.02294
0.02539
0.02785
0.03031
0.03031
0.03031
0.03031
0.03031
0.03031
0.03277
0.03768
0.04014
0.04014
0.04014
0.04014
0.03686
0.03522
0.03768
0.04014
0.04014
0.04014
0.04014
0.04014
0.04014
0.04014
0.04014
0.04014
0.04014
0.04014
0.04014
0.04014
0.04014
0.04014
0.04014
0.04014
0.04014
0.03686
0.03522
0.03522
0.03522
0.03522
0.03768
0.03686
0.03522
0.03522
0.03768
0.04014
0.03686
0.03768
0.03686
0.03522
0.03522
0.03768
0.04014
0.04014
0.04014
0.03686
0.03195
0.03031
0.03031
0.03031
0.03031
0.02703
0.02212
0.01720
0.01474
0.01229
0.00983
0.00737
0.00246
0.00000
-0.00246
-0.00491
-0.00491
-0.00491
-0.00491
-0.00737
-0.00983
-0.00983
-0.00983
-0.00983
-0.00983
-0.00737
-0.00491
-0.00491
-0.00737
-0.00983
-0.00983
-0.00737
-0.00491
-0.00491
-0.00491
-0.00491
-0.00491
-0.00491
-0.00491
-0.00491
-0.00491
-0.00491
-0.00491
-0.00491
-0.00737
-0.00983
-0.00983
-0.00983
-0.00983
-0.01229
-0.01474
-0.01802
-0.01966
-0.02294
-0.02539
-0.02785
-0.03031
-0.03277
-0.03522
-0.03768
-0.04014
-0.04014
-0.04014
-0.04014
-0.04260
-0.04751
-0.04997
-0.04997
-0.05243
-0.05488
-0.05488
-0.05243
-0.04751
-0.04505
-0.04505
-0.04505
-0.04505
-0.04505
-0.04014
-0.03277
-0.02457
-0.01720
-0.00983
0.00000
0.01065
0.02048
0.03277
0.04751
0.06062
0.07045
0.07536
0.07209
0.06717
0.06226
0.05488
0.04505
0.03195
0.01720
0.00000
-0.02048
-0.04260
-0.05980
-0.07045
-0.07782
-0.08028
-0.08273
-0.08519
-0.08519
-0.08519
-0.08519
-0.08519
-0.08519
-0.08519
-0.08519
-0.08519
-0.08519
-0.08765
-0.09256
-0.09502
-0.09502
-0.09256
-0.08765
-0.08519
-0.08519
-0.08519
-0.08765
-0.09011
-0.09011
-0.09011
-0.09011
-0.08765
-0.08519
-0.08273
-0.08028
-0.07209
-0.05243
-0.02212
0.01229
0.05243
0.10239
0.16547
0.24493
0.33995
0.41040
0.39729
0.29244
0.12533
-0.06963
-0.25230
-0.39975
-0.50460
-0.57013
-0.60208
-0.60044
-0.56276
-0.49313
-0.40057
-0.30309
-0.21544
-0.14991
-0.10813
-0.07782
-0.05980
-0.04997
-0.04260
-0.03768
-0.03277
-0.03031
-0.03031
-0.03031
-0.02785
-0.02539
-0.02294
-0.01966
-0.01720
-0.01229
-0.00983
-0.00983
-0.00983
-0.00737
-0.00491
-0.00737
-0.00983
-0.00983
-0.00983
-0.00737
-0.00491
-0.00246
0.00000
0.00000
0.00246
0.00491
0.00491
0.00491
0.00737
0.00983
0.00983
0.00983
0.00983
0.00983
0.01229
0.01474
0.01229
0.00983
0.00737
0.00737
0.00983
0.00983
0.00983
0.01229
0.01474
0.01474
0.01474
0.01474
0.01720
0.01966
0.01966
0.02212
0.02539
0.02539
0.02539
0.02539
0.02539
0.02539
0.02539
0.02539
0.02539
0.02539
0.02539
0.02539
0.02539
0.02539
0.02703
0.03031
0.03031
0.03031
0.03031
0.03031
0.03195
0.03522
0.03522
0.03522
0.03522
0.03522
0.03522
0.03522
0.03768
0.04014
0.04014
0.04014
0.04014
0.04014
0.04014
0.04014
0.04014
0.04014
0.04014
0.04014
0.04014
0.03768
0.03522
0.03522
0.03522
0.03522
0.03522
0.03522
0.03522
0.03522
0.03522
0.03522
0.03686
0.04014
0.04014
0.04014
0.04014
0.03768
0.03522
0.03277
0.03031
0.02785
0.02294
0.01802
0.01474
0.01474
0.01474
0.01311
0.00819
0.00246
-0.00246
-0.00491
-0.00491
-0.00737
-0.00983
-0.01229
-0.01474
-0.01474
-0.01474
-0.01720
-0.01966
-0.01966
-0.01966
-0.01966
-0.01966
-0.01966
-0.02212
-0.02539
-0.02539
-0.02539
-0.02539
-0.02539
-0.02539
-0.02539
-0.02703
-0.03031
-0.03031
-0.03031
-0.03195
-0.03522
-0.03686
-0.04014
-0.04014
-0.04014
-0.04178
-0.04751
-0.04997
-0.04997
-0.05243
-0.05488
-0.05488
-0.05488
-0.05488
-0.05488
-0.05488
-0.05488
-0.05325
-0.05243
-0.05488
-0.05488
-0.05488
-0.05488
-0.05488
-0.05734
-0.05980
-0.05980
-0.05980
-0.05980
-0.05816
-0.05488
-0.05325
-0.04587
-0.03604
-0.02621
-0.01802
-0.01065
-0.00082
0.01147
0.02867
0.04587
0.05898
0.06471
0.06307
0.05816
0.05079
0.04260
0.03359
0.02048
0.00655
-0.01311
-0.03113
-0.04587
-0.05734
-0.06635
-0.07700
-0.08192
-0.08683
-0.09011
-0.09011
-0.09011
-0.09011
-0.09011
-0.09175
-0.09502
-0.09502
-0.09502
-0.09502
-0.09502
-0.09502
-0.09502
-0.09338
-0.09011
-0.09011
-0.09011
-0.09011
-0.09011
-0.09011
-0.09011
-0.09011
-0.09011
-0.09011
-0.09011
-0.09011
-0.08765
-0.08519
-0.08273
-0.07209
-0.04833
-0.01393
0.02212
0.05816
0.10895
0.17448
0.25721
0.33667
0.35797
0.28916
0.13598
-0.05406
-0.23428
-0.38173
-0.48658
-0.55293
-0.58979
-0.60126
-0.57750
-0.51934
-0.42924
-0.32602
-0.23182
-0.15892
-0.11141
-0.08192
-0.06389
-0.05079
-0.04342
-0.03768
-0.03277
-0.03031
-0.03031
-0.03031
-0.02785
-0.02294
-0.01966
-0.01802
-0.01474
-0.01474
-0.01311
-0.00983
-0.01229
-0.01474
-0.01311
-0.00819
-0.00491
-0.00491
-0.00491
-0.00491
-0.00491
-0.00491
-0.00491
-0.00491
-0.00491
-0.00328
0.00000
0.00164
0.00491
0.00491
0.00491
0.00655
0.00983
0.00819
0.00491
0.00491
0.00491
0.00655
0.00983
0.01147
0.01474
0.01474
0.01474
0.01474
0.01474
0.01474
0.01474
0.01474
0.01474
0.01474
0.01474
0.01474
0.01474
0.01474
0.01474
0.01474
0.01474
0.01474
0.01474
0.01474
0.01720
0.01966
0.01966
0.01966
0.01966
0.02212
0.02539
0.02294
0.01966
0.02212
0.02294
0.01966
0.02212
0.02539
0.02703
0.03031
0.03031
0.03031
0.03031
0.03031
0.03031
0.03031
0.03031
0.02785
0.02539
0.02539
0.02539
0.02294
0.01966
0.02212
0.02539
0.02539
0.02703
0.03031
0.03031
0.03031
0.02867
0.02539
0.02703
0.02867
0.02539
0.02539
0.02703
0.03031
0.03031
0.03031
0.03031
0.03031
0.02867
0.02539
0.02294
0.01966
0.01802
0.01474
0.01311
0.00819
0.00328
0.00000
-0.00164
-0.00655
-0.01147
-0.01638
-0.01966
-0.02130
-0.02539
-0.02703
-0.03031
-0.03031
-0.03031
-0.03031
-0.03031
-0.03031
-0.03031
-0.03031
-0.03031
-0.02867
-0.02539
-0.02539
-0.02539
-0.02703
-0.02867
-0.02539
-0.02539
-0.02539
-0.02703
-0.03031
-0.03031
-0.03195
-0.03522
-0.03522
-0.03522
-0.03522
-0.03522
-0.03522
-0.03522
-0.03686
-0.04014
-0.04014
-0.04178
-0.04669
-0.04997
-0.05161
-0.05488
-0.05488
-0.05488
-0.05488
-0.05488
-0.05488
-0.05652
-0.06144
-0.06471
-0.06471
-0.06471
-0.06635
-0.06963
-0.06963
-0.06963
-0.07127
-0.07372
-0.06963
-0.06881
-0.06471
-0.06471
-0.06635
-0.06963
-0.06881
-0.06226
-0.05488
-0.05161
-0.04178
-0.03359
-0.02539
-0.01065
0.00491
0.01966
0.03440
0.04833
0.05325
0.04833
0.04342
0.03686
0.02867
0.02212
0.01065
-0.00573
-0.02621
-0.04423
-0.05980
-0.07290
-0.08028
-0.08110
-0.08683
-0.09338
-0.09994
-0.09994
-0.09994
-0.10158
-0.10485
-0.10485
-0.10485
-0.10321
-0.09994
-0.09994
-0.09994
-0.09994
-0.09994
-0.09994
-0.09994
-0.09994
-0.09994
-0.09994
-0.09994
-0.09994
-0.09994
-0.09994
-0.09994
-0.09994
-0.09994
-0.09830
-0.09338
-0.08847
-0.08192
-0.06963
-0.04669
-0.01393
0.02949
0.07946
0.13352
0.20725
0.30309
0.39074
0.41695
0.34241
0.17858
-0.02130
-0.21298
-0.37190
-0.48740
-0.55866
-0.60044
-0.61191
-0.58979
-0.52590
-0.43743
-0.33749
-0.24247
-0.16875
-0.11550
-0.08273
-0.06226
-0.05243
-0.04260
-0.03359
-0.03031
-0.03031
-0.03031
-0.03031
-0.02867
-0.02539
-0.02376
-0.01966
-0.01966
-0.01884
-0.01474
-0.01393
-0.00983
-0.00983
-0.00983
-0.00983
-0.00983
-0.00901
-0.00491
-0.00491
-0.00491
-0.00491
-0.00491
-0.00328
0.00000
0.00000
0.00000
0.00000
0.00000
0.00000
0.00000
0.00000
0.00000
0.00164
0.00491
0.00491
0.00491
0.00491
0.00491
0.00655
0.01147
0.01474
0.01474
0.01474
0.01474
0.01474
0.01474
0.01474
0.01474
0.01474
0.01474
0.01474
0.01474
0.01474
0.01474
0.01638
0.01966
0.01966
0.01966
0.01966
0.01966
0.02130
0.02376
0.01966
0.01966
0.01966
0.01966
0.01966
0.01966
0.01966
0.02130
0.02539
0.02539
0.02539
0.02539
0.02539
0.02621
0.03031
0.03031
0.02867
0.02539
0.02539
0.02539
0.02539
0.02539
0.02621
0.03031
0.03031
0.03031
0.03031
0.03031
0.03031
0.03031
0.03031
0.03031
0.02867
0.02539
0.02539
0.02539
0.02539
0.02621
0.03031
0.03031
0.03031
0.03031
0.03031
0.03031
0.03031
0.03031
0.02867
0.02376
0.01884
0.01474
0.01393
0.00983
0.00901
0.00410
0.00000
-0.00082
-0.00491
-0.00491
-0.00573
-0.01229
-0.01966
-0.02130
-0.02539
-0.02539
-0.02539
-0.02539
-0.02539
-0.02621
-0.03031
-0.03031
-0.03031
-0.03031
-0.03031
-0.03031
-0.03031
-0.03031
-0.03031
-0.03031
-0.03031
-0.03031
-0.03031
-0.03031
-0.03113
-0.03522
-0.03522
-0.03604
-0.04014
-0.04014
-0.04096
-0.04505
-0.04505
-0.04587
-0.05079
-0.05488
-0.05488
-0.05488
-0.05488
-0.05488
-0.05570
-0.05980
-0.05980
-0.05980
-0.05980
-0.05980
-0.05980
-0.05980
-0.05980
-0.06144
-0.06471
-0.06471
-0.06635
-0.06963
-0.06963
-0.06881
-0.06389
-0.05898
-0.05161
-0.03686
-0.02212
-0.00737
0.00737
0.01638
0.01966
0.02130
0.02539
0.02539
0.02621
0.02867
0.02294
0.01065
-0.00901
-0.02703
-0.03768
-0.05161
-0.06307
-0.07618
-0.08110
-0.08519
-0.08601
-0.09011
-0.09011
-0.09011
-0.09093
-0.09502
-0.09502
-0.09502
-0.09502
-0.09502
-0.09584
-0.09994
-0.09994
-0.09994
-0.09994
-0.09994
-0.09912
-0.09502
-0.09420
-0.09011
-0.09011
-0.09011
-0.09011
-0.09011
-0.09011
-0.09011
-0.08929
-0.08437
-0.07946
-0.07127
-0.05079
-0.02376
0.01229
0.05325
0.10076
0.16383
0.24247
0.32930
0.36452
0.31619
0.17038
-0.02376
-0.20888
-0.36698
-0.48412
-0.55784
-0.60044
-0.62338
-0.60536
-0.54556
-0.45709
-0.35142
-0.25066
-0.17038
-0.11878
-0.08601
-0.06226
-0.04833
-0.03850
-0.03031
-0.02949
-0.02376
-0.01966
-0.01884
-0.01474
-0.01393
-0.00983
-0.00983
-0.00901
-0.00491
-0.00491
-0.00491
-0.00491
-0.00410
0.00000
0.00000
0.00082
0.00491
0.00573
0.00983
0.00983
0.00983
0.00983
0.00901
0.00491
0.00491
0.00491
0.00491
0.00491
0.00491
0.00573
0.00983
0.00983
0.01065
0.01474
0.01474
0.01474
0.01474
0.01474
0.01474
0.01474
0.01474
0.01474
0.01474
0.01474
0.01474
0.01474
0.01474
0.01474
0.01474
0.01556
0.02048
0.02539
0.02539
0.02539
0.02539
0.02539
0.02539
0.02539
0.02457
0.01966
0.02048
0.02539
0.02539
0.02457
0.01966
0.01966
0.01966
0.02048
0.02539
0.02539
0.02539
0.02539
0.02539
0.03031
0.03031
0.03031
0.03031
0.03031
0.03031
0.03031
0.03031
0.03522
0.03522
0.03522
0.03522
0.03604
0.03932
0.03604
0.04014
0.04014
0.04014
0.04014
0.04014
0.04014
0.03932
0.03522
0.03522
0.03522
0.03522
0.03522
0.03522
0.03522
0.03440
0.03031
0.03031
0.03031
0.03031
0.02949
0.02539
0.02457
0.01966
0.01966
0.01474
0.01474
0.00901
0.00410
-0.00082
-0.00491
-0.00491
-0.00491
-0.00573
-0.01065
-0.01474
-0.01474
-0.01474
-0.01474
-0.01556
-0.01966
-0.01966
-0.01966
-0.01966
-0.01474
-0.01474
-0.01556
-0.01966
-0.01966
-0.01474
-0.01474
-0.01474
-0.01474
-0.01474
-0.00983
-0.01065
-0.01556
-0.01966
-0.01966
-0.01474
-0.01556
-0.02048
-0.02539
-0.02539
-0.02539
-0.03031
-0.03031
-0.03031
-0.03031
-0.03522
-0.04014
-0.04505
-0.04505
-0.04587
-0.04997
-0.04997
-0.04997
-0.04997
-0.04997
-0.05079
-0.05488
-0.05488
-0.05488
-0.05488
-0.05488
-0.05488
-0.05570
-0.05980
-0.06062
-0.06471
-0.06471
-0.06471
-0.05980
-0.05980
-0.05488
-0.05488
-0.05488
-0.05488
-0.05488
-0.05488
-0.05488
-0.04915
-0.03932
-0.02949
-0.02376
-0.01393
-0.00328
0.01147
0.02621
0.04096
0.05161
0.06471
0.06471
0.05980
0.05406
0.04423
0.03932
0.02867
0.01311
-0.00655
-0.02130
-0.03686
-0.05570
-0.06635
-0.08028
-0.08110
-0.09011
-0.09011
-0.09420
-0.09011
-0.09502
-0.09502
-0.09420
-0.09011
-0.09011
-0.09502
-0.09502
-0.09502
-0.09994
-0.09994
-0.09994
-0.09994
-0.09994
-0.09994
-0.09994
-0.09502
-0.09502
-0.09502
-0.09502
-0.09502
-0.09011
-0.08929
-0.08519
-0.08437
-0.08028
-0.07946
-0.07372
-0.05243
-0.01720
0.01884
0.06881
0.12533
0.20151
0.29735
0.39319
0.43169
0.37517
0.23100
0.02621
-0.17694
-0.34896
-0.47511
-0.54801
-0.59634
-0.61355
-0.59143
-0.53982
-0.45873
-0.35879
-0.25967
-0.18103
-0.12287
-0.09338
-0.06881
-0.05406
-0.03932
-0.03031
-0.02949
-0.02457
-0.01966
-0.01966
-0.01966
-0.01474
-0.01474
-0.01474
-0.01474
-0.00983
-0.00983
-0.00983
-0.00491
-0.00491
-0.00491
-0.00491
-0.00491
-0.00491
-0.00491
-0.00491
-0.00491
-0.00491
-0.00491
-0.00491
-0.00491
-0.00491
-0.00491
0.00000
0.00000
0.00000
0.00000
0.00000
0.00000
0.00000
0.00491
0.00491
0.00491
0.00491
0.00983
0.00983
0.00983
0.01474
0.01474
0.01474
0.01474
0.01474
0.01474
0.01474
0.01474
0.01474
0.01556
0.01966
0.01966
0.02048
0.02539
0.02539
0.02539
0.03031
0.03031
0.03031
0.03031
0.02949
0.02539
0.02539
0.02539
0.03031
0.03031
0.03522
0.03522
0.03522
0.03522
0.03522
0.03522
0.03522
0.03522
0.03522
0.03522
0.03522
0.03031
0.03031
0.03031
0.03031
0.03031
0.03522
0.04014
0.04014
0.04014
0.04014
0.04014
0.04014
0.04014
0.04014
0.04014
0.04014
0.03522
0.03522
0.03522
0.03522
0.03522
0.04014
0.04014
0.04014
0.04014
0.04014
0.04014
0.04014
0.04014
0.04014
0.04014
0.04014
0.04014
0.03522
0.03031
0.02539
0.02457
0.01966
0.01474
0.01474
0.01474
0.00983
0.00983
0.00491
0.00000
0.00000
-0.00491
-0.00491
-0.00491
-0.00491
-0.00491
-0.00491
-0.00491
-0.00491
-0.00983
-0.00983
-0.01474
-0.01474
-0.00983
-0.01474
-0.01474
-0.01966
-0.01966
-0.01966
-0.01966
-0.01966
-0.01966
-0.01966
-0.01966
-0.01966
-0.01966
-0.01966
-0.01966
-0.02539
-0.03031
-0.03031
-0.03031
-0.03031
-0.03031
-0.03522
-0.03522
-0.04014
-0.04014
-0.04505
-0.04505
-0.04505
-0.04997
-0.04997
-0.04997
-0.04997
-0.05488
-0.05488
-0.05488
-0.05488
-0.05488
-0.05980
-0.05980
-0.05980
-0.05980
-0.05488
-0.04997
-0.03031
-0.01556
0.00000
0.01474
0.02949
0.03522
0.03522
0.03522
0.03522
0.04014
0.04014
0.04014
0.02048
0.00000
-0.01474
-0.02949
-0.04014
-0.05488
-0.05980
-0.06963
-0.07454
-0.08028
-0.08028
-0.08028
-0.08028
-0.08028
-0.08028
-0.08028
-0.08519
-0.08519
-0.08519
-0.08519
-0.08519
-0.08519
-0.08519
-0.08028
-0.08028
-0.08028
-0.08028
-0.08028
-0.08028
-0.08028
-0.08028
-0.08028
-0.08028
-0.08028
-0.08028
-0.08028
-0.08028
-0.08028
-0.07536
-0.06062
-0.03604
-0.00573
0.03850
0.07864
0.13352
0.20725
0.30145
0.37272
0.37026
0.27851
0.11141
-0.09256
-0.27360
-0.41941
-0.51607
-0.57259
-0.60372
-0.60536
-0.56194
-0.49313
-0.40876
-0.30882
-0.21380
-0.14745
-0.10158
-0.07127
-0.05570
-0.04096
-0.03522
-0.03031
-0.03031
-0.03031
-0.02539
-0.02539
-0.02048
-0.01966
-0.01556
-0.01474
-0.01474
-0.01474
-0.01474
-0.01065
-0.00983
-0.00983
-0.00491
-0.00491
-0.00491
-0.00491
-0.00491
0.00000
0.00000
-0.00491
-0.00491
0.00000
0.00491
0.00491
0.00983
0.00983
0.00491
0.00491
0.00000
0.00000
0.00000
0.00000
0.00000
0.00000
0.00000
0.00491
0.00491
0.00983
0.00983
0.00983
0.00983
0.01474
0.01065
0.00983
0.00983
0.01474
0.01474
0.01474
0.01474
0.01474
0.01474
0.01474
0.01474
0.01474
0.01966
0.01966
0.02457
0.02048
0.01966
0.01966
0.02457
0.02539
0.02539
0.02539
0.02539
0.02048
0.01966
0.01966
0.01556
0.01474
0.01474
0.01474
0.01474
0.01966
0.01966
0.01966
0.01966
0.02457
0.02539
0.02539
0.02539
0.02048
0.01966
0.01966
0.01966
0.01966
0.01966
0.01966
0.01556
0.01474
0.01966
0.01966
0.01556
0.01474
0.01966
0.01966
0.01966
0.01966
0.01966
0.01966
0.01966
0.01966
0.01556
0.01474
0.01474
0.01474
0.01474
0.01065
0.00983
0.00983
0.00573
0.00082
-0.00491
-0.00491
-0.00983
-0.01474
-0.01474
-0.01966
-0.01966
-0.01966
-0.02457
-0.02949
-0.03031
-0.03031
-0.03031
-0.03031
-0.03031
-0.03031
-0.03031
-0.03031
-0.03031
-0.03031
-0.03031
-0.03031
-0.03031
-0.03031
-0.03031
-0.03031
-0.03031
-0.02539
-0.02048
-0.01966
-0.02457
-0.02539
-0.02539
-0.02539
-0.02949
-0.03031
-0.03031
-0.03440
-0.03522
-0.03522
-0.03932
-0.04014
-0.04423
-0.04505
-0.04505
-0.04505
-0.04505
-0.04505
-0.04505
-0.04505
-0.04505
-0.04505
-0.04915
-0.04997
-0.05406
-0.05488
-0.05488
-0.05488
-0.05488
-0.05488
-0.05488
-0.05488
-0.05488
-0.05488
-0.05488
-0.05488
-0.05488
-0.05488
-0.05488
-0.05488
-0.05488
-0.05488
-0.05488
-0.05488
-0.04587
-0.03604
-0.03031
-0.02130
-0.01147
-0.00082
0.01311
0.02785
0.04342
0.05816
0.06471
0.06471
0.06471
0.05652
0.05079
0.04096
0.03113
0.01720
0.00164
-0.01720
-0.03277
-0.04833
-0.05898
-0.06471
-0.07372
-0.07946
-0.08028
-0.08847
-0.09420
-0.09502
-0.09502
-0.09502
-0.09093
-0.09420
-0.09502
-0.09502
-0.09502
-0.09502
-0.09502
-0.09502
-0.09502
-0.09502
-0.09093
-0.09011
-0.08601
-0.08519
-0.08519
-0.08519
-0.08110
-0.08028
-0.08437
-0.08519
-0.08519
-0.08110
-0.08028
-0.07127
-0.05243
-0.01556
0.02457
0.07290
0.12697
0.19496
0.27769
0.36698
0.42678
0.39647
0.27032
0.07045
-0.13926
-0.31947
-0.45627
-0.54310
-0.58897
-0.61191
-0.60208
-0.55784
-0.47757
-0.38009
-0.27606
-0.18759
-0.12861
-0.09011
-0.06799
-0.05243
-0.04178
-0.03113
-0.03031
-0.02539
-0.02048
-0.01966
-0.01966
-0.01966
-0.01966
-0.01966
-0.01966
-0.01966
-0.01556
-0.01474
-0.01065
-0.00983
-0.00573
-0.00491
-0.00491
-0.00491
-0.00491
-0.00491
-0.00491
-0.00491
-0.00082
0.00000
0.00410
0.00491
0.00491
0.00491
0.00491
0.00491
0.00901
0.01393
0.01474
0.01474
0.01474
0.01474
0.01474
0.01065
0.01393
0.01474
0.01474
0.01474
0.01474
0.01474
0.01884
0.01966
0.01966
0.01966
0.02376
0.02539
0.02539
0.02048
0.01966
0.01966
0.01966
0.02376
0.02539
0.02539
0.02539
0.02949
0.03440
0.03522
0.03522
0.03932
0.04014
0.04014
0.04014
0.04014
0.04014
0.04014
0.04014
0.04014
0.04014
0.04014
0.04014
0.04014
0.04014
0.04014
0.04014
0.04014
0.04014
0.03604
0.03522
0.03522
0.03113
0.03031
0.03440
0.03522
0.03522
0.03932
0.04014
0.04014
0.04014
0.04014
0.04014
0.04014
0.04014
0.04014
0.04014
0.04014
0.04014
0.04014
0.04014
0.04423
0.04505
0.04096
0.04014
0.04014
0.04014
0.04014
0.03604
0.03522
0.03522
0.03113
0.03031
0.03031
0.02621
0.02130
0.01638
0.01474
0.01474
0.01474
0.01065
0.00573
0.00082
0.00000
0.00000
0.00000
0.00000
-0.00410
-0.00491
-0.00491
-0.00491
-0.00901
-0.00983
-0.01393
-0.01884
-0.01966
-0.01966
-0.01966
-0.01966
-0.01966
-0.02376
-0.02539
-0.02867
-0.03031
-0.03031
-0.03031
-0.03031
-0.03031
-0.03359
-0.03522
-0.03932
-0.04014
-0.04014
-0.04014
-0.04014
-0.04423
-0.04505
-0.04505
-0.04915
-0.04997
-0.04997
-0.05406
-0.05488
-0.05488
-0.05488
-0.05488
-0.05488
-0.05488
-0.05488
-0.05488
-0.05488
-0.05488
-0.05488
-0.05488
-0.05488
-0.05488
-0.05488
-0.05898
-0.05980
-0.05652
-0.05488
-0.04751
-0.04096
-0.03195
-0.02621
-0.01311
-0.00573
0.00246
0.01638
0.03195
0.04669
0.05734
0.06389
0.06471
0.05734
0.04751
0.03768
0.02703
0.01311
-0.00164
-0.02048
-0.03686
-0.05161
-0.06226
-0.07290
-0.07864
-0.08355
-0.08519
-0.08519
-0.08847
-0.09011
-0.09420
-0.09502
-0.09093
-0.09420
-0.09502
-0.09502
-0.09502
-0.09502
-0.09093
-0.09011
-0.09011
-0.09011
-0.09011
-0.09338
-0.09093
-0.09011
-0.09011
-0.09011
-0.09011
-0.09011
-0.09011
-0.09011
-0.08601
-0.08110
-0.08028
-0.07618
-0.06389
-0.04096
-0.00901
0.03031
0.07372
0.13025
0.20479
0.29571
0.38009
0.40712
0.34650
0.19414
-0.00655
-0.20151
-0.36534
-0.48658
-0.56358
-0.60617
-0.61519
-0.58897
-0.52835
-0.44316
-0.34241
-0.24493
-0.16793
-0.11304
-0.08110
-0.05980
-0.04423
-0.03604
-0.03113
-0.03031
-0.03031
-0.03031
-0.02621
-0.02539
-0.02130
-0.01966
-0.01638
-0.01474
-0.01474
-0.01147
-0.00983
-0.00983
-0.00655
-0.00491
-0.00491
-0.00491
-0.00491
-0.00491
-0.00164
0.00000
0.00000
0.00328
0.00491
0.00901
0.00983
0.00983
0.00655
0.00164
0.00000
0.00000
0.00328
0.00491
0.00491
0.00901
0.00983
0.00983
0.00983
0.00983
0.00983
0.01393
0.01474
0.01474
0.01474
0.01474
0.01474
0.01474
0.01884
0.01966
0.01966
0.01966
0.01638
0.01474
0.01884
0.01966
0.02376
0.02867
0.03031
0.03031
0.03031
0.02621
0.02539
0.02130
0.01966
0.02376
0.02867
0.03031
0.03031
0.03031
0.03031
0.03031
0.03031
0.03031
0.03031
0.03031
0.03031
0.03031
0.03031
0.02621
0.02539
0.02867
0.03031
0.03031
0.03031
0.03359
0.03113
0.03031
0.03031
0.03031
0.03031
0.03031
0.03031
0.03031
0.02621
0.02539
0.02539
0.02539
0.02539
0.02539
0.02539
0.02539
0.02130
0.01966
0.01966
0.01966
0.01966
0.01966
0.01966
0.01966
0.01966
0.01638
0.01474
0.01474
0.01147
0.00655
0.00164
-0.00328
-0.00491
-0.00819
-0.00983
-0.00983
-0.01311
-0.01474
-0.01474
-0.01884
-0.01966
-0.01966
-0.02376
-0.02539
-0.02867
-0.03031
-0.03031
-0.03031
-0.03031
-0.02621
-0.02539
-0.02539
-0.02539
-0.02130
-0.01966
-0.01638
-0.01474
-0.01474
-0.01474
-0.01474
-0.01474
-0.01474
-0.01474
-0.01802
-0.02376
-0.02867
-0.03031
-0.03031
-0.03359
-0.03522
-0.03522
-0.03850
-0.04342
-0.04505
-0.04505
-0.04833
-0.04997
-0.04997
-0.05325
-0.05488
-0.05488
-0.05488
-0.05488
-0.05488
-0.05488
-0.05488
-0.05488
-0.05488
-0.05488
-0.05488
-0.05488
-0.05816
-0.06307
-0.06471
-0.06471
-0.06471
-0.06144
-0.05652
-0.04833
-0.04178
-0.03686
-0.02867
-0.01474
-0.00328
0.00983
0.02457
0.04014
0.05488
0.06307
0.06144
0.05652
0.04833
0.04178
0.03031
0.01474
0.00000
-0.01474
-0.03277
-0.04997
-0.06144
-0.07454
-0.08355
-0.08847
-0.09338
-0.09830
-0.09994
-0.09994
-0.09994
-0.09994
-0.09994
-0.09994
-0.09994
-0.09994
-0.09994
-0.09994
-0.09994
-0.09994
-0.09994
-0.09994
-0.09994
-0.09994
-0.09994
-0.09666
-0.09502
-0.09830
-0.09994
-0.09994
-0.09994
-0.09994
-0.09994
-0.09994
-0.09666
-0.08847
-0.07864
-0.06226
-0.03277
0.00573
0.04915
0.10321
0.16957
0.25885
0.35551
0.41203
0.37681
0.24165
0.05243
-0.14417
-0.32357
-0.46118
-0.54965
-0.60044
-0.62174
-0.61191
-0.56686
-0.48822
-0.38500
-0.28179
-0.20069
-0.14335
-0.10321
-0.07454
-0.05898
-0.04587
-0.03686
-0.03522
-0.03522
-0.03522
-0.03195
-0.03031
-0.03031
-0.03031
-0.03031
-0.03031
-0.02703
-0.02539
-0.02212
-0.01720
-0.01474
-0.01474
-0.01147
-0.00983
-0.00983
-0.00983
-0.00983
-0.00983
-0.00655
-0.00491
-0.00491
-0.00491
-0.00491
-0.00164
0.00000
0.00328
0.00491
0.00491
0.00491
0.00491
0.00491
0.00491
0.00491
0.00819
0.00983
0.00983
0.01311
0.01229
0.01311
0.01474
0.01474
0.01474
0.01474
0.01474
0.01474
0.01474
0.01474
0.01802
0.01966
0.01966
0.02294
0.02539
0.02539
0.02539
0.02539
0.02785
0.03031
0.03277
0.03522
0.03768
0.04014
0.04014
0.04014
0.04014
0.04014
0.04014
0.04014
0.04014
0.04014
0.04342
0.04505
0.04505
0.04505
0.04505
0.04505
0.04505
0.04505
0.04178
0.04014
0.04014
0.04014
0.04014
0.04014
0.04014
0.04260
0.04505
0.04178
0.04014
0.04260
0.04833
0.04997
0.04997
0.04997
0.04997
0.04997
0.05325
0.05488
0.05488
0.05243
0.04997
0.04997
0.04997
0.04997
0.04997
0.04997
0.04997
0.04997
0.04997
0.04997
0.04669
0.04505
0.04178
0.04014
0.03686
0.03522
0.03195
0.02703
0.02212
0.01720
0.01474
0.01474
0.01229
0.00737
0.00246
-0.00328
-0.00491
-0.00491
-0.00491
-0.00491
-0.00819
-0.01311
-0.01229
-0.00983
-0.01311
-0.01474
-0.01474
-0.01802
-0.01966
-0.01966
-0.01966
-0.01966
-0.02294
-0.02539
-0.02539
-0.02539
-0.02539
-0.02539
-0.02539
-0.02539
-0.02539
-0.02785
-0.03031
-0.03604
-0.04014
-0.03686
-0.03522
-0.03768
-0.04014
-0.04260
-0.04505
-0.04505
-0.04505
-0.04505
-0.04505
-0.04505
-0.04751
-0.05243
-0.05488
-0.05488
-0.05488
-0.05488
-0.05488
-0.05488
-0.05488
-0.05488
-0.05488
-0.05488
-0.05488
-0.04915
-0.03932
-0.02949
-0.01966
-0.00983
-0.00246
0.00819
0.02048
0.03359
0.04833
0.06062
0.06471
0.06226
0.05734
0.04915
0.03932
0.02703
0.01720
0.00410
-0.01311
-0.02867
-0.04342
-0.05570
-0.06799
-0.07782
-0.08273
-0.08765
-0.09011
-0.09011
-0.09011
-0.09011
-0.09011
-0.09256
-0.09502
-0.09502
-0.09502
-0.09256
-0.09011
-0.09011
-0.09011
-0.09256
-0.09502
-0.09502
-0.09502
-0.09502
-0.09502
-0.09502
-0.09502
-0.09502
-0.09256
-0.09011
-0.09011
-0.08765
-0.08519
-0.08519
-0.08192
-0.07209
-0.05161
-0.02130
0.01884
0.06144
0.10977
0.17202
0.25558
0.34814
0.39811
0.35469
0.21708
0.02376
-0.17612
-0.34486
-0.47101
-0.55211
-0.59880
-0.61764
-0.60699
-0.55784
-0.47511
-0.37190
-0.26704
-0.18349
-0.12369
-0.08683
-0.06471
-0.04997
-0.04014
-0.03277
-0.03031
-0.03031
-0.02703
-0.02539
-0.02539
-0.02212
-0.01966
-0.01720
-0.01474
-0.01474
-0.01474
-0.01229
-0.00983
-0.00983
-0.00737
-0.00491
-0.00491
-0.00491
-0.00491
-0.00246
0.00000
0.00000
0.00000
0.00000
0.00246
0.00491
0.00246
0.00000
0.00000
0.00000
0.00000
0.00246
0.00491
0.00737
0.01229
0.01474
0.01474
0.01474
0.01474
0.01474
0.01474
0.01474
0.01474
0.01474
0.01474
0.01474
0.01474
0.01474
0.01474
0.01720
0.01966
0.01966
0.01966
0.01966
0.01966
0.01966
0.02212
0.02539
0.02539
0.02539
0.02785
0.03031
0.03031
0.02785
0.02539
0.02539
0.02539
0.02785
0.03031
0.03277
0.03522
0.03522
0.03522
0.03522
0.03522
0.03768
0.04014
0.04014
0.04014
0.04014
0.03768
0.03522
0.03768
0.03768
0.03522
0.03277
0.03031
0.03031
0.03031
0.03031
0.03031
0.03031
0.03031
0.02785
0.02539
0.02539
0.02539
0.02294
0.01966
0.02212
0.02539
0.02294
0.01966
0.02212
0.02539
0.02539
0.02539
0.02539
0.02539
0.02539
0.02294
0.01720
0.01474
0.01474
0.01229
0.00737
0.00246
-0.00246
-0.00491
-0.00491
-0.00737
-0.00983
-0.01229
-0.01474
-0.01474
-0.01720
-0.01966
-0.02212
-0.02294
-0.02212
-0.02539
-0.02539
-0.02539
-0.02539
-0.02539
-0.02294
-0.01966
-0.01966
-0.01966
-0.01966
-0.01966
-0.01966
-0.01966
-0.01966
-0.01966
-0.01966
-0.01802
-0.01474
-0.01720
-0.01966
-0.01966
-0.01966
-0.02212
-0.02539
-0.02539
-0.02539
-0.02539
-0.02703
-0.03031
-0.03031
-0.03195
-0.03522
-0.03768
-0.04014
-0.04260
-0.04751
-0.04997
-0.05243
-0.05488
-0.05488
-0.05488
-0.05488
-0.05488
-0.05243
-0.04997
-0.04997
-0.04997
-0.04997
-0.04751
-0.04260
-0.03768
-0.03277
-0.02785
-0.02048
-0.01065
-0.00082
0.00983
0.02376
0.03932
0.05406
0.06717
0.07209
0.07536
0.07290
0.06799
0.06062
0.04833
0.03359
0.01802
0.00328
-0.01393
-0.02949
-0.04178
-0.05406
-0.06471
-0.07454
-0.08028
-0.08192
-0.08519
-0.08519
-0.08519
-0.08519
-0.08519
-0.08519
-0.08519
-0.08683
-0.09256
-0.09502
-0.09502
-0.09256
-0.09011
-0.09011
-0.09011
-0.09011
-0.09011
-0.09011
-0.09011
-0.09011
-0.08765
-0.08519
-0.08519
-0.08519
-0.08519
-0.08273
-0.08028
-0.07782
-0.07045
-0.05652
-0.03031
0.00737
0.04915
0.09830
0.15974
0.24083
0.33585
0.41122
0.41859
0.32602
0.15318
-0.05406
-0.25148
-0.40794
-0.51361
-0.57668
-0.60617
-0.60617
-0.57423
-0.51361
-0.42760
-0.32602
-0.22936
-0.15728
-0.10813
-0.07700
-0.06062
-0.04833
-0.03768
-0.03277
-0.03031
-0.03031
-0.02785
-0.02539
-0.02539
-0.02539
-0.02539
-0.02539
-0.02539
-0.02294
-0.01966
-0.01802
-0.01474
-0.01474
-0.01311
-0.00819
-0.00491
-0.00491
-0.00491
-0.00491
-0.00491
-0.00328
0.00000
0.00164
0.00491
0.00328
0.00000
0.00164
0.00491
0.00491
0.00737
0.00983
0.00983
0.00983
0.00983
0.01229
0.01474
0.01474
0.01720
0.01966
0.01966
0.01966
0.01966
0.01966
0.01966
0.01966
0.01966
0.01966
0.01966
0.01966
0.01966
0.01966
0.02212
0.02539
0.02539
0.02539
0.02703
0.03031
0.03031
0.03031
0.03195
0.03522
0.03522
0.03522
0.03522
0.03522
0.03522
0.03522
0.03522
0.03522
0.03522
0.03686
0.04014
0.04014
0.04014
0.04014
0.04014
0.04014
0.04014
0.04014
0.04014
0.04014
0.04014
0.04014
0.04014
0.04014
0.04014
0.04014
0.04014
0.04014
0.04014
0.04014
0.04014
0.04014
0.04178
0.04505
0.04505
0.04505
0.04505
0.04505
0.04505
0.04505
0.04342
0.04014
0.04014
0.04178
0.04505
0.04505
0.04505
0.04342
0.04014
0.04014
0.03850
0.03277
0.02785
0.02294
0.01966
0.01802
0.01474
0.01474
0.01311
0.00819
0.00491
0.00328
-0.00164
-0.00491
-0.00655
-0.00983
-0.00983
-0.01147
-0.01474
-0.01474
-0.01474
-0.01720
-0.02212
-0.02539
-0.02294
-0.01966
-0.01966
-0.02212
-0.02539
-0.02539
-0.02703
-0.03031
-0.03031
-0.03031
-0.03031
-0.03031
-0.03031
-0.03195
-0.03522
-0.03686
-0.04014
-0.04178
-0.04505
-0.04505
-0.04669
-0.04997
-0.04997
-0.05161
-0.05488
-0.05488
-0.05488
-0.05488
-0.05488
-0.05488
-0.05488
-0.05488
-0.05488
-0.05488
-0.05488
-0.05652
-0.05816
-0.05488
-0.05488
-0.04997
-0.03686
-0.02294
-0.00491
0.00983
0.02376
0.03031
0.03031
0.03031
0.03031
0.03195
0.03522
0.03359
0.02457
0.00819
-0.00983
-0.02539
-0.04014
-0.05325
-0.06471
-0.07700
-0.08028
-0.08192
-0.08683
-0.09011
-0.09011
-0.09175
-0.09502
-0.09502
-0.09338
-0.09011
-0.09011
-0.09011
-0.09011
-0.09011
-0.09011
-0.09011
-0.09011
-0.09011
-0.09011
-0.09011
-0.08847
-0.08519
-0.08355
-0.08028
-0.08028
-0.08028
-0.08028
-0.08028
-0.08028
-0.07864
-0.07372
-0.06471
-0.04505
-0.01229
0.02949
0.07618
0.13270
0.20725
0.29735
0.38091
0.40220
0.32848
0.16875
-0.02130
-0.20807
-0.37353
-0.49231
-0.56604
-0.60781
-0.62174
-0.59880
-0.53818
-0.44808
-0.34814
-0.25312
-0.17612
-0.12205
-0.08683
-0.06553
-0.05161
-0.04342
-0.03850
-0.03359
-0.03031
-0.03031
-0.02867
-0.02376
-0.01966
-0.01966
-0.01966
-0.01966
-0.01966
-0.01966
-0.01966
-0.01966
-0.01884
-0.01474
-0.01311
-0.00983
-0.00983
-0.00983
-0.00983
-0.00983
-0.00819
-0.00491
-0.00491
-0.00491
-0.00491
-0.00491
-0.00491
-0.00491
-0.00491
-0.00491
-0.00491
-0.00328
0.00000
0.00164
0.00491
0.00491
0.00655
0.00983
0.00819
0.00491
0.00491
0.00491
0.00491
0.00328
0.00000
0.00000
0.00000
0.00000
0.00164
0.00655
0.00983
0.00983
0.00983
0.01147
0.01474
0.01474
0.01474
0.01474
0.01474
0.01474
0.01474
0.01474
0.01474
0.01474
0.01474
0.01474
0.01638
0.01966
0.02130
0.02539
0.02376
0.01966
0.01966
0.02130
0.02539
0.02376
0.01966
0.02130
0.02539
0.02376
0.01966
0.01966
0.01966
0.01966
0.02130
0.02539
0.02539
0.02376
0.01966
0.02130
0.02539
0.02376
0.01966
0.01966
0.01884
0.01474
0.01474
0.01474
0.01638
0.01884
0.01474
0.01474
0.01474
0.01474
0.01393
0.00983
0.00983
0.00983
0.00901
0.00491
0.00491
0.00328
-0.00164
-0.00491
-0.00491
-0.00655
-0.00983
-0.01147
-0.01474
-0.01638
-0.02130
-0.02539
-0.02376
-0.01966
-0.01966
-0.02130
-0.02621
-0.03031
-0.03031
-0.03031
-0.03031
-0.03031
-0.03031
-0.03031
-0.03031
-0.03031
-0.03031
-0.03031
-0.03031
-0.03031
-0.03031
-0.03031
-0.03031
-0.03031
-0.03031
-0.03031
-0.03031
-0.03031
-0.03031
-0.03113
-0.03522
-0.03604
-0.04096
-0.04505
-0.04587
-0.04997
-0.04997
-0.04997
-0.04997
-0.04997
-0.04997
-0.04915
-0.04505
-0.04505
-0.04505
-0.04587
-0.05161
-0.05488
-0.05488
-0.05488
-0.05652
-0.05980
-0.05898
-0.05488
-0.05488
-0.05488
-0.05488
-0.05488
-0.05488
-0.05652
-0.05980
-0.05898
-0.05488
-0.05243
-0.04178
-0.03031
-0.02785
-0.01802
-0.00737
0.00491
0.02457
0.04342
0.05734
0.06471
0.06389
0.05734
0.04751
0.03850
0.03359
0.02621
0.01147
-0.00491
-0.02457
-0.04342
-0.05816
-0.07209
-0.08192
-0.09256
-0.09994
-0.10076
-0.10403
-0.09994
-0.09994
-0.09912
-0.09584
-0.09994
-0.09994
-0.09994
-0.09994
-0.09994
-0.09994
-0.09994
-0.09994
-0.09994
-0.09994
-0.09994
-0.09994
-0.09912
-0.09420
-0.09011
-0.09011
-0.09011
-0.09093
-0.09502
-0.09420
-0.08929
-0.08355
-0.08028
-0.07454
-0.04915
-0.02130
0.01884
0.06062
0.11386
0.18349
0.27032
0.36043
0.40958
0.36207
0.21708
0.01556
-0.18841
-0.35797
-0.47839
-0.55703
-0.60536
-0.62256
-0.60536
-0.55293
-0.46938
-0.36780
-0.26623
-0.18267
-0.12779
-0.09502
-0.07209
-0.05898
-0.05406
-0.04915
-0.04505
-0.04423
-0.04014
-0.03932
-0.03522
-0.03359
-0.03031
-0.03031
-0.03031
-0.03031
-0.03031
-0.03031
-0.02867
-0.02376
-0.01884
-0.01474
-0.01393
-0.01065
-0.01393
-0.00901
-0.00491
-0.00491
-0.00491
-0.00410
-0.00082
-0.00491
-0.00491
-0.00491
-0.00410
0.00082
0.00491
0.00410
0.00000
0.00082
0.00491
0.00491
0.00491
0.00491
0.00491
0.00491
0.00410
0.00082
0.00491
0.00573
0.01065
0.01474
0.01393
0.00983
0.00901
0.00491
0.00491
0.00573
0.01065
0.01474
0.01474
0.01474
0.01474
0.01474
0.01474
0.01474
0.01474
0.01474
0.01474
0.01474
0.01474
0.01474
0.01556
0.01966
0.02130
0.02539
0.02539
0.02539
0.02539
0.02539
0.02539
0.02621
0.03031
0.02949
0.02539
0.02621
0.03031
0.03031
0.02949
0.02539
0.02539
0.02539
0.02621
0.03031
0.03031
0.03031
0.03031
0.03031
0.03031
0.03031
0.03031
0.03031
0.03031
0.03031
0.03031
0.03031
0.03031
0.03031
0.03113
0.03604
0.04014
0.04014
0.04014
0.04014
0.03932
0.03440
0.02949
0.02539
0.02539
0.02457
0.01884
0.01474
0.01474
0.01393
0.00983
0.00901
0.00410
0.00000
-0.00082
-0.00491
-0.00491
-0.00491
-0.00491
-0.00573
-0.01065
-0.01474
-0.01556
-0.01966
-0.02048
-0.02539
-0.02539
-0.02539
-0.02539
-0.02539
-0.02539
-0.02539
-0.02539
-0.02539
-0.03031
-0.03031
-0.03031
-0.03031
-0.03031
-0.03031
-0.03031
-0.03031
-0.03113
-0.03522
-0.03604
-0.04096
-0.04587
-0.05079
-0.05488
-0.05488
-0.05488
-0.05488
-0.05488
-0.05488
-0.05488
-0.05488
-0.05570
-0.05980
-0.05980
-0.05980
-0.05980
-0.05980
-0.05980
-0.06062
-0.06471
-0.06471
-0.06471
-0.06471
-0.06471
-0.06471
-0.06471
-0.06471
-0.05898
-0.04833
-0.03850
-0.02949
-0.02376
-0.01393
-0.00328
0.01229
0.02703
0.04096
0.05161
0.05980
0.05898
0.04915
0.04423
0.03850
0.02867
0.01884
0.00819
-0.00737
-0.02703
-0.04178
-0.05652
-0.07127
-0.08110
-0.09093
-0.09584
-0.09994
-0.09994
-0.09994
-0.09994
-0.09994
-0.09994
-0.09994
-0.09994
-0.09994
-0.09994
-0.09994
-0.09994
-0.09994
-0.09994
-0.09994
-0.09994
-0.09994
-0.09994
-0.09994
-0.09994
-0.09994
-0.09994
-0.09994
-0.09912
-0.09502
-0.09420
-0.09011
-0.08929
-0.08437
-0.07864
-0.06226
-0.03604
-0.00082
0.04014
0.09175
0.15892
0.24083
0.33749
0.39893
0.37845
0.25967
0.06799
-0.13516
-0.32029
-0.46036
-0.55047
-0.59798
-0.62502
-0.62174
-0.58733
-0.50951
-0.40876
-0.30063
-0.21298
-0.14581
-0.10731
-0.07864
-0.06389
-0.05406
-0.04423
-0.03932
-0.03522
-0.03522
-0.03440
-0.03031
-0.03031
-0.03031
-0.02949
-0.02539
-0.02457
-0.01966
-0.01966
-0.01966
-0.01966
-0.01966
-0.01966
-0.01966
-0.01474
-0.01556
-0.01966
-0.01966
-0.01966
-0.01474
-0.01474
-0.01474
-0.01474
-0.00983
-0.00983
-0.00983
-0.00491
-0.00491
-0.00491
-0.00491
-0.00491
-0.00491
-0.00491
-0.00491
0.00000
0.00000
0.00000
0.00000
0.00000
0.00000
0.00000
0.00000
0.00491
0.00491
0.00491
0.00491
0.00573
0.01065
0.01474
0.01474
0.01474
0.01474
0.01474
0.01474
0.01474
0.01474
0.01474
0.01556
0.01966
0.01966
0.01966
0.01966
0.01966
0.01966
0.02048
0.02457
0.02048
0.02539
0.02457
0.01966
0.01966
0.01474
0.01474
0.01474
0.01474
0.01474
0.01474
0.01556
0.01966
0.01966
0.01966
0.01966
0.01966
0.01474
0.01474
0.01474
0.01474
0.01556
0.01966
0.01474
0.01474
0.01474
0.01474
0.01065
0.01474
0.01474
0.01474
0.01474
0.01474
0.01474
0.01556
0.01966
0.01966
0.01474
0.01474
0.01474
0.01474
0.00983
0.00983
0.00983
0.00491
0.00000
-0.00491
-0.00983
-0.00983
-0.01065
-0.01556
-0.01966
-0.01966
-0.02048
-0.02539
-0.02539
-0.03031
-0.03031
-0.03031
-0.03031
-0.03031
-0.03522
-0.03522
-0.03522
-0.03522
-0.03522
-0.03440
-0.03031
-0.03031
-0.03031
-0.03031
-0.03031
-0.03031
-0.03031
-0.03031
-0.03031
-0.03031
-0.03031
-0.03031
-0.03031
-0.03031
-0.03522
-0.03440
-0.03031
-0.03031
-0.03031
-0.03031
-0.03522
-0.04014
-0.04505
-0.04505
-0.04997
-0.04997
-0.05488
-0.05488
-0.05488
-0.05488
-0.05488
-0.05488
-0.05488
-0.05488
-0.05488
-0.05488
-0.05980
-0.05980
-0.05980
-0.06471
-0.06471
-0.05980
-0.05488
-0.05488
-0.04997
-0.04014
-0.02949
-0.02457
-0.01966
-0.00983
0.00000
0.01556
0.03031
0.04505
0.05980
0.06471
0.05980
0.05488
0.04997
0.04014
0.03932
0.02457
0.00983
-0.00573
-0.02539
-0.04505
-0.06062
-0.08028
-0.08028
-0.08519
-0.09011
-0.09502
-0.09994
-0.09994
-0.09994
-0.09994
-0.09994
-0.09994
-0.09994
-0.09994
-0.09994
-0.09994
-0.09994
-0.09994
-0.09994
-0.09502
-0.09502
-0.09502
-0.09502
-0.09502
-0.09994
-0.09994
-0.09994
-0.09994
-0.09502
-0.09502
-0.09502
-0.09502
-0.09011
-0.09011
-0.08519
-0.07454
-0.04997
-0.00983
0.03522
0.08519
0.14499
0.22035
0.32029
0.40466
0.41531
0.30964
0.13516
-0.05488
-0.24001
-0.40466
-0.50951
-0.57505
-0.61519
-0.61519
-0.58488
-0.51525
-0.41531
-0.31046
-0.22035
-0.15072
-0.09994
-0.07536
-0.05488
-0.04997
-0.04014
-0.03522
-0.03031
-0.03031
-0.03031
-0.02539
-0.02539
-0.02539
-0.02539
-0.02539
-0.01966
-0.01966
-0.01474
-0.01474
-0.00983
-0.00983
-0.00983
-0.00983
-0.00983
-0.00491
-0.00491
-0.00491
-0.00491
-0.00491
-0.00491
-0.00491
-0.00491
-0.00491
0.00000
0.00000
0.00491
0.00491
0.00491
0.00491
0.00491
0.00491
0.00491
0.00491
0.00491
0.00491
0.00983
0.00983
0.01474
0.01474
0.01474
0.01474
0.01474
0.01474
0.00983
0.01474
0.01474
0.01474
0.01474
0.01474
0.01966
0.02457
0.02539
0.02539
0.02539
0.02539
0.02539
0.02949
0.03031
0.03522
0.03522
0.03522
0.03522
0.03522
0.03031
0.03522
0.03522
0.03522
0.03522
0.03522
0.03522
0.03522
0.03522
0.03522
0.03522
0.03522
0.03522
0.04014
0.04014
0.04014
0.04014
0.04014
0.04014
0.04014
0.04014
0.04014
0.04014
0.04014
0.04014
0.04014
0.04014
0.04014
0.04014
0.04014
0.04014
0.04014
0.04014
0.04505
0.04505
0.04014
0.04014
0.04014
0.04014
0.04014
0.04014
0.04014
0.04014
0.04014
0.04014
0.04014
0.04014
0.03522
0.02539
0.02048
0.01966
0.01556
0.01474
0.01065
0.00983
0.00491
0.00000
-0.00491
-0.00491
-0.00491
-0.00491
-0.00491
-0.00491
-0.00983
-0.00983
-0.00983
-0.00983
-0.00983
-0.00983
-0.01474
-0.01474
-0.01474
-0.01966
-0.02457
-0.02539
-0.02048
-0.02457
-0.02539
-0.02539
-0.02539
-0.02539
-0.02539
-0.02539
-0.02949
-0.03031
-0.03031
-0.03440
-0.03522
-0.03932
-0.04505
-0.04997
-0.04997
-0.04997
-0.04997
-0.04997
-0.04997
-0.05488
-0.05488
-0.05488
-0.05488
-0.05488
-0.05488
-0.05980
-0.05980
-0.05980
-0.05980
-0.05980
-0.05980
-0.05980
-0.05980
-0.05980
-0.05980
-0.05570
-0.05488
-0.04587
-0.03604
-0.03031
-0.02048
-0.01065
-0.00082
0.01393
0.02457
0.03850
0.05406
0.06389
0.06471
0.06062
0.05570
0.04587
0.03604
0.02130
0.01065
-0.00410
-0.02294
-0.03440
-0.05325
-0.05980
-0.07372
-0.07946
-0.08437
-0.08929
-0.09420
-0.09994
-0.09994
-0.09584
-0.09502
-0.09502
-0.09502
-0.09502
-0.09994
-0.09584
-0.09502
-0.09502
-0.09502
-0.09912
-0.09994
-0.09584
-0.09502
-0.09011
-0.09011
-0.09420
-0.09011
-0.09011
-0.09420
-0.09502
-0.09011
-0.09011
-0.09011
-0.08519
-0.08028
-0.06226
-0.03277
0.00573
0.04587
0.09912
0.15400
0.22691
0.31537
0.38336
0.37681
0.26295
0.08028
-0.12779
-0.31046
-0.45054
-0.54556
-0.60372
-0.63239
-0.63075
-0.58570
-0.50870
-0.40630
-0.30145
-0.20561
-0.14171
-0.09912
-0.07290
-0.05652
-0.04178
-0.03113
-0.03031
-0.02539
-0.02048
-0.01966
-0.01966
-0.01966
-0.01556
-0.01474
-0.01065
-0.00573
-0.00491
-0.00491
-0.00491
-0.00491
-0.00082
0.00000
0.00000
0.00000
0.00410
0.00491
0.00491
0.00082
0.00000
0.00000
0.00000
0.00000
0.00000
0.00000
0.00000
0.00000
0.00000
0.00000
0.00000
-0.00410
-0.00082
0.00000
0.00000
0.00000
0.00410
0.00491
0.00901
0.00983
0.00983
0.00983
0.00983
0.01474
0.01065
0.00983
0.00983
0.01393
0.01474
0.01474
0.01474
0.01474
0.01474
0.01474
0.01474
0.01474
0.01474
0.01474
0.01474
0.01966
0.01966
0.01966
0.01966
0.01966
0.01966
0.01556
0.01474
0.01474
0.01474
0.01474
0.01966
0.01966
0.01966
0.01966
0.02457
0.02048
0.01966
0.01966
0.01966
0.01966
0.01966
0.02457
0.02949
0.03031
0.02539
0.02539
0.02539
0.02539
0.02949
0.03031
0.03031
0.03031
0.02539
0.02539
0.02539
0.02539
0.02539
0.02539
0.02539
0.02048
0.02457
0.02539
0.02539
0.02539
0.02048
0.02457
0.02539
0.02539
0.02048
0.01966
0.01556
0.01474
0.01065
0.00573
0.00491
0.00491
0.00082
-0.00410
-0.00491
-0.00901
-0.00983
-0.00983
-0.01393
-0.01884
-0.01556
-0.01474
-0.01474
-0.01884
-0.02457
-0.02539
-0.02539
-0.02539
-0.02539
-0.02048
-0.01966
-0.01556
-0.01474
-0.01474
-0.01884
-0.02376
-0.02539
-0.02539
-0.02539
-0.02539
-0.02949
-0.03031
-0.03031
-0.03031
-0.03031
-0.03031
-0.03031
-0.03440
-0.03522
-0.03522
-0.04342
-0.04505
-0.04505
-0.04096
-0.04423
-0.04915
-0.04997
-0.05406
-0.05488
-0.05488
-0.05488
-0.05488
-0.05488
-0.05488
-0.05488
-0.05488
-0.05488
-0.05488
-0.05898
-0.05980
-0.06389
-0.06471
-0.06471
-0.06471
-0.06471
-0.06062
-0.05570
-0.05079
-0.04178
-0.03195
-0.02621
-0.01720
-0.00655
0.00737
0.01802
0.03604
0.05243
0.06307
0.06471
0.06062
0.05570
0.04669
0.04096
0.03195
0.01802
-0.00082
-0.01720
-0.03604
-0.05243
-0.06307
-0.07290
-0.07864
-0.08765
-0.09420
-0.09502
-0.09502
-0.09912
-0.09994
-0.09994
-0.09994
-0.09994
-0.09994
-0.09994
-0.09994
-0.09994
-0.09994
-0.09994
-0.09994
-0.09994
-0.09994
-0.09994
-0.09994
-0.09994
-0.09994
-0.09994
-0.09584
-0.09502
-0.09502
-0.09502
-0.09093
-0.09011
-0.09011
-0.09011
-0.08192
-0.05652
-0.01802
0.02539
0.07454
0.12861
0.19905
0.29408
0.38582
0.42842
0.37190
0.22117
0.01966
-0.18595
-0.36370
-0.48985
-0.56604
-0.60781
-0.62256
-0.60126
-0.54801
-0.46446
-0.36289
-0.26213
-0.18513
-0.13106
-0.09256
-0.06553
-0.05243
-0.03850
-0.03113
-0.03031
-0.03031
-0.03031
-0.02621
-0.02539
-0.02539
-0.02130
-0.01966
-0.01966
-0.01966
-0.01966
-0.01966
-0.01638
-0.01474
-0.01474
-0.01147
-0.00573
-0.00491
-0.00491
-0.00491
-0.00491
-0.00491
-0.00491
-0.00491
-0.00082
0.00000
0.00000
0.00000
0.00000
0.00410
0.00491
0.00491
0.00491
0.00491
0.00491
0.00491
0.00491
0.00901
0.01393
0.01474
0.01147
0.01393
0.01474
0.01474
0.01474
0.01474
0.01474
0.01474
0.01474
0.01474
0.01474
0.01474
0.01474
0.01474
0.01474
0.01884
0.01966
0.01966
0.01966
0.01966
0.01966
0.01966
0.01966
0.01966
0.02376
0.02539
0.02539
0.02539
0.02539
0.02539
0.02867
0.03031
0.03359
0.03522
0.03522
0.03522
0.03113
0.03031
0.03031
0.03031
0.03031
0.03031
0.03031
0.03359
0.03522
0.03522
0.03522
0.03522
0.03522
0.03850
0.03604
0.03522
0.03522
0.03522
0.03522
0.03522
0.03850
0.04014
0.04014
0.04014
0.04014
0.04014
0.04014
0.04014
0.04014
0.04014
0.04014
0.04014
0.03604
0.03113
0.03031
0.02621
0.02539
0.02130
0.01638
0.01474
0.01147
0.00983
0.00655
0.00164
0.00000
-0.00328
-0.00491
-0.00901
-0.01393
-0.01474
-0.01474
-0.01884
-0.01966
-0.01966
-0.01966
-0.01966
-0.01966
-0.01966
-0.01966
-0.01966
-0.01966
-0.01966
-0.01966
-0.01966
-0.01638
-0.01474
-0.01884
-0.01966
-0.01966
-0.02376
-0.02539
-0.02539
-0.02539
-0.02539
-0.02539
-0.02539
-0.02539
-0.02867
-0.03031
-0.03031
-0.03359
-0.03850
-0.04014
-0.04342
-0.04505
-0.04505
-0.04505
-0.04833
-0.04997
-0.04997
-0.04997
-0.05325
-0.05488
-0.05488
-0.05488
-0.05488
-0.05488
-0.05488
-0.05488
-0.05488
-0.05488
-0.04833
-0.03440
-0.01966
-0.00819
0.00901
0.02539
0.03359
0.03850
0.03686
0.03522
0.03850
0.04014
0.04014
0.02949
0.01474
-0.00082
-0.01556
-0.02703
-0.04014
-0.05161
-0.05816
-0.06717
-0.06963
-0.07372
-0.07864
-0.08028
-0.08028
-0.08028
-0.08028
-0.08355
-0.08519
-0.08192
-0.08028
-0.08028
-0.08028
-0.08028
-0.08028
-0.08028
-0.08028
-0.08028
-0.08355
-0.08519
-0.08519
-0.08519
-0.08192
-0.08028
-0.08028
-0.08028
-0.07618
-0.07127
-0.06635
-0.06144
-0.05325
-0.03604
-0.00573
0.02867
0.07045
0.12943
0.19824
0.28507
0.36289
0.38500
0.32357
0.18267
-0.01311
-0.20561
-0.37353
-0.49641
-0.57095
-0.61355
-0.62829
-0.60617
-0.54720
-0.46364
-0.36370
-0.26213
-0.17939
-0.12123
-0.08847
-0.06635
-0.04997
-0.03850
-0.03195
-0.02703
-0.02539
-0.02539
-0.02130
-0.01966
-0.01638
-0.01474
-0.01147
-0.00983
-0.00983
-0.00983
-0.00983
-0.00983
-0.00983
-0.00655
-0.00491
-0.00491
-0.00491
-0.00491
-0.00491
-0.00491
-0.00491
-0.00491
-0.00491
-0.00491
-0.00491
-0.00491
-0.00819
-0.00655
-0.00491
-0.00491
-0.00491
-0.00491
-0.00491
-0.00491
-0.00491
-0.00164
0.00000
0.00000
0.00000
0.00000
0.00000
0.00000
0.00000
0.00000
0.00000
0.00000
0.00000
0.00000
0.00328
0.00819
0.00983
0.00983
0.00983
0.00983
0.00983
0.01311
0.01474
0.01474
0.01474
0.01474
0.01474
0.01474
0.01474
0.01474
0.01802
0.01966
0.01966
0.01966
0.01966
0.01966
0.01966
0.01966
0.01966
0.01966
0.01966
0.01966
0.01966
0.01966
0.01966
0.02294
0.02539
0.02539
0.02539
0.02539
0.02539
0.02539
0.02539
0.02539
0.02539
0.02539
0.02539
0.02539
0.02539
0.02212
0.02294
0.02539
0.02785
0.03031
0.03031
0.03031
0.02703
0.02539
0.02539
0.02212
0.01966
0.01720
0.01474
0.01474
0.01474
0.01474
0.01147
0.00655
0.00164
-0.00328
-0.00491
-0.00491
-0.00819
-0.00983
-0.01311
-0.01474
-0.01474
-0.01802
-0.02294
-0.02539
-0.02785
-0.03031
-0.03031
-0.03031
-0.03031
-0.03031
-0.03031
-0.03031
-0.03031
-0.03031
-0.03031
-0.03277
-0.03522
-0.03522
-0.03522
-0.03522
-0.03768
-0.04014
-0.04014
-0.04014
-0.04014
-0.04014
-0.04014
-0.04342
-0.04505
-0.04505
-0.04505
-0.04833
-0.04997
-0.04997
-0.05325
-0.05488
-0.05488
-0.05488
-0.05816
-0.05980
-0.05980
-0.05980
-0.05980
-0.05734
-0.05488
-0.05488
-0.05816
-0.05980
-0.06307
-0.06471
-0.06799
-0.06963
-0.06717
-0.06471
-0.06471
-0.06471
-0.06471
-0.06799
-0.06963
-0.06963
-0.06963
-0.06717
-0.06471
-0.06471
-0.05898
-0.05488
-0.04915
-0.03932
-0.03195
-0.02376
-0.01065
0.00655
0.02376
0.03932
0.05406
0.06307
0.06471
0.06226
0.05406
0.04669
0.03932
0.02867
0.01638
-0.00164
-0.02212
-0.04178
-0.05570
-0.06881
-0.08110
-0.08765
-0.09256
-0.09830
-0.09994
-0.09994
-0.09994
-0.09994
-0.09994
-0.09666
-0.09502
-0.09502
-0.09502
-0.09502
-0.09830
-0.09994
-0.09994
-0.09748
-0.09502
-0.09830
-0.09748
-0.09502
-0.09502
-0.09175
-0.09256
-0.09830
-0.09994
-0.09748
-0.09502
-0.09175
-0.09011
-0.08437
-0.07454
-0.05243
-0.01966
0.02130
0.06881
0.12779
0.19824
0.28752
0.37845
0.42350
0.38418
0.24984
0.05488
-0.15236
-0.33422
-0.47101
-0.55703
-0.60536
-0.62010
-0.60044
-0.55047
-0.47347
-0.37845
-0.27851
-0.19250
-0.12861
-0.09093
-0.06553
-0.04915
-0.03932
-0.03195
-0.02703
-0.02212
-0.01966
-0.01720
-0.01474
-0.01474
-0.01229
-0.00983
-0.00983
-0.00983
-0.00983
-0.00983
-0.00983
-0.00983
-0.00983
-0.00983
-0.00737
-0.00491
-0.00491
-0.00491
-0.00491
-0.00491
-0.00491
-0.00491
-0.00246
0.00000
0.00246
0.00491
0.00491
0.00491
0.00737
0.00983
0.00983
0.00983
0.00983
0.00983
0.01311
0.01474
0.01474
0.01474
0.01474
0.01474
0.01474
0.01474
0.01474
0.01474
0.01474
0.01474
0.01474
0.01474
0.01474
0.01802
0.02294
0.02212
0.01966
0.02294
0.02785
0.03031
0.03031
0.03031
0.03031
0.03031
0.02703
0.02539
0.02785
0.03031
0.03031
0.03031
0.03031
0.03031
0.03277
0.03522
0.03522
0.03522
0.03522
0.03522
0.03522
0.03522
0.03522
0.03522
0.03522
0.03522
0.03522
0.03522
0.03522
0.03522
0.03522
0.03522
0.03522
0.03522
0.03195
0.03031
0.03031
0.03277
0.03522
0.03277
0.03031
0.03277
0.03522
0.03522
0.03522
0.03522
0.03522
0.03277
0.03277
0.03277
0.03031
0.02703
0.02539
0.02539
0.02539
0.02539
0.02212
0.01720
0.01474
0.01474
0.01474
0.01229
0.00737
0.00246
0.00000
-0.00246
-0.00491
-0.00491
-0.00737
-0.00983
-0.01229
-0.01474
-0.01474
-0.01474
-0.01474
-0.01720
-0.01966
-0.01720
-0.01474
-0.01474
-0.01474
-0.01474
-0.01474
-0.01474
-0.01720
-0.01966
-0.02294
-0.02539
-0.02539
-0.02539
-0.02539
-0.02539
-0.02785
-0.03031
-0.03031
-0.03031
-0.03031
-0.03277
-0.03522
-0.03522
-0.03522
-0.03768
-0.04014
-0.04260
-0.04505
-0.04751
-0.04997
-0.04997
-0.05243
-0.05488
-0.05488
-0.05488
-0.05488
-0.05488
-0.05488
-0.05488
-0.05488
-0.05488
-0.05488
-0.04997
-0.03768
-0.02294
-0.00983
0.00491
0.02212
0.03277
0.03522
0.03522
0.03522
0.03768
0.04014
0.04014
0.03031
0.01474
0.00246
-0.01474
-0.03195
-0.04751
-0.05734
-0.06471
-0.07209
-0.07782
-0.08028
-0.08273
-0.08519
-0.08519
-0.08765
-0.09011
-0.09011
-0.09011
-0.09011
-0.09011
-0.08765
-0.08519
-0.08765
-0.09011
-0.09011
-0.09011
-0.09011
-0.09011
-0.09011
-0.09011
-0.09011
-0.08765
-0.08519
-0.08765
-0.09011
-0.08765
-0.08273
-0.08028
-0.07782
-0.06553
-0.04342
-0.01556
0.01638
0.05652
0.10567
0.16793
0.24738
0.32602
0.35306
0.29080
0.14499
-0.03686
-0.21216
-0.36370
-0.47757
-0.54801
-0.58897
-0.60290
-0.58160
-0.52262
-0.43579
-0.33585
-0.23837
-0.16219
-0.11141
-0.07864
-0.05816
-0.04342
-0.03277
-0.03031
-0.02785
-0.02539
-0.02294
-0.01802
-0.01474
-0.01474
-0.01474
-0.01474
-0.01311
-0.00737
-0.00491
-0.00491
-0.00737
-0.00737
-0.00491
-0.00491
-0.00491
-0.00491
-0.00246
0.00246
0.00491
0.00737
0.00983
0.00983
0.00737
0.00491
0.00737
0.01229
0.01474
0.01474
0.01474
0.01474
0.01474
0.01474
0.01474
0.01474
0.01474
0.01474
0.01474
0.01474
0.01474
0.01474
0.01474
0.01474
0.01474
0.01474
0.01720
0.01966
0.01966
0.01966
0.01966
0.02212
0.02539
0.02703
0.03031
0.03195
0.03686
0.04014
0.04014
0.03768
0.03277
0.03031
0.03031
0.03031
0.03195
0.03522
0.03686
0.04014
0.04014
0.04014
0.04014
0.04178
0.04505
0.04505
0.04260
0.04014
0.04014
0.04014
0.04014
0.04014
0.04014
0.04014
0.04014
0.04014
0.04014
0.04014
0.04014
0.04014
0.04014
0.03768
0.03686
0.04014
0.04014
0.04014
0.04014
0.04014
0.04014
0.03768
0.03522
0.03686
0.04014
0.04014
0.04014
0.03768
0.03522
0.03522
0.03522
0.03277
0.03031
0.02785
0.02539
0.02539
0.02048
0.01474
0.01474
0.01474
0.01474
0.01311
0.00819
0.00328
-0.00246
-0.00491
-0.00737
-0.00983
-0.01229
-0.01474
-0.01720
-0.01966
-0.01966
-0.01802
-0.01474
-0.01311
-0.00983
-0.00983
-0.01229
-0.01474
-0.01474
-0.01474
-0.01474
-0.01720
-0.01966
-0.01802
-0.01474
-0.01474
-0.01474
-0.01720
-0.02212
-0.02539
-0.02539
-0.02703
-0.03031
-0.03195
-0.03522
-0.03686
-0.04014
-0.04178
-0.04505
-0.04669
-0.05161
-0.05488
-0.05488
-0.05488
-0.05488
-0.05488
-0.05488
-0.05488
-0.05488
-0.05488
-0.05488
-0.05734
-0.05980
-0.05980
-0.06226
-0.06471
-0.06471
-0.06471
-0.06471
-0.06471
-0.06717
-0.06963
-0.07209
-0.07536
-0.07290
-0.06799
-0.06144
-0.05079
-0.04342
-0.03604
-0.02457
-0.01147
0.00246
0.02048
0.03604
0.04915
0.05488
0.05325
0.04833
0.04342
0.03604
0.02621
0.01393
-0.00082
-0.01802
-0.03359
-0.04587
-0.05898
-0.07045
-0.08192
-0.08847
-0.09666
-0.09994
-0.09994
-0.10158
-0.10649
-0.10977
-0.10977
-0.10977
-0.10977
-0.10977
-0.10977
-0.10977
-0.10977
-0.10977
-0.11222
-0.11468
-0.11304
-0.10977
-0.10977
-0.10977
-0.10977
-0.10977
-0.10813
-0.10485
-0.10485
-0.10485
-0.10485
-0.10321
-0.09830
-0.09338
-0.08273
-0.05570
-0.01556
0.02457
0.06799
0.12533
0.20069
0.29326
0.38173
0.40712
0.33422
0.17284
-0.02949
-0.22527
-0.38664
-0.49723
-0.56112
-0.59716
-0.60617
-0.58242
-0.52098
-0.43251
-0.32930
-0.23428
-0.16055
-0.11468
-0.08765
-0.06799
-0.05325
-0.04669
-0.03850
-0.03522
-0.03522
-0.03359
-0.03031
-0.03031
-0.03031
-0.03031
-0.03031
-0.03031
-0.03031
-0.03031
-0.03031
-0.03031
-0.02785
-0.02539
-0.02294
-0.01966
-0.01966
-0.01966
-0.01966
-0.01966
-0.01802
-0.01474
-0.01474
-0.01474
-0.01474
-0.01311
-0.00983
-0.01147
-0.01474
-0.01311
-0.00819
-0.00491
-0.00491
-0.00491
-0.00491
-0.00491
-0.00491
-0.00491
-0.00491
-0.00491
-0.00328
0.00000
0.00164
0.00491
0.00655
0.00983
0.01147
0.01474
0.01474
0.01474
0.01474
0.01474
0.01474
0.01474
0.01474
0.01474
0.01474
0.01474
0.01474
0.01474
0.01474
0.01474
0.01474
0.01474
0.01474
0.01474
0.01474
0.01474
0.01474
0.01474
0.01638
0.01966
0.02130
0.02539
0.02539
0.02539
0.02621
0.03031
0.03195
0.03359
0.03031
0.03031
0.03195
0.03522
0.03359
0.03195
0.03522
0.03522
0.03522
0.03522
0.03522
0.03522
0.03522
0.03522
0.03522
0.03522
0.03522
0.03359
0.03031
0.03031
0.03031
0.03031
0.03031
0.03031
0.03031
0.03031
0.03031
0.02867
0.02539
0.02376
0.01966
0.01966
0.01966
0.01884
0.01474
0.01474
0.01229
0.00328
-0.00164
-0.00491
-0.00491
-0.00491
-0.00491
-0.00655
-0.01147
-0.01474
-0.01638
-0.02130
-0.02539
-0.02539
-0.02539
-0.02539
-0.02539
-0.02539
-0.02539
-0.02539
-0.02539
-0.02621
-0.03031
-0.03031
-0.03031
-0.03031
-0.03031
-0.03031
-0.03031
-0.03031
-0.03031
-0.03031
-0.03031
-0.03031
-0.03113
-0.03686
-0.04014
-0.04014
-0.04014
-0.04014
-0.04178
-0.04505
-0.04505
-0.04505
-0.04505
-0.04505
-0.04505
-0.04669
-0.04997
-0.05161
-0.05488
-0.05488
-0.05488
-0.05488
-0.05325
-0.04751
-0.03686
-0.02539
-0.01065
0.00410
0.01802
0.02539
0.02539
0.02539
0.02539
0.02621
0.03031
0.02867
0.01966
0.00082
-0.01556
-0.03440
-0.04751
-0.05898
-0.07290
-0.08028
-0.08110
-0.08601
-0.09011
-0.09011
-0.09011
-0.09011
-0.09011
-0.09175
-0.09502
-0.09502
-0.09502
-0.09502
-0.09502
-0.09502
-0.09502
-0.09502
-0.09338
-0.09011
-0.09175
-0.09502
-0.09502
-0.09502
-0.09338
-0.09011
-0.09011
-0.09011
-0.09011
-0.08847
-0.08519
-0.08355
-0.08028
-0.07618
-0.05734
-0.02539
0.01065
0.05325
0.10567
0.16957
0.25148
0.34159
0.38746
0.35387
0.23428
0.05161
-0.14827
-0.32275
-0.45299
-0.53327
-0.57914
-0.60372
-0.58979
-0.54310
-0.47183
-0.38091
-0.28588
-0.19824
-0.13762
-0.09338
-0.06963
-0.05243
-0.04342
-0.03850
-0.03359
-0.03031
-0.03031
-0.03031
-0.03031
-0.03031
-0.02867
-0.02539
-0.02376
-0.01966
-0.01966
-0.01966
-0.01966
-0.01966
-0.01966
-0.01884
-0.01474
-0.01474
-0.01474
-0.01393
-0.00983
-0.00983
-0.00983
-0.00983
-0.00983
-0.00983
-0.00983
-0.00901
-0.00491
-0.00491
-0.00491
-0.00410
0.00000
0.00000
0.00000
0.00000
0.00000
0.00000
0.00000
0.00000
0.00000
0.00082
0.00491
0.00491
0.00491
0.00491
0.00491
0.00491
0.00491
0.00655
0.00983
0.01147
0.01474
0.01474
0.01474
0.01474
0.01474
0.01638
0.02130
0.02621
0.03031
0.03113
0.03359
0.02867
0.02376
0.01966
0.02130
0.02539
0.02539
0.02376
0.02130
0.02539
0.02621
0.03031
0.03031
0.03031
0.02867
0.02539
0.02376
0.01966
0.01966
0.01966
0.02130
0.02376
0.01966
0.02130
0.02376
0.01966
0.01966
0.01884
0.01474
0.01638
0.01966
0.01966
0.01966
0.01966
0.01966
0.01966
0.01966
0.01966
0.01966
0.01966
0.01966
0.01966
0.01966
0.01884
0.01474
0.01474
0.01474
0.01474
0.01474
0.01393
0.00901
0.00410
-0.00082
-0.00491
-0.00573
-0.01065
-0.01638
-0.02130
-0.02621
-0.03031
-0.03031
-0.03031
-0.03031
-0.03113
-0.03522
-0.03522
-0.03440
-0.03031
-0.03031
-0.03031
-0.03031
-0.03031
-0.03031
-0.03031
-0.03031
-0.03031
-0.03031
-0.03031
-0.03031
-0.03031
-0.03031
-0.03031
-0.03031
-0.03031
-0.03031
-0.03031
-0.03031
-0.03031
-0.03031
-0.03031
-0.03031
-0.03031
-0.03113
-0.03522
-0.03604
-0.04096
-0.04587
-0.05079
-0.05488
-0.05488
-0.05488
-0.05488
-0.05488
-0.05488
-0.05570
-0.05980
-0.05980
-0.05898
-0.05488
-0.05570
-0.05980
-0.06062
-0.06471
-0.06471
-0.06471
-0.06389
-0.05980
-0.05980
-0.05898
-0.05325
-0.04342
-0.03440
-0.02785
-0.01802
-0.00901
-0.00164
0.01802
0.03277
0.04751
0.06062
0.06389
0.05898
0.05406
0.04833
0.03850
0.02867
0.01720
0.00246
-0.01311
-0.03277
-0.04751
-0.06144
-0.07209
-0.08110
-0.08601
-0.09093
-0.09584
-0.09994
-0.09994
-0.09994
-0.09994
-0.09994
-0.09994
-0.09912
-0.09502
-0.09502
-0.09502
-0.09502
-0.09502
-0.09502
-0.09502
-0.09502
-0.09502
-0.09502
-0.09502
-0.09420
-0.09011
-0.09011
-0.08929
-0.08519
-0.08519
-0.08519
-0.08519
-0.08437
-0.07782
-0.06062
-0.02949
0.00655
0.04669
0.09502
0.16055
0.23592
0.33258
0.40057
0.38910
0.27114
0.07782
-0.12943
-0.31210
-0.44972
-0.53900
-0.59389
-0.61600
-0.61437
-0.57341
-0.49559
-0.39975
-0.29653
-0.20970
-0.14335
-0.10076
-0.07209
-0.05325
-0.04423
-0.03932
-0.03522
-0.03522
-0.03440
-0.03031
-0.03031
-0.03031
-0.03031
-0.03031
-0.03031
-0.03031
-0.03031
-0.02949
-0.02457
-0.01966
-0.01966
-0.01474
-0.01556
-0.01966
-0.01966
-0.01474
-0.01393
-0.00901
-0.00491
-0.00491
-0.00491
-0.00491
-0.00491
-0.00491
-0.00491
-0.00491
-0.00491
-0.00491
-0.00491
-0.00491
-0.00491
-0.00491
-0.00491
-0.00410
0.00000
0.00000
0.00000
0.00082
0.00491
0.00491
0.00491
0.00491
0.00573
0.00983
0.00983
0.00983
0.00983
0.01065
0.01474
0.01474
0.01474
0.01474
0.01474
0.01474
0.01474
0.01556
0.01966
0.01966
0.01966
0.01966
0.02048
0.02539
0.02539
0.02539
0.02539
0.02539
0.02539
0.02539
0.02539
0.03031
0.03031
0.03440
0.03031
0.03522
0.03440
0.03031
0.03031
0.03522
0.03522
0.03522
0.03522
0.03522
0.03522
0.03522
0.03522
0.03522
0.03522
0.03522
0.03522
0.03440
0.03031
0.03522
0.03522
0.04014
0.04014
0.04014
0.04014
0.04014
0.04014
0.04014
0.04014
0.04014
0.04014
0.04014
0.04014
0.04014
0.04014
0.04505
0.04587
0.04915
0.04423
0.04014
0.04014
0.03932
0.03440
0.02949
0.02457
0.01966
0.01474
0.01474
0.01474
0.00983
0.00491
0.00491
0.00000
-0.00082
-0.00491
-0.00573
-0.01065
-0.01474
-0.01474
-0.01474
-0.01474
-0.01474
-0.01474
-0.01474
-0.01474
-0.01474
-0.01474
-0.01556
