0.00983
0.01147
0.01474
0.01474
0.01474
0.01474
0.01474
0.01474
0.01474
0.01474
0.01474
0.01474
0.01474
0.01474
0.01474
0.01474
0.01474
0.01474
0.01474
0.01474
0.01474
0.01474
0.01474
0.01474
0.01720
0.01966
0.01966
0.01966
0.01966
0.01966
0.01966
0.02212
0.02539
0.02539
0.02539
0.02539
0.02539
0.02539
0.02539
0.02539
0.02294
0.01966
0.01966
0.01802
0.01474
0.01474
0.01474
0.01474
0.01474
0.01474
0.01474
0.01474
0.01474
0.01474
0.01474
0.01474
0.01474
0.01474
0.01474
0.01474
0.01474
0.01474
0.01474
0.01474
0.01474
0.01474
0.01474
0.01474
0.01474
0.01474
0.01474
0.01474
0.01474
0.01474
0.01474
0.01311
0.00819
0.00328
-0.00164
-0.00491
-0.00655
-0.01147
-0.01638
-0.02212
-0.02703
-0.03031
-0.03359
-0.04178
-0.04669
-0.04997
-0.05161
-0.05488
-0.05488
-0.05488
-0.05488
-0.05488
-0.05488
-0.05488
-0.05488
-0.05325
-0.04997
-0.04997
-0.04833
-0.04505
-0.04505
-0.04505
-0.04505
-0.04342
-0.04014
-0.04014
-0.04014
-0.03850
-0.03359
-0.03031
-0.03195
-0.03522
-0.03522
-0.03522
-0.03522
-0.03359
-0.03031
-0.03195
-0.03522
-0.03522
-0.03359
-0.02867
-0.02048
-0.00655
0.00491
0.01966
0.03359
0.04178
0.04505
0.04505
0.04505
0.04505
0.04833
0.05652
0.05816
0.04997
0.03522
0.02048
0.00491
-0.00983
-0.02457
-0.03850
-0.04833
-0.05488
-0.05488
-0.05488
-0.05652
-0.05980
-0.05980
-0.05980
-0.05816
-0.05488
-0.05652
-0.05980
-0.05980
-0.05980
-0.06144
-0.06471
-0.06635
-0.06963
-0.06963
-0.06963
-0.06881
-0.06471
-0.06635
-0.06881
-0.06471
-0.06471
-0.06471
-0.06635
-0.06963
-0.06963
-0.06881
-0.06471
-0.06307
-0.05816
-0.05488
-0.05161
-0.04014
-0.02376
-0.00246
0.03195
0.09093
0.16711
0.26295
0.35633
0.38746
0.33422
0.19168
-0.00491
-0.19578
-0.35551
-0.47511
-0.54965
-0.58815
-0.58651
-0.54310
-0.46364
-0.37190
-0.27851
-0.19578
-0.13516
-0.09256
-0.06881
-0.05079
-0.03686
-0.03031
-0.02867
-0.02539
-0.02539
-0.02376
-0.01966
-0.01884
-0.01393
-0.00983
-0.00983
-0.00983
-0.00983
-0.00819
-0.00491
-0.00491
-0.00491
-0.00491
-0.00328
0.00000
0.00000
0.00000
0.00000
0.00000
0.00000
0.00000
0.00000
0.00000
0.00000
0.00000
0.00164
0.00491
0.00491
0.00491
0.00491
0.00491
0.00491
0.00655
0.01147
0.01474
0.01474
0.01474
0.01474
0.01474
0.01393
0.00983
0.00983
0.00983
0.01147
0.01474
0.01474
0.01474
0.01474
0.01474
0.01474
0.01638
0.01966
0.01966
0.02130
0.02376
0.01966
0.02130
0.02539
0.02621
0.03031
0.03031
0.03031
0.03031
0.03031
0.03031
0.03031
0.03031
0.03031
0.03031
0.03031
0.03113
0.03522
0.03359
0.03031
0.03031
0.03031
0.02867
0.02539
0.02539
0.02621
0.03031
0.02867
0.02539
0.02539
0.02539
0.02539
0.02539
0.02539
0.02539
0.02539
0.02376
0.01884
0.01474
0.01474
0.01474
0.01474
0.01474
0.01638
0.01966
0.01966
0.01966
0.01966
0.01966
0.01884
0.01393
0.00983
0.00983
0.00901
0.00491
0.00410
-0.00082
-0.00655
-0.01147
-0.01638
-0.02130
-0.02621
-0.03031
-0.03031
-0.03113
-0.03522
-0.03604
-0.04014
-0.04096
-0.04505
-0.04505
-0.04505
-0.04505
-0.04505
-0.04505
-0.04505
-0.04342
-0.04014
-0.04014
-0.04014
-0.04014
-0.03850
-0.03522
-0.03522
-0.03522
-0.03522
-0.03522
-0.03359
-0.03031
-0.03031
-0.03113
-0.03522
-0.03522
-0.03522
-0.03522
-0.03522
-0.03522
-0.03522
-0.03522
-0.03604
-0.04096
-0.04505
-0.04505
-0.04505
-0.04505
-0.04505
-0.04505
-0.04505
-0.04423
-0.03768
-0.02703
-0.01311
-0.00164
0.01474
0.03195
0.04014
0.04014
0.04014
0.04014
0.04096
0.04751
0.05488
0.05161
0.03686
0.02048
0.00246
-0.00819
-0.02294
-0.03686
-0.04751
-0.05570
-0.06144
-0.06635
-0.07127
-0.07536
-0.07536
-0.07536
-0.07536
-0.07536
-0.07536
-0.07536
-0.07536
-0.07618
-0.08028
-0.08028
-0.08028
-0.08028
-0.08028
-0.08028
-0.08028
-0.08028
-0.08028
-0.08028
-0.08028
-0.08028
-0.08028
-0.08028
-0.08028
-0.08028
-0.08028
-0.07864
-0.07536
-0.07536
-0.07372
-0.06881
-0.06226
-0.04505
-0.01720
0.02621
0.08519
0.16383
0.25885
0.34568
0.38091
0.31701
0.16547
-0.03359
-0.22363
-0.38500
-0.49968
-0.56849
-0.60699
-0.60945
-0.57259
-0.50214
-0.41040
-0.31128
-0.22117
-0.15564
-0.10895
-0.08110
-0.06307
-0.05325
-0.04423
-0.04014
-0.03932
-0.03440
-0.03031
-0.03031
-0.03031
-0.03031
-0.02867
-0.02539
-0.02539
-0.02376
-0.01966
-0.01966
-0.01966
-0.01966
-0.01884
-0.01474
-0.01393
-0.00901
-0.00491
-0.00491
-0.00491
-0.00491
-0.00410
0.00000
0.00000
0.00000
0.00000
-0.00082
-0.00491
-0.00410
0.00000
0.00000
0.00000
0.00000
0.00000
0.00082
0.00573
0.00983
0.00983
0.00983
0.00983
0.00983
0.00901
0.00491
0.00491
0.00491
0.00573
0.00983
0.00983
0.00983
0.01065
0.01474
0.01474
0.01474
0.01474
0.01474
0.01474
0.01474
0.01556
0.01966
0.01966
0.01966
0.01966
0.02048
0.02457
0.01966
0.02048
0.02539
0.02539
0.02539
0.02457
0.01966
0.01884
0.01474
0.01474
0.01474
0.01474
0.01474
0.01474
0.01474
0.01474
0.01474
0.01474
0.01474
0.01474
0.01474
0.01474
0.01474
0.01474
0.01474
0.01474
0.01474
0.01474
0.01474
0.01474
0.01474
0.01474
0.01474
0.01474
0.01474
0.01474
0.01474
0.01474
0.01474
0.01474
0.01474
0.01393
0.00901
0.00491
0.00410
0.00000
-0.00082
-0.00491
-0.00573
-0.00983
-0.01065
-0.01556
-0.02048
-0.02539
-0.03031
-0.03031
-0.03031
-0.03031
-0.03031
-0.03604
-0.04014
-0.04014
-0.04014
-0.04014
-0.04096
-0.04505
-0.04423
-0.04014
-0.04014
-0.04014
-0.04014
-0.04014
-0.04014
-0.04014
-0.04014
-0.04014
-0.04014
-0.04014
-0.04014
-0.04014
-0.04014
-0.04014
-0.04014
-0.04014
-0.04014
-0.04014
-0.04014
-0.04014
-0.04014
-0.04014
-0.04014
-0.04014
-0.04014
-0.04014
-0.04014
-0.04096
-0.04505
-0.04505
-0.04505
-0.04505
-0.04505
-0.04423
-0.03850
-0.02785
-0.01393
-0.00328
0.01147
0.02212
0.03522
0.03440
0.03031
0.03031
0.03522
0.04096
0.04587
0.04915
0.03768
0.01884
0.00819
-0.00655
-0.01638
-0.03113
-0.04096
-0.05079
-0.05570
-0.05980
-0.06062
-0.06471
-0.06553
-0.06963
-0.06963
-0.06963
-0.06963
-0.06963
-0.06963
-0.06963
-0.07045
-0.07536
-0.07536
-0.07454
-0.06963
-0.06963
-0.06963
-0.06963
-0.06963
-0.06963
-0.06963
-0.06963
-0.06963
-0.06963
-0.06963
-0.06963
-0.06963
-0.06963
-0.06471
-0.06471
-0.06471
-0.05980
-0.05325
-0.03277
-0.00655
0.03113
0.09175
0.16301
0.24411
0.33503
0.37599
0.32029
0.16629
-0.02867
-0.21626
-0.37681
-0.49231
-0.56440
-0.60617
-0.61191
-0.57832
-0.50050
-0.40057
-0.29653
-0.20397
-0.14089
-0.09748
-0.06881
-0.05406
-0.04423
-0.03440
-0.03031
-0.03031
-0.02949
-0.02539
-0.02457
-0.01966
-0.01966
-0.01474
-0.01474
-0.01474
-0.00983
-0.00983
-0.00983
-0.00983
-0.00983
-0.00491
-0.00491
-0.00491
-0.00491
0.00000
-0.00491
-0.00491
-0.00491
-0.00491
-0.00491
-0.00491
-0.00491
0.00000
0.00000
0.00000
0.00491
0.00491
0.00491
0.00573
0.00983
0.01065
0.01474
0.01474
0.00983
0.00983
0.00983
0.00983
0.01065
0.01474
0.01474
0.01474
0.01474
0.01474
0.01474
0.01474
0.01474
0.01474
0.01474
0.01474
0.01474
0.01474
0.01474
0.01474
0.01474
0.01556
0.01966
0.01966
0.01966
0.02048
0.02457
0.01966
0.01966
0.01966
0.01966
0.01966
0.01966
0.01966
0.01966
0.01966
0.01966
0.01966
0.01966
0.01966
0.01966
0.01966
0.01966
0.01966
0.01966
0.01474
0.01474
0.01474
0.01474
0.01474
0.01474
0.01474
0.01474
0.01474
0.01474
0.01474
0.01474
0.01474
0.01474
0.01474
0.01474
0.01474
0.01474
0.01474
0.01474
0.01474
0.00983
0.00491
0.00000
0.00000
-0.00491
-0.00491
-0.00491
-0.00491
-0.00983
-0.00983
-0.01474
-0.01556
-0.02048
-0.02539
-0.03031
-0.03031
-0.03522
-0.04014
-0.04014
-0.04505
-0.04505
-0.04505
-0.04505
-0.04997
-0.04997
-0.04505
-0.04505
-0.04505
-0.04014
-0.04014
-0.04014
-0.04014
-0.03522
-0.03522
-0.03522
-0.03522
-0.03522
-0.04014
-0.04014
-0.04014
-0.03522
-0.03031
-0.03031
-0.03522
-0.03522
-0.04014
-0.04014
-0.04014
-0.04014
-0.03522
-0.03522
-0.04014
-0.04505
-0.04997
-0.04997
-0.04997
-0.04997
-0.05488
-0.05488
-0.05488
-0.05488
-0.05488
-0.04997
-0.04997
-0.04997
-0.04997
-0.04997
-0.04997
-0.04997
-0.04997
-0.04997
-0.04014
-0.02949
-0.01966
-0.00491
0.01474
0.02048
0.02539
0.03031
0.03031
0.03031
0.03031
0.04014
0.04014
0.03932
0.01966
0.00491
-0.00491
-0.02539
-0.03522
-0.04997
-0.05980
-0.06471
-0.07045
-0.07536
-0.08028
-0.08028
-0.08028
-0.08028
-0.08519
-0.08519
-0.08519
-0.08519
-0.08519
-0.08519
-0.08519
-0.08519
-0.08519
-0.09011
-0.09011
-0.08519
-0.08519
-0.08519
-0.08519
-0.08028
-0.08028
-0.08028
-0.08028
-0.07536
-0.07536
-0.07536
-0.07536
-0.06963
-0.06471
-0.05980
-0.05980
-0.05488
-0.03522
-0.00983
0.02949
0.08437
0.15974
0.24984
0.34978
0.40466
0.36534
0.22609
0.02621
-0.16875
-0.34323
-0.47429
-0.54965
-0.59962
-0.61519
-0.59061
-0.52590
-0.43088
-0.33094
-0.23592
-0.16055
-0.11550
-0.08519
-0.06553
-0.05488
-0.04505
-0.03522
-0.03031
-0.03031
-0.03031
-0.02539
-0.02048
-0.01966
-0.01966
-0.01966
-0.01966
-0.01474
-0.01474
-0.01474
-0.00983
-0.00983
-0.00983
-0.00983
-0.00983
-0.00491
-0.00491
-0.00491
-0.00491
-0.00491
-0.00491
-0.00491
-0.00491
-0.00491
-0.00491
-0.00491
-0.00491
0.00000
0.00491
0.00491
0.00983
0.00983
0.00983
0.00983
0.00983
0.00983
0.00983
0.00983
0.00983
0.00983
0.00983
0.00983
0.01474
0.01474
0.01474
0.01474
0.01474
0.01474
0.01474
0.01966
0.01966
0.01966
0.01966
0.02457
0.02539
0.02539
0.02539
0.02539
0.02539
0.02539
0.02949
0.03031
0.03031
0.03031
0.03031
0.03031
0.03031
0.03031
0.03031
0.02539
0.02539
0.02048
0.02457
0.02539
0.02539
0.02048
0.01966
0.02457
0.02539
0.02539
0.02539
0.02539
0.02539
0.02539
0.02539
0.02539
0.02048
0.01966
0.01966
0.01966
0.01966
0.01966
0.01556
0.01474
0.01474
0.01474
0.01474
0.01474
0.01474
0.01474
0.01474
0.01474
0.01474
0.01474
0.01474
0.01474
0.01474
0.01474
0.01065
0.00983
0.00491
0.00000
-0.00491
-0.00491
-0.00983
-0.01474
-0.01966
-0.02457
-0.02539
-0.02949
-0.03031
-0.03440
-0.03522
-0.03932
-0.04014
-0.04505
-0.04997
-0.04997
-0.04997
-0.04997
-0.04997
-0.05488
-0.05488
-0.05488
-0.05488
-0.04997
-0.04505
-0.04014
-0.04014
-0.04014
-0.04014
-0.04014
-0.04014
-0.04014
-0.04423
-0.04505
-0.04014
-0.04014
-0.04014
-0.03522
-0.03522
-0.03522
-0.03522
-0.03932
-0.04014
-0.04423
-0.04505
-0.04505
-0.04997
-0.04505
-0.04505
-0.04505
-0.04505
-0.04505
-0.04997
-0.04997
-0.04997
-0.04997
-0.04997
-0.04997
-0.04997
-0.04096
-0.03113
-0.01638
-0.00573
0.00901
0.01884
0.02457
0.02949
0.02539
0.02539
0.02539
0.03440
0.03932
0.04014
0.03113
0.01638
0.00164
-0.00901
-0.02376
-0.03850
-0.04915
-0.05488
-0.06389
-0.06963
-0.07454
-0.07536
-0.07536
-0.07536
-0.07536
-0.07536
-0.07946
-0.08028
-0.08028
-0.08028
-0.08028
-0.08028
-0.07536
-0.07536
-0.07536
-0.07536
-0.07536
-0.07536
-0.07536
-0.07536
-0.07536
-0.07536
-0.07536
-0.07536
-0.07536
-0.07536
-0.07536
-0.07536
-0.07045
-0.06963
-0.06553
-0.05570
-0.04587
-0.02703
0.01065
0.06389
0.13270
0.22035
0.31947
0.37927
0.34077
0.21953
0.03604
-0.14991
-0.32111
-0.46036
-0.54638
-0.59962
-0.61846
-0.59798
-0.53327
-0.44071
-0.34159
-0.24575
-0.17284
-0.12042
-0.08847
-0.06717
-0.05652
-0.04587
-0.04096
-0.03522
-0.03031
-0.03031
-0.03031
-0.02539
-0.02539
-0.02539
-0.02539
-0.02048
-0.01966
-0.01966
-0.01556
-0.01474
-0.01065
-0.01474
-0.01474
-0.01966
-0.01556
-0.01474
-0.01065
-0.01474
-0.01474
-0.01474
-0.01474
-0.01474
-0.01065
-0.00983
-0.00983
-0.00983
-0.00983
-0.00573
-0.00491
-0.00491
-0.00491
-0.00082
0.00000
0.00000
0.00000
0.00000
0.00410
0.00491
0.00491
0.00491
0.00491
0.00082
0.00000
0.00000
0.00000
0.00000
0.00410
0.00491
0.00491
0.00491
0.00491
0.00491
0.00901
0.00983
0.00983
0.01393
0.01474
0.01474
0.01474
0.01474
0.01474
0.01474
0.01474
0.01474
0.01474
0.01474
0.01474
0.01474
0.01474
0.01474
0.01474
0.01065
0.00983
0.00983
0.00983
0.00983
0.00983
0.00983
0.00983
0.01393
0.01474
0.01474
0.01065
0.00983
0.00983
0.00983
0.00573
0.00491
0.00491
0.00491
0.00491
0.00491
0.00901
0.00983
0.00983
0.00983
0.01393
0.01474
0.01065
0.00983
0.00573
0.00491
0.00082
0.00000
-0.00410
-0.00491
-0.00491
-0.00491
-0.00901
-0.01393
-0.01884
-0.01966
-0.02457
-0.02949
-0.03440
-0.03522
-0.03932
-0.04423
-0.04915
-0.05406
-0.05488
-0.05488
-0.05488
-0.05488
-0.05488
-0.05079
-0.04997
-0.04997
-0.04587
-0.04505
-0.04505
-0.04505
-0.04505
-0.04505
-0.04505
-0.04505
-0.04096
-0.04014
-0.03604
-0.03522
-0.03522
-0.03113
-0.03031
-0.03440
-0.03522
-0.03522
-0.03522
-0.03522
-0.03522
-0.03522
-0.03522
-0.03522
-0.03522
-0.03932
-0.04423
-0.04505
-0.04505
-0.04505
-0.04505
-0.04505
-0.04096
-0.04014
-0.04014
-0.04014
-0.04014
-0.04014
-0.04014
-0.04423
-0.04505
-0.04096
-0.04014
-0.03604
-0.03522
-0.03113
-0.02621
-0.00901
0.00328
0.01311
0.02703
0.03850
0.04014
0.04014
0.04014
0.04014
0.04833
0.05816
0.05570
0.04260
0.02376
0.01229
-0.00246
-0.01311
-0.02703
-0.04178
-0.05325
-0.05488
-0.05488
-0.05898
-0.05980
-0.06389
-0.06471
-0.06471
-0.06471
-0.06471
-0.06471
-0.06471
-0.06471
-0.06471
-0.06471
-0.06881
-0.06963
-0.07372
-0.07536
-0.07536
-0.07864
-0.08028
-0.08028
-0.07618
-0.07536
-0.07864
-0.08028
-0.07618
-0.07536
-0.07127
-0.06963
-0.06635
-0.06471
-0.06144
-0.05570
-0.04342
-0.02048
0.01638
0.07209
0.14008
0.23018
0.32848
0.38173
0.35469
0.23510
0.04423
-0.15318
-0.33258
-0.47183
-0.55866
-0.61437
-0.63648
-0.60863
-0.54146
-0.45054
-0.35224
-0.25558
-0.18021
-0.13025
-0.09666
-0.07454
-0.05816
-0.05079
-0.04260
-0.04014
-0.03604
-0.03522
-0.03522
-0.03522
-0.03113
-0.03031
-0.03031
-0.03031
-0.03031
-0.03031
-0.02621
-0.02130
-0.01638
-0.01884
-0.01966
-0.02376
-0.02130
-0.01966
-0.01966
-0.01966
-0.01966
-0.01638
-0.01474
-0.01147
-0.00983
-0.00983
-0.00983
-0.00655
-0.00491
-0.00491
-0.00491
-0.00491
-0.00491
-0.00491
-0.00491
-0.00491
-0.00491
-0.00082
0.00000
0.00000
0.00000
0.00000
0.00000
0.00000
0.00000
0.00410
0.00491
0.00491
0.00901
0.00983
0.00983
0.01393
0.01474
0.01474
0.01474
0.01474
0.01474
0.01474
0.01474
0.01474
0.01474
0.01474
0.01474
0.01474
0.01474
0.01474
0.01884
0.01966
0.01966
0.02376
0.02539
0.02539
0.02539
0.02130
0.01966
0.01966
0.02376
0.02539
0.02130
0.01966
0.01966
0.01966
0.01966
0.01966
0.01966
0.01966
0.01966
0.01966
0.01966
0.01966
0.01966
0.01966
0.02376
0.02539
0.02539
0.02539
0.02539
0.02539
0.02539
0.02539
0.02539
0.02539
0.02539
0.02539
0.02539
0.02539
0.02130
0.01966
0.01966
0.01638
0.01474
0.01474
0.01147
0.00655
0.00164
-0.00328
-0.00491
-0.00901
-0.01393
-0.01884
-0.02376
-0.02867
-0.03031
-0.03031
-0.03031
-0.03359
-0.03850
-0.04342
-0.04505
-0.04505
-0.04505
-0.04505
-0.04505
-0.04833
-0.04997
-0.04997
-0.04997
-0.04669
-0.04178
-0.03604
-0.03522
-0.03850
-0.04014
-0.04014
-0.04014
-0.04014
-0.04014
-0.04014
-0.04014
-0.04014
-0.03604
-0.03113
-0.03031
-0.03031
-0.03031
-0.03031
-0.03031
-0.03031
-0.03359
-0.03522
-0.03522
-0.03522
-0.03113
-0.03031
-0.03031
-0.03359
-0.03522
-0.03850
-0.03604
-0.03522
-0.03113
-0.02294
-0.01311
-0.00328
0.01065
0.02212
0.03522
0.04014
0.04014
0.04014
0.03686
0.03850
0.04342
0.04178
0.03686
0.02457
0.00983
-0.00164
-0.01556
-0.02703
-0.04014
-0.05161
-0.06226
-0.06881
-0.07372
-0.07536
-0.07536
-0.07536
-0.07536
-0.07536
-0.07536
-0.07127
-0.06963
-0.06963
-0.06963
-0.07372
-0.07536
-0.07536
-0.07864
-0.08028
-0.08028
-0.08028
-0.08028
-0.08028
-0.08028
-0.08028
-0.08028
-0.08028
-0.07618
-0.07536
-0.07536
-0.07536
-0.07127
-0.06963
-0.06963
-0.06307
-0.05325
-0.03604
-0.01311
0.02621
0.08110
0.15154
0.24001
0.33176
0.38091
0.33503
0.19004
-0.00164
-0.19496
-0.36043
-0.48822
-0.56931
-0.61682
-0.62993
-0.59962
-0.52754
-0.43169
-0.32520
-0.22527
-0.15072
-0.10649
-0.07782
-0.05980
-0.04505
-0.03359
-0.03031
-0.02703
-0.02539
-0.02539
-0.02539
-0.02539
-0.02130
-0.01966
-0.01966
-0.01966
-0.01966
-0.01966
-0.01638
-0.01147
-0.00655
-0.00491
-0.00491
-0.00491
-0.00491
-0.00491
-0.00491
-0.00491
-0.00491
-0.00491
-0.00491
-0.00491
-0.00164
0.00000
0.00328
0.00491
0.00819
0.00983
0.00983
0.01311
0.01474
0.01474
0.01474
0.01474
0.01147
0.00983
0.01311
0.01474
0.01474
0.01474
0.01474
0.01474
0.01474
0.01474
0.01474
0.01474
0.01474
0.01474
0.01474
0.01474
0.01474
0.01474
0.01802
0.01966
0.01966
0.02294
0.02539
0.02539
0.02539
0.02539
0.02539
0.02539
0.02539
0.02212
0.01966
0.01966
0.01966
0.01966
0.01638
0.01474
0.01474
0.01474
0.01474
0.01474
0.01474
0.01474
0.01474
0.01474
0.01474
0.01474
0.01474
0.01474
0.01474
0.01474
0.01474
0.01147
0.00983
0.00983
0.00983
0.00983
0.00983
0.00655
0.00491
0.00491
0.00491
0.00819
0.00983
0.00655
0.00491
0.00491
0.00491
0.00491
0.00491
0.00164
0.00000
0.00000
-0.00328
-0.00491
-0.00819
-0.00983
-0.00983
-0.01311
-0.01802
-0.02294
-0.02785
-0.03031
-0.03277
-0.03522
-0.03850
-0.04342
-0.04505
-0.04833
-0.04997
-0.04997
-0.05325
-0.05488
-0.05488
-0.05488
-0.05488
-0.05488
-0.05488
-0.05488
-0.05488
-0.05488
-0.05488
-0.05488
-0.05488
-0.05161
-0.04997
-0.04997
-0.04997
-0.04997
-0.04669
-0.04505
-0.04505
-0.04178
-0.04014
-0.04014
-0.04014
-0.03686
-0.03522
-0.03522
-0.03522
-0.03522
-0.03522
-0.03768
-0.04014
-0.04014
-0.04014
-0.03686
-0.03522
-0.03522
-0.03522
-0.03522
-0.03522
-0.03522
-0.03522
-0.03768
-0.03686
-0.03195
-0.02376
-0.01393
-0.00082
0.01393
0.02867
0.03768
0.04014
0.04014
0.04014
0.04014
0.04342
0.05079
0.05161
0.04423
0.03113
0.01884
0.00328
-0.00819
-0.01884
-0.02785
-0.03604
-0.04587
-0.05325
-0.05488
-0.05816
-0.05980
-0.06307
-0.06471
-0.06471
-0.06799
-0.06963
-0.06963
-0.06963
-0.06717
-0.06471
-0.06799
-0.06963
-0.06717
-0.06471
-0.06471
-0.06799
-0.06963
-0.06963
-0.06717
-0.06471
-0.06226
-0.05980
-0.05980
-0.05980
-0.05734
-0.05488
-0.05816
-0.05734
-0.05488
-0.04915
-0.03604
-0.01556
0.00983
0.04915
0.11059
0.18349
0.26704
0.35142
0.38828
0.32602
0.17284
-0.01802
-0.20725
-0.36862
-0.48494
-0.55948
-0.60208
-0.60945
-0.57013
-0.49313
-0.39483
-0.28916
-0.19905
-0.13598
-0.09502
-0.06553
-0.04669
-0.03440
-0.03031
-0.02457
-0.01966
-0.01720
-0.01474
-0.01229
-0.00983
-0.00737
-0.00491
-0.00491
-0.00491
-0.00491
-0.00491
-0.00491
-0.00491
-0.00491
-0.00491
-0.00491
-0.00491
-0.00491
-0.00491
-0.00246
0.00000
0.00246
0.00491
0.00491
0.00491
0.00246
0.00000
0.00000
0.00000
0.00000
0.00246
0.00491
0.00819
0.00983
0.00983
0.00983
0.01311
0.01474
0.01474
0.01474
0.01474
0.01474
0.01474
0.01474
0.01474
0.01474
0.01474
0.01229
0.01311
0.01474
0.01474
0.01474
0.01474
0.01474
0.01474
0.01474
0.01474
0.01474
0.01802
0.01966
0.02294
0.02539
0.02785
0.03031
0.03031
0.03031
0.03031
0.03031
0.02703
0.02539
0.02212
0.01966
0.02294
0.02212
0.01966
0.01966
0.01966
0.01966
0.01966
0.01966
0.01966
0.01966
0.01966
0.01966
0.01720
0.01474
0.01474
0.01474
0.01474
0.01474
0.01802
0.01966
0.01966
0.01966
0.01966
0.01966
0.01966
0.01966
0.01720
0.01474
0.01474
0.01474
0.01474
0.01474
0.01474
0.01474
0.01474
0.01474
0.01474
0.01474
0.01229
0.00737
0.00491
0.00246
-0.00246
-0.00491
-0.00737
-0.01229
-0.01802
-0.02294
-0.02785
-0.03031
-0.03031
-0.03277
-0.03768
-0.04014
-0.04260
-0.04505
-0.04505
-0.04751
-0.04997
-0.04997
-0.05243
-0.05488
-0.05488
-0.05488
-0.05488
-0.05488
-0.05488
-0.05488
-0.05243
-0.04997
-0.04997
-0.04997
-0.04997
-0.05243
-0.05488
-0.05243
-0.04997
-0.04751
-0.04505
-0.04505
-0.04505
-0.04505
-0.04260
-0.04014
-0.04014
-0.04260
-0.04505
-0.04505
-0.04505
-0.04505
-0.04505
-0.04505
-0.04505
-0.04505
-0.04505
-0.04751
-0.04997
-0.05243
-0.05488
-0.05488
-0.05488
-0.05488
-0.05243
-0.04751
-0.03768
-0.02539
-0.01229
0.00246
0.01474
0.02212
0.02539
0.02539
0.02539
0.02785
0.03522
0.04014
0.03768
0.02785
0.01229
-0.00246
-0.01720
-0.03031
-0.04014
-0.04997
-0.05734
-0.06226
-0.06717
-0.07209
-0.07536
-0.07536
-0.07782
-0.08028
-0.08028
-0.08028
-0.08028
-0.08028
-0.08028
-0.08273
-0.08519
-0.08519
-0.08519
-0.08519
-0.08273
-0.08028
-0.08028
-0.08028
-0.08028
-0.08273
-0.08519
-0.08519
-0.08519
-0.08519
-0.08519
-0.08273
-0.08028
-0.08028
-0.07782
-0.07290
-0.06307
-0.04751
-0.02539
0.00901
0.05898
0.12861
0.21052
0.29817
0.36616
0.36370
0.26131
0.08028
-0.12287
-0.30309
-0.44726
-0.54310
-0.59880
-0.62502
-0.61355
-0.56194
-0.47757
-0.37272
-0.27032
-0.18922
-0.13352
-0.09584
-0.07290
-0.06062
-0.04997
-0.04260
-0.03768
-0.03522
-0.03277
-0.03031
-0.03031
-0.03031
-0.03031
-0.03031
-0.03031
-0.03031
-0.03031
-0.03031
-0.02785
-0.02294
-0.01966
-0.01802
-0.01474
-0.01474
-0.01474
-0.01474
-0.01474
-0.01474
-0.01311
-0.00983
-0.00983
-0.00983
-0.00983
-0.00983
-0.00737
-0.00491
-0.00491
-0.00491
-0.00491
-0.00246
0.00000
0.00000
0.00000
0.00000
0.00000
0.00000
0.00000
0.00000
0.00000
0.00246
0.00491
0.00491
0.00491
0.00491
0.00491
0.00491
0.00491
0.00737
0.00983
0.01229
0.01474
0.01474
0.01720
0.01966
0.01966
0.02212
0.02539
0.02703
0.03031
0.03195
0.03522
0.03522
0.03522
0.03522
0.03277
0.03031
0.03031
0.03031
0.03195
0.03522
0.03277
0.03195
0.03522
0.03522
0.03522
0.03277
0.03031
0.03195
0.03522
0.03277
0.03031
0.03031
0.03031
0.03031
0.03031
0.03031
0.03031
0.03031
0.03031
0.03031
0.03195
0.03522
0.03522
0.03522
0.03522
0.03277
0.03031
0.03031
0.03031
0.02785
0.02539
0.02539
0.02539
0.02294
0.01802
0.01474
0.01474
0.01474
0.01311
0.00819
0.00328
-0.00246
-0.00491
-0.00737
-0.00983
-0.01229
-0.01720
-0.02212
-0.02703
-0.03031
-0.03031
-0.03031
-0.03031
-0.03031
-0.03031
-0.03031
-0.03031
-0.03031
-0.03031
-0.03031
-0.03031
-0.03031
-0.03031
-0.03031
-0.03031
-0.03031
-0.03031
-0.03031
-0.03031
-0.03031
-0.03031
-0.02785
-0.02539
-0.02294
-0.01966
-0.01966
-0.01966
-0.01966
-0.01966
-0.01966
-0.01966
-0.01966
-0.01966
-0.01966
-0.01966
-0.02212
-0.02294
-0.01966
-0.02212
-0.02703
-0.03031
-0.03031
-0.03031
-0.03031
-0.03195
-0.03522
-0.03522
-0.03686
-0.04014
-0.04178
-0.04505
-0.04505
-0.04342
-0.03604
-0.02376
-0.01065
0.00082
0.01393
0.02376
0.03031
0.02785
0.02294
0.01966
0.02376
0.03195
0.03277
0.02376
0.00901
-0.00573
-0.02048
-0.03604
-0.04915
-0.06062
-0.07372
-0.08028
-0.08028
-0.08028
-0.08028
-0.08028
-0.07782
-0.07536
-0.07536
-0.07536
-0.07536
-0.07536
-0.07536
-0.07536
-0.07536
-0.07536
-0.07536
-0.07290
-0.06963
-0.06963
-0.06963
-0.06799
-0.06471
-0.06471
-0.06471
-0.06307
-0.05980
-0.05980
-0.05980
-0.05816
-0.05488
-0.05325
-0.04997
-0.04833
-0.04342
-0.03440
-0.01720
0.00819
0.04833
0.10403
0.17448
0.25640
0.33422
0.37108
0.32029
0.17448
-0.01720
-0.20315
-0.36207
-0.48330
-0.56030
-0.60208
-0.60781
-0.57095
-0.49723
-0.40139
-0.29817
-0.20561
-0.13680
-0.09584
-0.07127
-0.05161
-0.04342
-0.03604
-0.03031
-0.03031
-0.03031
-0.03031
-0.03031
-0.02785
-0.02539
-0.02294
-0.01802
-0.01474
-0.01474
-0.01311
-0.00983
-0.00983
-0.00819
-0.00491
-0.00491
-0.00491
-0.00328
0.00000
0.00000
0.00000
0.00000
0.00164
0.00655
0.00983
0.01147
0.01474
0.01474
0.01474
0.01474
0.01638
0.01802
0.01474
0.01638
0.01966
0.01966
0.02212
0.02539
0.02539
0.02539
0.02539
0.02539
0.02539
0.02703
0.03031
0.03031
0.03031
0.03031
0.02867
0.02539
0.02703
0.03031
0.03195
0.03522
0.03522
0.03522
0.03522
0.03522
0.03522
0.03522
0.03522
0.03522
0.03522
0.03522
0.03359
0.03031
0.03031
0.03195
0.03686
0.04014
0.04014
0.04014
0.04014
0.04014
0.04014
0.04014
0.04014
0.04014
0.04014
0.04014
0.04014
0.04014
0.04014
0.04014
0.04014
0.03850
0.03522
0.03686
0.04014
0.04014
0.04014
0.04014
0.04014
0.04014
0.04014
0.04014
0.03850
0.03522
0.03522
0.03686
0.04014
0.04014
0.04014
0.03850
0.03522
0.03522
0.03522
0.03522
0.03359
0.03031
0.02867
0.02212
0.01474
0.01474
0.01311
0.00819
0.00328
-0.00164
-0.00491
-0.00655
-0.01147
-0.01638
-0.02130
-0.02621
-0.03031
-0.03031
-0.03031
-0.03031
-0.03031
-0.03031
-0.03031
-0.03031
-0.03031
-0.03031
-0.03031
-0.03031
-0.03031
-0.02867
-0.02539
-0.02376
-0.01966
-0.01966
-0.01966
-0.01966
-0.02130
-0.02539
-0.02539
-0.02539
-0.02539
-0.02621
-0.03031
-0.03031
-0.03031
-0.03031
-0.03031
-0.03031
-0.03031
-0.03031
-0.03031
-0.03031
-0.03031
-0.03031
-0.02867
-0.02539
-0.02376
-0.01966
-0.01966
-0.02130
-0.02539
-0.02621
-0.03031
-0.03031
-0.03031
-0.03031
-0.03031
-0.02539
-0.01229
-0.00246
0.00819
0.02048
0.03686
0.04014
0.04014
0.04014
0.04014
0.04014
0.04178
0.04505
0.04178
0.03031
0.01556
0.00082
-0.01393
-0.02621
-0.03440
-0.04751
-0.05652
-0.06307
-0.07127
-0.07536
-0.07618
-0.08028
-0.08028
-0.08028
-0.08028
-0.08028
-0.08110
-0.08519
-0.08519
-0.08519
-0.08519
-0.08519
-0.08519
-0.08519
-0.08519
-0.08519
-0.08355
-0.08028
-0.08028
-0.08028
-0.08028
-0.08028
-0.08028
-0.08028
-0.07864
-0.07536
-0.07372
-0.06963
-0.06881
-0.06226
-0.05079
-0.03359
-0.00655
0.02867
0.08355
0.15810
0.24411
0.32848
0.37763
0.34159
0.21708
0.03031
-0.16629
-0.33340
-0.46528
-0.55129
-0.60044
-0.61109
-0.58570
-0.52098
-0.42842
-0.32848
-0.23264
-0.15728
-0.11059
-0.07946
-0.06144
-0.04587
-0.03359
-0.03031
-0.02867
-0.02376
-0.01966
-0.01884
-0.01474
-0.01393
-0.00983
-0.00901
-0.00491
-0.00491
-0.00491
-0.00491
-0.00491
-0.00491
-0.00491
-0.00491
-0.00491
-0.00491
-0.00410
0.00000
0.00000
0.00164
0.00491
0.00655
0.00983
0.00983
0.00983
0.01147
0.01474
0.01474
0.01474
0.01474
0.01638
0.01966
0.01966
0.01966
0.01966
0.01966
0.01966
0.02130
0.02539
0.02539
0.02539
0.02539
0.02539
0.02539
0.02539
0.02539
0.02539
0.02539
0.02621
0.03031
0.03113
0.03522
0.03522
0.03522
0.03522
0.03604
0.04014
0.04014
0.04014
0.04014
0.04014
0.04096
0.04505
0.04505
0.04505
0.04505
0.04505
0.04505
0.04505
0.04505
0.04587
0.04997
0.04997
0.04915
0.04505
0.04505
0.04505
0.04505
0.04505
0.04423
0.04014
0.04014
0.04014
0.04014
0.04014
0.04014
0.04014
0.04014
0.04014
0.03850
0.03522
0.03522
0.03522
0.03522
0.03604
0.04014
0.04014
0.04014
0.04014
0.03850
0.03522
0.03359
0.03031
0.03031
0.03031
0.03031
0.02867
0.02376
0.01884
0.01474
0.01474
0.01393
0.00901
0.00410
-0.00082
-0.00491
-0.00573
-0.01147
-0.01474
-0.01638
-0.02130
-0.02621
-0.03031
-0.03031
-0.03031
-0.03031
-0.03031
-0.03031
-0.03031
-0.03031
-0.03031
-0.03031
-0.03031
-0.03031
-0.03031
-0.03031
-0.03031
-0.03031
-0.03031
-0.03031
-0.02867
-0.02539
-0.02539
-0.02376
-0.01966
-0.01966
-0.01966
-0.01966
-0.01966
-0.01966
-0.01966
-0.01966
-0.01966
-0.01966
-0.01884
-0.01474
-0.01474
-0.01474
-0.01474
-0.01638
-0.01966
-0.02130
-0.02539
-0.02539
-0.02539
-0.02621
-0.03031
-0.03113
-0.03604
-0.04014
-0.04096
-0.04505
-0.04505
-0.04423
-0.03850
-0.02703
-0.01311
-0.00164
0.01720
0.02703
0.03522
0.03440
0.02867
0.02621
0.03113
0.03604
0.03932
0.03113
0.01229
-0.00164
-0.01311
-0.02703
-0.03768
-0.05161
-0.06144
-0.07209
-0.08028
-0.08028
-0.08028
-0.08028
-0.08028
-0.08028
-0.08028
-0.08028
-0.08028
-0.08028
-0.08028
-0.08110
-0.08519
-0.08601
-0.09011
-0.09011
-0.09093
-0.09502
-0.09502
-0.09420
-0.09011
-0.09011
-0.09011
-0.08929
-0.08519
-0.08601
-0.09011
-0.09011
-0.09011
-0.09011
-0.08929
-0.08519
-0.08437
-0.07618
-0.05079
-0.02294
0.01884
0.07782
0.15400
0.24083
0.32930
0.36862
0.31210
0.16219
-0.03686
-0.22772
-0.39074
-0.51197
-0.58324
-0.62747
-0.63566
-0.60454
-0.53491
-0.43743
-0.32848
-0.22854
-0.16219
-0.11550
-0.08683
-0.06799
-0.05325
-0.04423
-0.03932
-0.03440
-0.03031
-0.03031
-0.03031
-0.03031
-0.03031
-0.03031
-0.03031
-0.03031
-0.03031
-0.03031
-0.02949
-0.02539
-0.02539
-0.02457
-0.01966
-0.01966
-0.01474
-0.01474
-0.01474
-0.01474
-0.01474
-0.01474
-0.01556
-0.01966
-0.01966
-0.01474
-0.01393
-0.00901
-0.00491
-0.00491
-0.00410
0.00000
0.00000
0.00082
0.00491
0.00491
0.00573
0.01065
0.01474
0.01474
0.01474
0.01474
0.01474
0.01556
0.01966
0.01966
0.01474
0.01474
0.01474
0.01474
0.01474
0.01474
0.01474
0.01474
0.01556
0.01966
0.01966
0.01966
0.02048
0.02539
0.02539
0.03031
0.03031
0.03031
0.03031
0.03031
0.03031
0.03031
0.03031
0.03522
0.03522
0.03522
0.03522
0.03522
0.03522
0.03522
0.03440
0.03031
0.03031
0.03031
0.03031
0.03031
0.03031
0.03031
0.03031
0.03031
0.03031
0.03031
0.03031
0.03031
0.03031
0.03031
0.03031
0.03031
0.03031
0.03031
0.03031
0.02949
0.02539
0.02539
0.02539
0.02539
0.03031
0.03031
0.03031
0.03031
0.03031
0.03031
0.02949
0.02457
0.01966
0.01474
0.01474
0.00983
0.00410
-0.00082
-0.00491
-0.00573
-0.01065
-0.01474
-0.01556
-0.01966
-0.02048
-0.02539
-0.02539
-0.03031
-0.03031
-0.03031
-0.03031
-0.03031
-0.03031
-0.03522
-0.03522
-0.03440
-0.03031
-0.03031
-0.03031
-0.03031
-0.03031
-0.03031
-0.03031
-0.03031
-0.03031
-0.03031
-0.03031
-0.03031
-0.03031
-0.03031
-0.03031
-0.03031
-0.03031
-0.03031
-0.03031
-0.03031
-0.03031
-0.03031
-0.03031
-0.03031
-0.03031
-0.03031
-0.03031
-0.03031
-0.03031
-0.03031
-0.02949
-0.02376
-0.00901
0.00164
0.01638
0.03113
0.04669
0.06062
0.06471
0.06471
0.05980
0.06062
0.06553
0.06963
0.06881
0.05898
0.04423
0.03359
0.01884
0.00901
-0.00573
-0.01638
-0.03031
-0.03113
-0.04014
-0.04505
-0.04505
-0.05079
-0.05488
-0.05488
-0.05488
-0.05488
-0.05488
-0.05570
-0.05980
-0.06062
-0.06471
-0.06471
-0.06553
-0.06963
-0.06963
-0.06963
-0.06963
-0.06963
-0.06963
-0.06471
-0.06471
-0.06471
-0.06471
-0.06471
-0.06471
-0.06471
-0.06471
-0.05980
-0.05980
-0.05488
-0.05406
-0.04423
-0.02785
0.00246
0.04423
0.10485
0.17530
0.26049
0.34650
0.37108
0.29981
0.13762
-0.06144
-0.24493
-0.39647
-0.50460
-0.57177
-0.60536
-0.60290
-0.56030
-0.47429
-0.37845
-0.27032
-0.18595
-0.12287
-0.08847
-0.06389
-0.04915
-0.03932
-0.03031
-0.03031
-0.02949
-0.02539
-0.02457
-0.01966
-0.01966
-0.01966
-0.01966
-0.01966
-0.01474
-0.01474
-0.00983
-0.00491
-0.00491
0.00000
0.00000
0.00000
0.00491
0.00491
0.00983
0.01474
0.01474
0.01474
0.01474
0.01474
0.01474
0.01556
0.01966
0.02048
0.02457
0.01966
0.02048
0.02539
0.02539
0.02457
0.01966
0.01966
0.01966
0.02048
0.02539
0.02539
0.02539
0.02457
0.01966
0.01474
0.01474
0.01474
0.01474
0.01474
0.01474
0.01556
0.01966
0.02048
0.02539
0.02539
0.02539
0.03031
0.03031
0.03031
0.03522
0.03522
0.03522
0.03522
0.03522
0.03522
0.04014
0.04014
0.04014
0.04014
0.04014
0.03522
0.03522
0.03522
0.03522
0.03522
0.03522
0.03522
0.03522
0.03522
0.03522
0.03522
0.03522
0.03522
0.04014
0.04014
0.03522
0.03522
0.03031
0.03522
0.03522
0.03522
0.03522
0.04014
0.03522
0.03522
0.04014
0.04014
0.03522
0.03522
0.03522
0.03522
0.03522
0.03522
0.03522
0.03522
0.03522
0.03522
0.04014
0.03522
0.03522
0.03031
0.02457
0.01966
0.01474
0.01474
0.01474
0.00983
0.00491
0.00000
-0.00491
-0.00983
-0.01474
-0.01966
-0.02539
-0.02539
-0.03031
-0.03031
-0.03031
-0.03031
-0.03031
-0.03522
-0.04014
-0.04014
-0.03522
-0.03522
-0.03522
-0.03522
-0.03522
-0.03522
-0.03522
-0.03522
-0.03522
-0.03522
-0.03031
-0.03031
-0.02539
-0.02539
-0.02539
-0.03031
-0.03031
-0.03031
-0.03031
-0.03031
-0.03031
-0.03031
-0.03031
-0.03031
-0.03522
-0.03522
-0.04014
-0.04505
-0.04505
-0.04505
-0.04505
-0.04014
-0.04014
-0.03031
-0.02048
-0.00491
0.00983
0.02457
0.04014
0.04014
0.04014
0.04014
0.04014
0.04997
0.05488
0.05488
0.04014
0.02539
0.01065
0.00000
-0.00983
-0.02949
-0.04014
-0.04997
-0.05488
-0.05980
-0.06471
-0.06471
-0.06471
-0.06471
-0.06963
-0.06963
-0.06963
-0.06963
-0.07454
-0.07536
-0.07536
-0.08028
-0.08028
-0.08028
-0.08028
-0.08028
-0.08028
-0.08028
-0.08028
-0.07536
-0.07536
-0.07536
-0.07946
-0.08028
-0.08028
-0.08028
-0.08028
-0.07536
-0.07536
-0.07045
-0.06963
-0.06553
-0.05570
-0.04014
-0.01065
0.02376
0.08273
0.15236
0.23182
0.32684
0.38746
0.36616
0.23018
0.03768
-0.16219
-0.33831
-0.47019
-0.55211
-0.60290
-0.61928
-0.60044
-0.54720
-0.45873
-0.34486
-0.24411
-0.16301
-0.11222
-0.08110
-0.06062
-0.04587
-0.03522
-0.03031
-0.03031
-0.03031
-0.02539
-0.02539
-0.02048
-0.01966
-0.01966
-0.01966
-0.01556
-0.01474
-0.01065
-0.00491
-0.00491
-0.00491
-0.00491
-0.00491
-0.00491
-0.00491
0.00000
0.00000
0.00000
0.00491
0.00491
0.00491
0.00491
0.00491
0.00491
0.00983
0.01474
0.01474
0.01474
0.01474
0.01474
0.01966
0.01966
0.02457
0.02539
0.02539
0.02048
0.01966
0.01966
0.01556
0.01474
0.01474
0.01474
0.01474
0.01966
0.01966
0.01966
0.02457
0.02539
0.02949
0.03031
0.03440
0.03522
0.03522
0.03031
0.03440
0.03522
0.03522
0.03522
0.03522
0.03932
0.04014
0.04014
0.04014
0.04014
0.04014
0.04014
0.04014
0.04014
0.04014
0.04014
0.04014
0.04014
0.04014
0.04014
0.04014
0.04014
0.04014
0.04014
0.04014
0.04014
0.04014
0.04014
0.04014
0.04014
0.03522
0.03522
0.03522
0.03522
0.03522
0.03522
0.03522
0.03522
0.03522
0.03522
0.03522
0.03522
0.03031
0.03031
0.03031
0.03031
0.03031
0.02539
0.02539
0.02539
0.02949
0.03031
0.02539
0.02539
0.02048
0.01556
0.01474
0.01474
0.01065
0.00573
0.00082
-0.00491
-0.00983
-0.01474
-0.01966
-0.01966
-0.02457
-0.02949
-0.03031
-0.03031
-0.03031
-0.03031
-0.03440
-0.03522
-0.03522
-0.03522
-0.03522
-0.03522
-0.03932
-0.04014
-0.03522
-0.03522
-0.03522
-0.03522
-0.03522
-0.03522
-0.03522
-0.03031
-0.03031
-0.03031
-0.03031
-0.03031
-0.03031
-0.03031
-0.03031
-0.03031
-0.03031
-0.03031
-0.03031
-0.03031
-0.03031
-0.03031
-0.03031
-0.03031
-0.03031
-0.03031
-0.02539
-0.01147
-0.00082
0.01311
0.03277
0.04423
0.05406
0.05488
0.05079
0.04997
0.04997
0.05898
0.05980
0.05570
0.04178
0.02212
0.01147
-0.00328
-0.01802
-0.02867
-0.03850
-0.04915
-0.05406
-0.05488
-0.05488
-0.05980
-0.05980
-0.05980
-0.05980
-0.05980
-0.05980
-0.05980
-0.05980
-0.05980
-0.06471
-0.06471
-0.06471
-0.06471
-0.06471
-0.06471
-0.06471
-0.06471
-0.06471
-0.06471
-0.06471
-0.06471
-0.06471
-0.06471
-0.06471
-0.06471
-0.06471
-0.06471
-0.06471
-0.06062
-0.05980
-0.05570
-0.05079
-0.03277
-0.00410
0.03440
0.09666
0.16957
0.26213
0.35306
0.38664
0.32111
0.16793
-0.02785
-0.21462
-0.36944
-0.48494
-0.56030
-0.59553
-0.59553
-0.56030
-0.48658
-0.38500
-0.28015
-0.18759
-0.12779
-0.08601
-0.05898
-0.04178
-0.03113
-0.02539
-0.02048
-0.01966
-0.01556
-0.01474
-0.01065
-0.00573
-0.00491
-0.00491
-0.00491
-0.00491
-0.00491
-0.00491
-0.00491
-0.00491
-0.00491
-0.00082
0.00000
0.00410
0.00491
0.00491
0.00491
0.00491
0.00491
0.00491
0.00491
0.00491
0.00901
0.00983
0.00983
0.00983
0.01393
0.01474
0.01474
0.01474
0.01474
0.01474
0.01474
0.01474
0.01474
0.01474
0.01474
0.01474
0.01474
0.01474
0.01474
0.01474
0.01474
0.01474
0.01884
0.01966
0.01966
0.02457
0.02539
0.02539
0.02539
0.02539
0.02539
0.02539
0.02949
0.03031
0.03031
0.03031
0.03440
0.03522
0.03932
0.04014
0.04014
0.03604
0.03522
0.03522
0.03522
0.03522
0.03522
0.03522
0.03522
0.03522
0.03522
0.03522
0.03522
0.03522
0.03522
0.03522
0.03522
0.03522
0.03113
0.03031
0.03031
0.03440
0.03113
0.03031
0.03031
0.03031
0.03031
0.03031
0.03031
0.02621
0.02539
0.02949
0.03031
0.02621
0.02539
0.02539
0.02539
0.02539
0.02539
0.02539
0.02130
0.01966
0.01966
0.01556
0.01474
0.01474
0.01474
0.01474
0.01065
0.00573
0.00082
-0.00410
-0.00491
-0.00901
-0.01802
-0.02376
-0.02867
-0.03031
-0.03031
-0.03440
-0.03522
-0.03113
-0.03440
-0.03522
-0.03932
-0.04014
-0.04014
-0.03604
-0.03522
-0.03113
-0.03031
-0.03031
-0.03440
-0.03522
-0.03113
-0.03031
-0.03031
-0.03031
-0.03031
-0.03031
-0.03031
-0.03031
-0.03031
-0.03031
-0.03359
-0.03522
-0.03522
-0.03522
-0.03522
-0.03522
-0.03932
-0.04014
-0.04423
-0.04505
-0.04505
-0.04505
-0.04915
-0.04997
-0.04997
-0.04997
-0.04997
-0.04997
-0.04587
-0.03359
-0.02212
-0.00819
0.00246
0.01720
0.03604
0.04014
0.04014
0.04014
0.04014
0.04014
0.04423
0.04505
0.03686
0.01966
0.00328
-0.00819
-0.02212
-0.03277
-0.04669
-0.05816
-0.06389
-0.06881
-0.06963
-0.07372
-0.07127
-0.06963
-0.06963
-0.06963
-0.06963
-0.06635
-0.06881
-0.07372
-0.07536
-0.07536
-0.07536
-0.07536
-0.07536
-0.07536
-0.07536
-0.07127
-0.06963
-0.07372
-0.07536
-0.07536
-0.07536
-0.07127
-0.06963
-0.07372
-0.07536
-0.07127
-0.06963
-0.06963
-0.06963
-0.06963
-0.06226
-0.05243
-0.03113
0.00164
0.04423
0.10485
0.18513
0.28097
0.37353
0.40302
0.32111
0.14663
-0.05570
-0.24575
-0.40057
-0.50378
-0.56686
-0.60290
-0.59880
-0.55703
-0.47675
-0.37517
-0.27442
-0.18922
-0.13188
-0.09011
-0.06471
-0.04833
-0.03768
-0.03113
-0.03031
-0.03031
-0.02621
-0.02539
-0.02130
-0.01638
-0.01474
-0.01147
-0.00983
-0.00983
-0.00983
-0.00983
-0.00983
-0.00983
-0.00983
-0.00983
-0.00983
-0.00983
-0.00655
-0.00491
-0.00491
-0.00491
-0.00491
-0.00491
-0.00491
-0.00164
0.00000
0.00000
0.00410
0.00491
0.00491
0.00901
0.00983
0.01393
0.01474
0.01474
0.01474
0.01474
0.01474
0.01474
0.01474
0.01474
0.01474
0.01474
0.01474
0.01884
0.01966
0.02376
0.02539
0.02539
0.02539
0.02539
0.02539
0.02539
0.02130
0.01966
0.01966
0.01966
0.01966
0.01966
0.02376
0.02539
0.02539
0.02867
0.03031
0.03031
0.03359
0.03522
0.03522
0.03522
0.03113
0.03031
0.03031
0.03031
0.03031
0.03031
0.03031
0.03031
0.03031
0.03031
0.03031
0.03031
0.03031
0.03031
0.03031
0.03031
0.03031
0.02621
0.02539
0.02539
0.02539
0.02130
0.02376
0.02539
0.02539
0.02539
0.02539
0.02539
0.02539
0.02130
0.01966
0.01638
0.01474
0.01474
0.01147
0.00983
0.00655
0.00491
0.00491
0.00491
0.00164
0.00000
-0.00328
-0.00491
-0.00491
-0.00819
-0.00983
-0.01393
-0.01884
-0.02376
-0.02867
-0.03031
-0.03031
-0.03359
-0.03522
-0.03522
-0.03522
-0.03850
-0.04014
-0.04014
-0.04014
-0.03686
-0.03522
-0.03522
-0.03522
-0.03522
-0.03522
-0.03522
-0.03522
-0.03522
-0.03522
-0.03113
-0.03031
-0.03031
-0.03031
-0.03031
-0.03031
-0.03031
-0.03031
-0.03031
-0.03031
-0.03031
-0.03031
-0.03031
-0.03031
-0.03031
-0.03031
-0.03031
-0.03031
-0.03031
-0.03031
-0.03031
-0.03031
-0.03031
-0.03031
-0.03031
-0.03031
-0.03031
-0.02294
-0.00983
0.00164
0.01147
0.02867
0.04178
0.04833
0.04997
0.04669
0.04505
0.04505
0.05161
0.05816
0.05325
0.04342
0.02621
0.01311
0.00000
-0.01556
-0.02703
-0.03359
-0.03850
-0.04342
-0.04833
-0.04997
-0.04997
-0.04997
-0.04669
-0.04505
-0.04505
-0.04505
-0.04505
-0.04505
-0.04505
-0.04833
-0.04669
-0.04833
-0.04669
-0.04505
-0.04505
-0.04833
-0.04997
-0.04997
-0.05325
-0.05488
-0.05488
-0.05488
-0.05161
-0.04997
-0.04997
-0.04997
-0.04997
-0.04669
-0.04178
-0.03686
-0.03195
-0.02703
-0.01147
0.00819
0.03850
0.09011
0.15646
0.24984
0.35469
0.40630
0.36534
0.23428
0.05816
-0.12042
-0.28179
-0.40712
-0.49477
-0.54310
-0.55211
-0.52344
-0.45709
-0.36452
-0.26786
-0.18595
-0.12369
-0.08847
-0.06389
-0.04505
-0.03359
-0.02703
-0.02212
-0.02294
-0.02539
-0.02212
-0.01966
-0.01638
-0.01474
-0.01147
-0.00983
-0.00983
-0.00983
-0.00983
-0.00983
-0.00655
-0.00491
-0.00491
-0.00491
-0.00491
-0.00491
-0.00491
-0.00491
-0.00491
-0.00491
-0.00164
0.00000
0.00328
0.00491
0.00491
0.00491
0.00491
0.00491
0.00819
0.00983
0.00983
0.00983
0.00983
0.01311
0.01474
0.01474
0.01474
0.01474
0.01474
0.01474
0.01474
0.01474
0.01474
0.01474
0.01474
0.01474
0.01474
0.01474
0.01474
0.01474
0.01474
0.01474
0.01474
0.01474
0.01474
0.01802
0.01966
0.02294
0.02539
0.02539
0.02539
0.02539
0.02212
0.01966
0.01966
0.01966
0.01966
0.01966
0.01966
0.01966
0.01966
0.01966
0.01966
0.01720
0.01474
0.01474
0.01474
0.01474
0.01474
0.01474
0.01474
0.01474
0.01474
0.01474
0.01474
0.01474
0.01474
0.01474
0.01474
0.01474
0.01474
0.01474
0.01474
0.01474
0.01474
0.01802
0.01966
0.01966
0.01966
0.01966
0.01966
0.01966
0.01720
0.01474
0.01474
0.01474
0.01474
0.01229
0.00983
0.00983
0.00983
0.00737
0.00491
0.00164
-0.00328
-0.00819
-0.01638
-0.01966
-0.01966
-0.02294
-0.02785
-0.03277
-0.03768
-0.04014
-0.04342
-0.04505
-0.04505
-0.04833
-0.04997
-0.04997
-0.04997
-0.04997
-0.04997
-0.04997
-0.04997
-0.04997
-0.04669
-0.04505
-0.04505
-0.04833
-0.04997
-0.04997
-0.04997
-0.04997
-0.04997
-0.04997
-0.04669
-0.04505
-0.04505
-0.04505
-0.04505
-0.04505
-0.04178
-0.03686
-0.03522
-0.03522
-0.03522
-0.03768
-0.04014
-0.03686
-0.03522
-0.03768
-0.04014
-0.04260
-0.04505
-0.04505
-0.04505
-0.04505
-0.04178
-0.03440
-0.01802
-0.00410
0.00901
0.02703
0.03768
0.04260
0.04178
0.04014
0.04014
0.04260
0.05079
0.05243
0.04096
0.02621
0.01147
-0.00082
-0.01393
-0.02539
-0.03604
-0.04587
-0.05325
-0.05816
-0.05980
-0.06307
-0.06471
-0.06471
-0.06471
-0.06471
-0.06471
-0.06471
-0.06799
-0.06717
-0.06471
-0.06471
-0.06799
-0.06963
-0.06963
-0.06963
-0.06963
-0.06963
-0.06963
-0.06963
-0.06963
-0.06717
-0.06471
-0.06471
-0.06471
-0.06471
-0.06471
-0.06226
-0.05980
-0.05980
-0.05980
-0.05734
-0.04915
-0.03686
-0.01556
0.01720
0.06553
0.13188
0.21298
0.30882
0.38828
0.38992
0.28916
0.10813
-0.09093
-0.26704
-0.40958
-0.50706
-0.56522
-0.59061
-0.57832
-0.52590
-0.44234
-0.34159
-0.24493
-0.17202
-0.12042
-0.08929
-0.06881
-0.05488
-0.04423
-0.03686
-0.03195
-0.03031
-0.03031
-0.03031
-0.02703
-0.02539
-0.02539
-0.02539
-0.02539
-0.02539
-0.02212
-0.01966
-0.01720
-0.01474
-0.01474
-0.01229
-0.00983
-0.00983
-0.00737
-0.00491
-0.00491
-0.00491
-0.00491
-0.00491
-0.00491
-0.00491
-0.00491
-0.00246
0.00000
0.00000
0.00000
0.00000
0.00246
0.00491
0.00737
0.00983
0.00983
0.00983
0.00983
0.00983
0.01229
0.01474
0.01474
0.01474
0.01474
0.01474
0.01474
0.01474
0.01474
0.01474
0.01474
0.01474
0.01474
0.01474
0.01474
0.01474
0.01474
0.01802
0.01966
0.01966
0.02294
0.02539
0.02539
0.02539
0.02212
0.01966
0.02294
0.02539
0.02539
0.02539
0.02539
0.02539
0.02539
0.02785
0.03031
0.03031
0.02703
0.02539
0.02539
0.02212
0.01720
0.01474
0.01474
0.01474
0.01474
0.01474
0.01474
0.01474
0.01474
0.01474
0.01474
0.01720
0.01966
0.01966
0.01720
0.01474
0.01474
0.01474
0.01474
0.01474
0.01474
0.01474
0.01474
0.01474
0.01474
0.01474
0.01229
0.00983
0.00983
0.00983
0.00737
0.00491
0.00246
-0.00246
-0.00491
-0.00491
-0.00737
-0.01229
-0.01720
-0.01966
-0.02212
-0.02785
-0.03031
-0.03031
-0.03031
-0.03031
-0.03277
-0.03522
-0.03522
-0.03522
-0.03522
-0.03522
-0.03522
-0.03522
-0.03522
-0.03522
-0.03522
-0.03522
-0.03522
-0.03277
-0.03031
-0.03031
-0.03031
-0.03031
-0.02785
-0.02539
-0.02539
-0.02539
-0.02539
-0.02539
-0.02539
-0.02539
-0.02539
-0.02539
-0.02539
-0.02539
-0.02703
-0.03031
-0.03031
-0.03031
-0.03031
-0.03031
-0.03031
-0.03031
-0.03277
-0.03277
-0.03031
-0.03277
-0.03277
-0.03031
-0.03031
-0.02539
-0.01311
0.00000
0.01229
0.02949
0.04014
0.04260
0.04260
0.04014
0.04260
0.04997
0.05980
0.06471
0.05816
0.04260
0.02539
0.00819
-0.00491
-0.01720
-0.02703
-0.03440
-0.04260
-0.04505
-0.04505
-0.04751
-0.04997
-0.05243
-0.05488
-0.05488
-0.05488
-0.05488
-0.05488
-0.05488
-0.05488
-0.05488
-0.05488
-0.05488
-0.05488
-0.05488
-0.05488
-0.05488
-0.05734
-0.05980
-0.05734
-0.05734
-0.05980
-0.05980
-0.05980
-0.05980
-0.05980
-0.05980
-0.05734
-0.05488
-0.05488
-0.05488
-0.05243
-0.04751
-0.03850
-0.01638
0.02048
0.07454
0.15154
0.25230
0.36043
0.42678
0.40139
0.27114
0.07209
-0.13106
-0.30554
-0.43743
-0.52672
-0.57832
-0.59061
-0.55784
-0.48658
-0.39729
-0.30227
-0.21626
-0.15482
-0.11632
-0.09093
-0.07290
-0.06062
-0.05243
-0.04751
-0.04260
-0.03768
-0.03522
-0.03522
-0.03522
-0.03522
-0.03522
-0.03522
-0.03277
-0.03031
-0.02785
-0.02294
-0.01966
-0.01802
-0.01474
-0.01474
-0.01311
-0.00983
-0.00819
-0.00491
-0.00491
-0.00491
-0.00491
-0.00491
-0.00491
-0.00491
-0.00491
-0.00491
-0.00246
0.00000
0.00246
0.00491
0.00491
0.00737
0.00983
0.00983
0.00983
0.00983
0.00819
0.00491
0.00491
0.00491
0.00491
0.00491
0.00737
0.00983
0.00983
0.00983
0.00983
0.00983
0.00983
0.00983
0.01229
0.01474
0.01474
0.01474
0.01474
0.01474
0.01720
0.01966
0.01966
0.01966
0.02212
0.02539
0.02294
0.01966
0.01966
0.02212
0.02539
0.02539
0.02294
0.01966
0.02212
0.02539
0.02703
0.03031
0.03031
0.03031
0.03031
0.03031
0.03031
0.03031
0.03031
0.03031
0.03031
0.03031
0.02785
0.02539
0.02539
0.02703
0.03031
0.03031
0.03031
0.03031
0.03031
0.03031
0.02785
0.02539
0.02703
0.03031
0.03031
0.03031
0.03031
0.03195
0.03522
0.03522
0.03277
0.03031
0.02785
0.02539
0.02539
0.02294
0.01802
0.01311
0.00819
0.00328
-0.00164
-0.00491
-0.00737
-0.01229
-0.01720
-0.01966
-0.02212
-0.02703
-0.03031
-0.03031
-0.03195
-0.03522
-0.03686
-0.04014
-0.04014
-0.04014
-0.04014
-0.04014
-0.04014
-0.04014
-0.04014
-0.04014
-0.04178
-0.04669
-0.04997
-0.04997
-0.04997
-0.05161
-0.05488
-0.05488
-0.05488
-0.05734
-0.05980
-0.05980
-0.05980
-0.05816
-0.05488
-0.05488
-0.05488
-0.05488
-0.05488
-0.05488
-0.05488
-0.05488
-0.05488
-0.05488
-0.05488
-0.05488
-0.05488
-0.05488
-0.05488
-0.05325
-0.04833
-0.04669
-0.04997
-0.05161
-0.05488
-0.05488
-0.05488
-0.05488
-0.05488
-0.04915
-0.03604
-0.02212
-0.00410
0.01065
0.02376
0.03031
0.03031
0.02785
0.02539
0.02539
0.02867
0.03277
0.02621
0.01474
0.00164
-0.01229
-0.03031
-0.04587
-0.05898
-0.06881
-0.07700
-0.08192
-0.08519
-0.08683
-0.09175
-0.09502
-0.09338
-0.09011
-0.08847
-0.08683
-0.09011
-0.09175
-0.09502
-0.09502
-0.09502
-0.09502
-0.09502
-0.09502
-0.09502
-0.09666
-0.09994
-0.09830
-0.09502
-0.09502
-0.09502
-0.09502
-0.09502
-0.09502
-0.09338
-0.09011
-0.09011
-0.08847
-0.08519
-0.08355
-0.07618
-0.06471
-0.04423
-0.00901
0.04260
0.11468
0.20725
0.30636
0.37353
0.36207
0.24902
0.06307
-0.13844
-0.31947
-0.45873
-0.55293
-0.60536
-0.62338
-0.60454
-0.54883
-0.46692
-0.36862
-0.27032
-0.19414
-0.14089
-0.10649
-0.08519
-0.07127
-0.06144
-0.05488
-0.05325
-0.04833
-0.04505
-0.04505
-0.04342
-0.04014
-0.04014
-0.04014
-0.04014
-0.03850
-0.03359
-0.03031
-0.03031
-0.03031
-0.03031
-0.03031
-0.03031
-0.03031
-0.02867
-0.02539
-0.02539
-0.02294
-0.01966
-0.01802
-0.01474
-0.01474
-0.01474
-0.01474
-0.01311
-0.00983
-0.00819
-0.00491
-0.00491
-0.00491
-0.00491
-0.00491
-0.00328
0.00000
0.00000
0.00164
0.00491
0.00655
0.00983
0.00819
0.00328
0.00164
0.00491
0.00655
0.00983
0.00983
0.01147
0.01474
0.01474
0.01474
0.01474
0.01474
0.01474
0.01474
0.01638
0.02130
0.02539
0.02621
0.03031
0.02867
0.02539
0.02376
0.01966
0.01966
0.01966
0.01966
0.01966
0.01966
0.01966
0.02130
0.02539
0.02539
0.02539
0.02539
0.02539
0.02539
0.02376
0.01966
0.01884
0.01474
0.01474
0.01474
0.01474
0.01474
0.01474
0.01474
0.01474
0.01311
0.00983
0.00983
0.00983
0.00983
0.01147
0.01311
0.00983
0.00983
0.00983
0.00819
0.00491
0.00328
0.00164
0.00491
0.00491
0.00328
0.00000
-0.00164
-0.00491
-0.00491
-0.00491
-0.00655
-0.01311
-0.02130
-0.02621
-0.03031
-0.03031
-0.03277
-0.04178
-0.04669
-0.04997
-0.04997
-0.05161
-0.05652
-0.05980
-0.05980
-0.05816
-0.05488
-0.05488
-0.05488
-0.05488
-0.05488
-0.05488
-0.05652
-0.05980
-0.05816
-0.05488
-0.05488
-0.05488
-0.05652
-0.05980
-0.05898
-0.05488
-0.05488
-0.05488
-0.05488
-0.05488
-0.05325
-0.04997
-0.05161
-0.05488
-0.05488
-0.05488
-0.05488
-0.05488
-0.05488
-0.05488
-0.05488
-0.05488
-0.05488
-0.05488
-0.05488
-0.05488
-0.05488
-0.05488
-0.05488
-0.05488
-0.05488
-0.05079
-0.03686
-0.02621
-0.01229
-0.00082
0.01147
0.01638
0.01884
0.01474
0.01474
0.01474
0.01802
0.02539
0.02130
0.00573
-0.00737
-0.01884
-0.03113
-0.03932
-0.05243
-0.06307
-0.07290
-0.08028
-0.08028
-0.08028
-0.08028
-0.08028
-0.08028
-0.08028
-0.08028
-0.08028
-0.08028
-0.08110
-0.08519
-0.08519
-0.08519
-0.08519
-0.08519
-0.08519
-0.08519
-0.08519
-0.08519
-0.08519
-0.08601
-0.09011
-0.09011
-0.09011
-0.09011
-0.09011
-0.09011
-0.08847
-0.08519
-0.08519
-0.08519
-0.08355
-0.07864
-0.06963
-0.04833
-0.02212
0.01229
0.06881
0.14745
0.24247
0.34650
0.40466
0.35633
0.20397
-0.00082
-0.19824
-0.36207
-0.48248
-0.56358
-0.61027
-0.62010
-0.59061
-0.52262
-0.42842
-0.32029
-0.22691
-0.15892
-0.11632
-0.08519
-0.06635
-0.05406
-0.04751
-0.03850
-0.03359
-0.03031
-0.03031
-0.03031
-0.02867
-0.02539
-0.02376
-0.01884
-0.01474
-0.01474
-0.01474
-0.01474
-0.01474
-0.01393
-0.00983
-0.00983
-0.00983
-0.00901
-0.00491
-0.00491
-0.00491
-0.00491
-0.00491
-0.00491
-0.00491
-0.00410
0.00000
0.00000
0.00000
-0.00082
-0.00491
-0.00491
-0.00491
-0.00491
-0.00491
-0.00410
0.00000
0.00082
0.00491
0.00491
0.00491
0.00491
0.00573
0.00983
0.00983
0.00983
0.00983
0.01147
0.01474
0.01474
0.01474
0.01638
0.01966
0.01966
0.01966
0.01966
0.01966
0.01966
0.01884
0.01474
0.01474
0.01638
0.01966
0.01966
0.01966
0.01966
0.01966
0.01966
0.01966
0.01966
0.01884
0.01474
0.01474
0.01474
0.01474
0.01474
0.01393
0.01065
0.01474
0.01474
0.01474
0.01393
0.01065
0.01474
0.01393
0.00983
0.00983
0.00983
0.00983
0.00983
0.00983
0.00983
0.00983
0.00983
0.00983
0.00901
0.00491
0.00491
0.00410
0.00000
-0.00082
-0.00491
-0.00491
-0.00491
-0.00491
-0.00491
-0.00491
-0.00573
-0.00983
-0.00983
-0.00983
-0.01065
-0.01474
-0.01638
-0.02130
-0.02621
-0.03031
-0.03113
-0.03604
-0.04096
-0.04587
-0.05079
-0.05488
-0.05488
-0.05488
-0.05570
-0.05980
-0.05980
-0.06062
-0.06471
-0.06389
-0.05980
-0.05980
-0.05898
-0.05488
-0.05488
-0.05488
-0.05488
-0.05488
-0.05406
-0.04997
-0.04915
-0.04505
-0.04505
-0.04423
-0.04014
-0.04014
-0.03932
-0.03522
-0.03522
-0.03522
-0.03522
-0.03522
-0.03522
-0.03522
-0.03522
-0.03604
-0.04014
-0.04014
-0.04014
-0.04014
-0.04014
-0.04014
-0.03932
-0.03440
-0.02785
-0.01802
-0.00819
0.00246
0.01720
0.03195
0.04096
0.04505
0.04423
0.04014
0.04014
0.04096
0.04505
0.04423
0.03850
0.02785
0.01311
0.00328
-0.00819
-0.02703
-0.03686
-0.04587
-0.05079
-0.05488
-0.05488
-0.05488
-0.05488
-0.05488
-0.05488
-0.05488
-0.05488
-0.05488
-0.05488
-0.05488
-0.05488
-0.05488
-0.05488
-0.05570
-0.05980
-0.06062
-0.06471
-0.06553
-0.06963
-0.06963
-0.06963
-0.06963
-0.06963
-0.06963
-0.06963
-0.06963
-0.06963
-0.07045
-0.07536
-0.07454
-0.06963
-0.06963
-0.06307
-0.05161
-0.03031
0.00164
0.04997
0.11714
0.20069
0.30145
0.36370
0.33667
0.20151
0.01147
-0.17939
-0.33995
-0.46856
-0.55784
-0.60863
-0.62747
-0.60617
-0.54228
-0.44972
-0.34650
-0.25394
-0.18267
-0.13598
-0.10731
-0.08847
-0.07864
-0.06963
-0.06471
-0.06389
-0.05980
-0.05980
-0.05898
-0.05488
-0.05488
-0.05488
-0.05488
-0.05488
-0.05488
-0.05488
-0.05488
-0.05488
-0.05488
-0.05488
-0.05406
-0.04997
-0.04997
-0.04915
-0.04505
-0.04505
-0.04423
-0.04014
-0.04014
-0.04014
-0.03932
-0.03522
-0.03604
-0.04014
-0.03932
-0.03522
-0.03522
-0.03522
-0.03522
-0.03440
-0.03031
-0.03031
-0.03031
-0.03031
-0.03031
-0.03031
-0.03031
-0.02949
-0.02539
-0.02539
-0.02539
-0.02539
-0.02457
-0.01966
-0.01474
-0.01474
-0.01474
-0.01474
-0.01474
-0.00983
-0.00901
-0.00491
-0.00491
-0.00410
0.00082
0.00410
0.00000
0.00000
0.00000
0.00000
0.00000
0.00000
0.00000
0.00082
0.00491
0.00491
0.00491
0.00573
0.00983
0.00983
0.00983
0.00983
0.00983
0.00983
0.00983
0.01065
0.01474
0.01474
0.01474
0.01474
0.01556
0.01966
0.01966
0.01474
0.01474
0.01474
0.01474
0.01474
0.01556
0.01966
0.01966
0.02048
0.02539
0.02539
0.02539
0.02539
0.02539
0.03031
0.03031
0.02949
0.02457
0.01966
0.01966
0.01966
0.01474
0.01474
0.01474
0.00983
0.00983
0.00491
0.00491
-0.00082
-0.00491
-0.00573
-0.01065
-0.01556
-0.02048
-0.02539
-0.03031
-0.03031
-0.03031
-0.03522
-0.03522
-0.03522
-0.03522
-0.03522
-0.03522
-0.03522
-0.03522
-0.04014
-0.04014
-0.04014
-0.03932
-0.03522
-0.03440
-0.03031
-0.03031
-0.03031
-0.03031
-0.03031
-0.03031
-0.03031
-0.03031
-0.03031
-0.03031
-0.03031
-0.03031
-0.03031
-0.03031
-0.03031
-0.03031
-0.03031
-0.03031
-0.03031
-0.03031
-0.03031
-0.03031
-0.03031
-0.03031
-0.02949
-0.01884
-0.00410
0.00573
0.01638
0.03604
0.05079
0.05980
0.05980
0.05570
0.05980
0.06062
0.06471
0.06471
0.05406
0.03932
0.02867
0.01393
0.00410
-0.00573
-0.02048
-0.03031
-0.03522
-0.03522
-0.04014
-0.04014
-0.04505
-0.04997
-0.05488
-0.05488
-0.05488
-0.05488
-0.05488
-0.05488
-0.04997
-0.04997
-0.05488
-0.05488
-0.05488
-0.05488
-0.05488
-0.05488
-0.05488
-0.05488
-0.05488
-0.05488
-0.05488
-0.04997
-0.04997
-0.04997
-0.04997
-0.04997
-0.04997
-0.04997
-0.04997
-0.04505
-0.03932
-0.02949
-0.01311
0.01720
0.05816
0.11960
0.20561
0.30964
0.40630
0.42023
0.32111
0.14008
-0.06307
-0.23755
-0.38992
-0.49313
-0.55703
-0.59471
-0.58242
-0.52590
-0.44071
-0.33585
-0.23592
-0.15236
-0.09912
-0.07454
-0.05406
-0.03440
-0.02949
-0.01966
-0.01966
-0.01966
-0.01966
-0.01966
-0.01966
-0.01966
-0.01966
-0.01474
-0.01474
-0.01474
-0.01474
-0.01474
-0.01474
-0.01474
-0.00983
-0.00491
-0.00491
-0.00491
-0.00491
-0.00491
-0.00491
0.00000
0.00000
-0.00491
-0.00491
-0.00491
-0.00491
0.00000
0.00000
0.00000
0.00491
0.00491
0.00491
0.00000
0.00000
0.00000
0.00000
0.00000
0.00000
0.00000
-0.00491
-0.00491
-0.00491
-0.00491
-0.00491
-0.00491
-0.00491
-0.00491
-0.00491
-0.00491
-0.00491
-0.00491
-0.00491
-0.00491
-0.00983
-0.01474
-0.00983
-0.00983
-0.00983
-0.00983
-0.00983
-0.00983
-0.00983
-0.00491
-0.00491
-0.00491
-0.00491
-0.00491
-0.00491
-0.00491
0.00000
0.00000
0.00000
0.00000
-0.00491
-0.00491
-0.00491
-0.00491
-0.00491
0.00000
0.00000
0.00491
0.00491
0.00491
0.00491
0.00491
0.00491
0.00491
0.00491
0.00983
0.00983
0.00983
0.00983
0.00491
0.00491
0.00491
0.00491
0.00491
0.00491
0.00491
0.00491
0.00491
0.00491
0.00491
0.00491
0.00000
-0.00491
-0.00491
-0.00491
-0.00491
-0.00983
-0.01474
-0.01474
-0.01966
-0.01966
-0.03031
-0.03031
-0.03522
-0.04014
-0.04505
-0.04997
-0.04997
-0.04997
-0.04997
-0.05488
-0.05488
-0.05488
-0.05488
-0.05488
-0.05488
-0.05488
-0.05488
-0.05980
-0.05488
-0.05488
-0.05488
-0.05488
-0.05488
-0.05488
-0.05488
-0.05488
-0.05488
-0.05488
-0.05488
-0.04997
-0.04997
-0.04505
-0.04505
-0.04505
-0.04014
-0.04014
-0.04014
-0.04014
-0.04014
-0.04014
-0.03522
-0.03522
-0.03522
-0.03031
-0.03522
-0.03522
-0.04014
-0.04014
-0.04014
-0.03522
-0.02539
-0.01065
0.00000
0.01474
0.02949
0.03932
0.04505
0.04505
0.04505
0.04505
0.04997
0.05980
0.05980
0.05488
0.04014
0.02539
0.01556
0.00082
-0.00983
-0.02457
-0.02949
-0.03522
-0.04014
-0.04014
-0.04014
-0.04014
-0.04505
-0.04505
-0.04997
-0.04997
-0.05488
-0.05488
-0.05488
-0.04997
-0.04505
-0.04014
-0.04014
-0.04014
-0.04014
-0.04014
-0.04014
-0.04014
-0.04014
-0.04014
-0.04505
-0.04997
-0.04997
-0.04505
-0.04505
-0.04505
-0.04505
-0.04505
-0.04505
-0.04505
-0.04014
-0.04014
-0.03031
-0.02048
-0.00082
0.03359
0.08273
0.15646
0.25967
0.35961
0.39319
0.32357
0.15892
-0.03440
-0.21052
-0.36207
-0.47429
-0.54638
-0.59225
-0.59471
-0.55211
-0.47429
-0.37599
-0.27606
-0.19496
-0.13844
-0.10239
-0.08110
-0.06553
-0.05570
-0.04997
-0.04997
-0.04505
-0.04014
-0.03522
-0.03522
-0.03522
-0.03031
-0.03031
-0.03031
-0.02539
-0.02539
-0.02539
-0.02048
-0.01556
-0.01474
-0.01065
-0.00983
-0.00983
-0.01474
-0.01065
-0.00983
-0.00983
-0.00573
-0.00491
-0.00491
-0.00491
0.00000
0.00000
0.00000
0.00491
0.00491
0.00491
0.00983
0.01474
0.01474
0.01474
0.01474
0.01474
0.01474
0.01474
0.01474
0.01474
0.01065
0.00983
0.00983
0.00983
0.01474
0.01474
0.01474
0.01474
0.01474
0.01474
0.01474
0.01474
0.01474
0.01474
0.01065
0.00983
0.00983
0.00983
0.01474
0.01474
0.01474
0.01065
0.00983
0.00983
0.00983
0.00983
0.01474
0.01474
0.01474
0.01065
0.00983
0.00983
0.00983
0.01474
0.01474
0.01474
0.01474
0.01474
0.01474
0.01474
0.01474
0.01474
0.01474
0.01474
0.01474
0.01474
0.01474
0.01474
0.01065
0.00983
0.00983
0.00983
0.00983
0.01474
0.01474
0.01474
0.01474
0.01474
0.01474
0.01065
0.01474
0.01474
0.01474
0.01474
0.01065
0.00573
0.00491
0.00491
0.00082
0.00000
-0.00410
-0.00491
-0.00491
-0.00983
-0.00983
-0.01474
-0.01474
-0.01966
-0.02457
-0.02949
-0.03440
-0.03932
-0.04423
-0.04915
-0.05406
-0.05488
-0.05488
-0.05488
-0.05488
-0.05488
-0.05488
-0.05488
-0.05488
-0.05488
-0.05488
-0.05488
-0.05488
-0.05488
-0.05488
-0.05079
-0.04997
-0.04587
-0.04505
-0.04505
-0.04505
-0.04505
-0.04915
-0.04587
-0.04505
-0.04505
-0.04505
-0.04505
-0.04505
-0.04915
-0.04587
-0.04505
-0.04096
-0.04014
-0.04014
-0.04014
-0.04014
-0.03522
-0.03031
-0.02130
-0.00655
0.00410
0.01802
0.03768
0.04423
0.04505
0.04096
0.04014
0.04014
0.04423
0.05406
0.05079
0.04096
0.03113
0.01720
0.00655
-0.00328
-0.01802
-0.02867
-0.03850
-0.04423
-0.04915
-0.04997
-0.04587
-0.04505
-0.04505
-0.04505
-0.04505
-0.04505
-0.04505
-0.04505
-0.04505
-0.04915
-0.04587
-0.04505
-0.04505
-0.04505
-0.04505
-0.04505
-0.04505
-0.04505
-0.04505
-0.04096
-0.04014
-0.04014
-0.04014
-0.04014
-0.04014
-0.04014
-0.04014
-0.04014
-0.03604
-0.03522
-0.03113
-0.03031
-0.01720
0.00164
0.03031
0.07290
0.13926
0.22609
0.33340
0.41777
0.41695
0.30473
0.11960
-0.07127
-0.24001
-0.37927
-0.47183
-0.52754
-0.55211
-0.53409
-0.47921
-0.39401
-0.29162
-0.19905
-0.13025
-0.08601
-0.05898
-0.03359
-0.02130
-0.01147
-0.00573
-0.00491
-0.00491
-0.00491
-0.00491
-0.00491
-0.00491
-0.00491
-0.00491
-0.00491
-0.00491
-0.00491
-0.00491
-0.00491
-0.00491
-0.00491
-0.00491
-0.00491
-0.00491
-0.00491
-0.00491
-0.00491
-0.00491
-0.00491
-0.00491
-0.00491
-0.00491
-0.00491
-0.00491
-0.00491
-0.00491
-0.00491
-0.00491
-0.00491
-0.00491
-0.00491
-0.00491
-0.00491
-0.00491
-0.00491
-0.00491
-0.00491
-0.00491
-0.00901
-0.00983
-0.01393
-0.01474
-0.01474
-0.01065
-0.00983
-0.00983
-0.00983
-0.00983
-0.00983
-0.00983
-0.00573
-0.00491
-0.00491
-0.00491
-0.00491
-0.00082
0.00000
0.00000
0.00000
0.00000
0.00000
0.00000
0.00410
0.00491
0.00491
0.00491
0.00491
0.00491
0.00901
0.01393
0.01474
0.01474
0.01474
0.01065
0.00573
0.00491
0.00491
0.00491
0.00491
0.00491
0.00491
0.00491
0.00491
0.00491
0.00491
0.00491
0.00082
0.00000
0.00000
0.00000
0.00000
0.00410
0.00491
0.00491
0.00491
0.00491
0.00901
0.00983
0.00983
0.00983
0.00573
0.00491
0.00491
0.00491
0.00491
0.00491
0.00082
-0.00410
-0.00491
-0.00901
-0.00983
-0.00983
-0.01393
-0.01884
-0.02376
-0.02867
-0.03359
-0.03522
-0.03932
-0.04423
-0.04505
-0.04505
-0.04505
-0.04505
-0.04505
-0.04505
-0.04505
-0.04505
-0.04505
-0.04505
-0.04505
-0.04505
-0.04505
-0.04505
-0.04096
-0.04014
-0.03604
-0.03932
-0.04014
-0.04014
-0.04014
-0.03604
-0.03522
-0.03522
-0.03522
-0.03522
-0.03850
-0.04014
-0.04014
-0.04014
-0.04423
-0.04505
-0.04505
-0.04096
-0.04014
-0.03604
-0.02703
-0.01311
-0.00246
0.01147
0.02621
0.03768
0.04014
0.04014
0.03604
0.03522
0.03850
0.04423
0.04915
0.04260
0.02867
0.01720
0.00000
-0.01638
-0.02785
-0.03768
-0.04751
-0.05406
-0.05488
-0.05488
-0.05898
-0.06389
-0.06881
-0.06963
-0.06963
-0.06963
-0.07372
-0.07536
-0.07536
-0.07536
-0.07127
-0.06963
-0.06963
-0.07372
-0.07536
-0.07536
-0.07864
-0.08028
-0.08028
-0.08028
-0.08028
-0.07618
-0.07536
-0.07864
-0.08028
-0.07618
-0.07127
-0.06963
-0.06635
-0.06471
-0.06144
-0.05980
-0.05243
-0.03522
-0.00737
0.03031
0.09256
0.16629
0.26049
0.36780
0.42842
0.38746
0.24247
0.03522
-0.16957
-0.33995
-0.47019
-0.55211
-0.59962
-0.61355
-0.58897
-0.52016
-0.42924
-0.32275
-0.23182
-0.16547
-0.12042
-0.09175
-0.07782
-0.06389
-0.05652
-0.05488
-0.05488
-0.05161
-0.04997
-0.04669
-0.04505
-0.04096
-0.04014
-0.03604
-0.03522
-0.03522
-0.03113
-0.03031
-0.03031
-0.03031
-0.02621
-0.02539
-0.02130
-0.01966
-0.01966
-0.01966
-0.01638
-0.01474
-0.01474
-0.01474
-0.01474
-0.01474
-0.01147
-0.00655
-0.00491
-0.00491
-0.00164
0.00328
0.00491
0.00491
0.00901
0.00983
0.01393
0.01474
0.01474
0.01474
0.01474
0.01474
0.01474
0.01474
0.01474
0.01474
0.01474
0.01474
0.01474
0.01884
0.01966
0.02376
0.02867
0.03031
0.03031
0.02621
0.02539
0.02867
0.03031
0.03031
0.02621
0.02539
0.02867
0.03031
0.03031
0.03031
0.03031
0.03031
0.03031
0.03359
0.03850
0.04014
0.04014
0.04014
0.04014
0.04014
0.04014
0.04014
0.04014
0.03604
0.03522
0.03522
0.03850
0.04014
0.04014
0.04014
0.04014
0.04014
0.04014
0.04014
0.04014
0.04014
0.04014
0.04014
0.04014
0.04014
0.04014
0.04014
0.04014
0.04014
0.04014
0.04014
0.04014
0.04014
0.04014
0.04014
0.03686
0.03113
0.03031
0.02621
0.02130
0.01638
0.01474
0.01147
0.00983
0.00655
0.00164
-0.00328
-0.00491
-0.00819
-0.01311
-0.01884
-0.01966
-0.02376
-0.02867
-0.03031
-0.03359
-0.03850
-0.04014
-0.04014
-0.04014
-0.04014
-0.04014
-0.04014
-0.04014
-0.04014
-0.04014
-0.04342
-0.04505
-0.04505
-0.04505
-0.04505
-0.04505
-0.04505
-0.04505
-0.04833
-0.04669
-0.04505
-0.04505
-0.04178
-0.04014
-0.04014
-0.04014
-0.04014
-0.04342
-0.04505
-0.04178
-0.03359
-0.01966
-0.00819
0.00491
0.01638
0.02703
0.03031
0.02621
0.02130
0.01966
0.02376
0.03195
0.03195
0.01966
0.00491
-0.00983
-0.02539
-0.03686
-0.04997
-0.06144
-0.07209
-0.07864
-0.08028
-0.08028
-0.08028
-0.08028
-0.08028
-0.08028
-0.08028
-0.08028
-0.08028
-0.08028
-0.08028
-0.08028
-0.08028
-0.08028
-0.08028
-0.08028
-0.08028
-0.07700
-0.07536
-0.07209
-0.06963
-0.07290
-0.07536
-0.07536
-0.07209
-0.06963
-0.07290
-0.07536
-0.07536
-0.07536
-0.07209
-0.06963
-0.06963
-0.06635
-0.05816
-0.04178
-0.01556
0.02130
0.07782
0.15236
0.25558
0.35387
0.38828
0.31783
0.15564
-0.04014
-0.22445
-0.37272
-0.48166
-0.55047
-0.58979
-0.59061
-0.54638
-0.47019
-0.37517
-0.27524
-0.19496
-0.14089
-0.10239
-0.08028
-0.06553
-0.05652
-0.05161
-0.04669
-0.04178
-0.04014
-0.03686
-0.03195
-0.03031
-0.03031
-0.03031
-0.03031
-0.02703
-0.02539
-0.02212
-0.01966
-0.01720
-0.01474
-0.01147
-0.00983
-0.00983
-0.00655
-0.00491
-0.00491
-0.00491
-0.00491
-0.00164
-0.00328
-0.00491
-0.00491
-0.00491
-0.00491
-0.00164
0.00000
0.00000
0.00000
0.00328
0.00491
0.00819
0.00983
0.00983
0.00983
0.00983
0.00983
0.00983
0.01311
0.01474
0.01474
0.01474
0.01474
0.01474
0.01474
0.01474
0.01474
0.01474
0.01474
0.01474
0.01474
0.01474
0.01474
0.01802
0.01966
0.02294
0.02539
0.02785
0.03277
0.03522
0.03522
0.03522
0.03522
0.03850
0.04014
0.03686
0.03522
0.03522
0.03522
0.03522
0.03522
0.03522
0.03768
0.04014
0.04014
0.04014
0.03686
0.03522
0.03522
0.03522
0.03522
0.03522
0.03522
0.03195
0.03031
0.03031
0.03031
0.03277
0.03195
0.03031
0.03031
0.02703
0.02539
0.02539
0.02212
0.01966
0.01966
0.01720
0.01474
0.01474
0.01474
0.01474
0.01474
0.01474
0.01474
0.01474
0.01474
0.01474
0.01229
0.00737
0.00164
-0.00328
-0.00819
-0.01638
-0.02294
-0.02785
-0.03031
-0.03031
-0.03277
-0.03522
-0.03768
-0.04260
-0.04505
-0.04833
-0.04997
-0.04997
-0.04997
-0.04997
-0.04997
-0.04997
-0.04669
-0.04505
-0.04505
-0.04505
-0.04505
-0.04505
-0.04505
-0.04178
-0.04014
-0.03686
-0.03522
-0.03522
-0.03522
-0.03768
-0.04260
-0.04505
-0.04505
-0.04505
-0.04505
-0.04751
-0.04997
-0.04997
-0.04997
-0.04997
-0.04997
-0.04997
-0.04669
-0.03932
-0.02949
-0.01638
-0.00737
0.00655
0.01802
0.02294
0.02212
0.01966
0.01966
0.02294
0.02785
0.03031
0.02703
0.01638
0.00164
-0.01393
-0.02539
-0.03850
-0.05079
-0.06062
-0.07045
-0.07782
-0.08028
-0.08273
-0.08765
-0.09011
-0.09011
-0.08683
-0.08519
-0.08519
-0.08519
-0.08765
-0.09011
-0.09011
-0.09256
-0.09256
-0.09011
-0.09011
-0.09011
-0.09011
-0.09011
-0.09011
-0.08683
-0.08519
-0.08192
-0.08028
-0.08028
-0.08028
-0.08028
-0.08028
-0.08273
-0.08192
-0.08028
-0.08028
-0.07700
-0.06635
-0.05161
-0.02867
0.00737
0.06144
0.13188
0.21790
0.32111
0.40302
0.39975
0.28343
0.09093
-0.11304
-0.29162
-0.43169
-0.52672
-0.58488
-0.61027
-0.59880
-0.54392
-0.45463
-0.35469
-0.26049
-0.18431
-0.13270
-0.09830
-0.07372
-0.05980
-0.05243
-0.04751
-0.04260
-0.04014
-0.03686
-0.03522
-0.03522
-0.03195
-0.03031
-0.03031
-0.03031
-0.03031
-0.03031
-0.03031
-0.02703
-0.02539
-0.02212
-0.01966
-0.01966
-0.01966
-0.01720
-0.01474
-0.01474
-0.01474
-0.01229
-0.00737
-0.00491
-0.00491
-0.00491
-0.00491
-0.00491
-0.00491
-0.00491
-0.00491
-0.00491
-0.00491
-0.00246
0.00246
0.00491
0.00491
0.00491
0.00491
0.00491
0.00491
0.00737
0.00737
0.00491
0.00737
0.00983
0.00983
0.00983
0.01229
0.01474
0.01474
0.01229
0.01229
0.01474
0.01474
0.01474
0.01474
0.01474
0.01474
0.01474
0.01720
0.01966
0.02294
0.02539
0.02539
0.02539
0.02539
0.02539
0.02212
0.02294
0.02539
0.02539
0.02212
0.01966
0.01966
0.01966
0.01966
0.01966
0.01720
0.01474
0.01474
0.01474
0.01474
0.01474
0.01474
0.01474
0.01474
0.01474
0.01474
0.01474
0.01474
0.01474
0.01474
0.01474
0.01229
0.00983
0.00983
0.00737
0.00491
0.00491
0.00491
0.00737
0.00983
0.00737
0.00491
0.00246
0.00000
-0.00246
-0.00491
-0.00491
-0.00491
-0.00491
-0.00737
-0.01229
-0.01720
-0.02212
-0.02785
-0.03031
-0.03031
-0.03277
-0.03522
-0.03768
-0.04014
-0.04260
-0.04751
-0.04997
-0.04997
-0.05243
-0.05488
-0.05488
-0.05488
-0.05488
-0.05488
-0.05488
-0.05488
-0.05488
-0.05488
-0.05488
-0.05488
-0.05243
-0.04751
-0.04505
-0.04505
-0.04505
-0.04505
-0.04260
-0.04014
-0.04014
-0.04014
-0.04014
-0.04014
-0.04014
-0.04014
-0.04014
-0.03768
-0.03522
-0.03277
-0.02294
-0.00983
0.00246
0.01720
0.03195
0.04014
0.04014
0.04014
0.04014
0.04014
0.04260
0.04751
0.04505
0.03522
0.02294
0.00819
-0.00737
-0.02212
-0.03440
-0.04751
-0.05488
-0.05734
-0.06226
-0.06471
-0.06717
-0.06963
-0.06963
-0.06963
-0.06963
-0.06963
-0.06963
-0.06963
-0.06963
-0.06963
-0.06963
-0.06963
-0.06963
-0.07209
-0.07290
-0.06963
-0.06963
-0.06963
-0.06963
-0.07209
-0.07290
-0.06963
-0.06963
-0.06963
-0.06963
-0.07209
-0.07536
-0.07290
-0.06799
-0.06471
-0.06471
-0.06062
-0.04833
-0.03113
-0.00655
0.03522
0.09748
0.17858
0.28261
0.37927
0.40630
0.32111
0.14827
-0.04423
-0.21380
-0.35224
-0.45627
-0.52016
-0.55211
-0.54392
-0.49559
-0.41941
-0.32439
-0.23182
-0.15810
-0.10895
-0.08110
-0.06307
-0.05079
-0.04260
-0.03768
-0.03522
-0.03277
-0.03031
-0.03031
-0.03031
-0.03031
-0.03031
-0.03031
-0.03031
-0.03031
-0.03031
-0.02785
-0.02539
-0.02294
-0.01966
-0.01966
-0.01966
-0.01966
-0.01802
-0.01474
-0.01474
-0.01474
-0.01474
-0.01474
-0.01474
-0.01474
-0.01474
-0.01474
-0.01311
-0.00983
-0.00983
-0.00983
-0.00983
-0.00983
-0.00983
-0.00983
-0.00983
-0.00983
-0.00983
-0.00983
-0.00983
-0.00983
-0.00983
-0.00983
-0.00819
-0.00491
-0.00491
-0.00491
-0.00491
-0.00491
-0.00491
-0.00491
-0.00246
0.00000
0.00246
0.00491
0.00491
0.00491
0.00328
0.00000
-0.00246
-0.00491
-0.00491
-0.00491
-0.00491
-0.00328
0.00246
0.00491
0.00491
0.00491
0.00491
0.00491
0.00491
0.00491
0.00328
0.00000
0.00000
0.00246
0.00491
0.00491
0.00328
0.00000
0.00000
0.00000
0.00246
0.00491
0.00491
0.00328
0.00000
0.00246
0.00491
0.00491
0.00491
0.00491
0.00491
0.00491
0.00491
0.00491
0.00491
0.00491
0.00491
0.00491
0.00491
0.00491
0.00491
0.00491
0.00491
0.00491
0.00491
0.00491
0.00328
-0.00164
-0.00737
-0.01229
-0.01474
-0.01720
-0.02376
-0.03031
-0.03195
-0.03686
-0.04014
-0.04178
-0.04505
-0.04669
-0.04997
-0.05161
-0.05488
-0.05488
-0.05488
-0.05488
-0.05488
-0.05734
-0.05816
-0.05488
-0.05488
-0.05488
-0.05488
-0.05488
-0.05488
-0.05488
-0.05488
-0.05325
-0.04997
-0.04997
-0.04997
-0.04997
-0.04833
-0.04505
-0.04505
-0.04505
-0.04505
-0.04505
-0.04505
-0.04505
-0.04505
-0.04505
-0.04505
-0.04505
-0.04505
-0.04505
-0.04505
-0.04505
-0.04505
-0.04342
-0.03604
-0.02621
-0.01393
-0.00082
0.01065
0.02539
0.03522
0.03522
0.03522
0.03522
0.03686
0.04178
0.04505
0.04096
0.02703
0.01147
0.00082
-0.01229
-0.02867
-0.04096
-0.05161
-0.05488
-0.05652
-0.05980
-0.05980
-0.05980
-0.05980
-0.06226
-0.06471
-0.06717
-0.06963
-0.06963
-0.06963
-0.06963
-0.06963
-0.06963
-0.06963
-0.06963
-0.06963
-0.06963
-0.06963
-0.06963
-0.06799
-0.06471
-0.06471
-0.06717
-0.06963
-0.06963
-0.06963
-0.06963
-0.07209
-0.07290
-0.06799
-0.06471
-0.06307
-0.05980
-0.05652
-0.04423
-0.02785
-0.00082
0.04669
0.11550
0.20970
0.32111
0.41122
0.41122
0.29571
0.10485
-0.09584
-0.26704
-0.39893
-0.49313
-0.54720
-0.57013
-0.55375
-0.49641
-0.40958
-0.30964
-0.21871
-0.15072
-0.10239
-0.07290
-0.05488
-0.04178
-0.03359
-0.03031
-0.03031
-0.02785
-0.02539
-0.02539
-0.02539
-0.02539
-0.02539
-0.02294
-0.01802
-0.01474
-0.01311
-0.00983
-0.00983
-0.00983
-0.00983
-0.00983
-0.00819
-0.00491
-0.00491
-0.00491
-0.00491
-0.00491
-0.00491
-0.00491
-0.00491
-0.00491
-0.00491
-0.00491
-0.00328
0.00000
0.00164
0.00491
0.00491
0.00491
0.00655
0.00983
0.01147
0.01474
0.01474
0.01311
0.00983
0.01147
0.01474
0.01474
0.01474
0.01474
0.01474
0.01474
0.01474
0.01474
0.01474
0.01474
0.01474
0.01474
0.01474
0.01474
0.01638
0.01966
0.01966
0.01966
0.01966
0.01966
0.02130
0.02539
0.02539
0.02539
0.02376
0.01966
0.01966
0.01966
0.01966
0.01966
0.01966
0.01966
0.02130
0.02539
0.02539
0.02539
0.02376
0.01802
0.01474
0.01474
0.01474
0.01474
0.01474
0.01311
0.00819
0.00491
0.00491
0.00491
0.00655
0.00983
0.00819
0.00491
0.00491
0.00491
0.00328
0.00000
0.00000
0.00000
0.00000
0.00000
0.00000
0.00000
-0.00164
-0.00491
-0.00491
-0.00491
-0.00491
-0.00491
-0.00655
-0.01147
-0.01638
-0.02130
-0.02539
-0.02621
-0.03031
-0.03031
-0.03113
-0.03686
-0.04178
-0.04505
-0.04669
-0.05161
-0.05488
-0.05488
-0.05488
-0.05488
-0.05488
-0.05488
-0.05488
-0.05652
-0.05816
-0.05488
-0.05488
-0.05488
-0.05488
-0.05488
-0.05488
-0.05488
-0.05488
-0.05488
-0.05325
-0.04997
-0.04997
-0.05161
-0.05488
-0.05488
-0.05488
-0.05488
-0.05488
-0.05488
-0.05488
-0.05488
-0.05488
-0.05488
-0.05488
-0.05488
-0.05488
-0.05325
-0.04751
-0.03686
-0.02539
-0.01065
0.00410
0.01638
0.02130
0.02539
0.02539
0.02621
0.03113
0.03604
0.03850
0.03113
0.01720
0.00573
-0.00819
-0.01884
-0.03440
-0.04751
-0.05816
-0.06635
-0.07127
-0.07536
-0.07618
-0.08028
-0.08028
-0.08028
-0.08028
-0.08028
-0.08028
-0.08028
-0.08028
-0.08028
-0.08028
-0.08028
-0.08028
-0.08028
-0.08028
-0.08028
-0.08028
-0.08028
-0.08028
-0.08028
-0.08028
-0.08028
-0.08028
-0.08028
-0.08028
-0.08028
-0.08028
-0.08028
-0.07864
-0.07536
-0.07372
-0.06881
-0.06226
-0.05079
-0.03195
0.00328
0.05734
0.12697
0.21871
0.33094
0.43006
0.43907
0.33340
0.14417
-0.06553
-0.24984
-0.39319
-0.49313
-0.55539
-0.58406
-0.56849
-0.51443
-0.42842
-0.32439
-0.22936
-0.15728
-0.10977
-0.07454
-0.05652
-0.04260
-0.03359
-0.02867
-0.02539
-0.02376
-0.01966
-0.01966
-0.01884
-0.01474
-0.01474
-0.01474
-0.01474
-0.01474
-0.01393
-0.00901
-0.00491
-0.00491
-0.00491
-0.00410
0.00000
0.00000
0.00000
0.00000
0.00000
0.00000
0.00082
0.00655
0.00983
0.01147
0.01474
0.01474
0.01474
0.01474
0.01474
0.01474
0.01474
0.01474
0.01474
0.01638
0.01966
0.01966
0.01966
0.01966
0.02130
0.02539
0.02539
0.02621
0.03031
0.02867
0.02539
0.02539
0.02539
0.02539
0.02539
0.02376
0.01966
0.02130
0.02539
0.02539
0.02539
0.02621
0.03031
0.03031
0.03031
0.03031
0.02867
0.02539
0.02621
0.03031
0.02867
0.02539
0.02539
0.02539
0.02539
0.02539
0.02539
0.02539
0.02539
0.02539
0.02539
0.02539
0.02539
0.02376
0.01966
0.01966
0.01966
0.01966
0.01966
0.01966
0.01966
0.01884
0.01638
0.01966
0.01966
0.01966
0.01966
0.01884
0.01474
0.01474
0.01474
0.01474
0.01474
0.01474
0.01474
0.01393
0.00983
0.00983
0.00983
0.00983
0.00983
0.00983
0.00901
0.00410
-0.00082
-0.00491
-0.00491
-0.00573
-0.01065
-0.01474
-0.01638
-0.02130
-0.02621
-0.03031
-0.03113
-0.03522
-0.03604
-0.04014
-0.04096
-0.04505
-0.04505
-0.04505
-0.04505
-0.04505
-0.04505
-0.04423
-0.04014
-0.04014
-0.04014
-0.04014
-0.04014
-0.04014
-0.03932
-0.03440
-0.03031
-0.03031
-0.03031
-0.03031
-0.03031
-0.03031
-0.02867
-0.02539
-0.02539
-0.02539
-0.02539
-0.02539
-0.02539
-0.02539
-0.02539
-0.02539
-0.02539
-0.02376
-0.01884
-0.01311
-0.00328
0.00655
0.01884
0.03768
0.05161
0.06062
0.06389
0.05980
0.05898
0.05570
0.06062
0.06471
0.06307
0.05243
0.03850
0.02703
0.01311
0.00328
-0.00655
-0.01720
-0.02621
-0.03031
-0.03031
-0.03031
-0.03113
-0.03604
-0.04096
-0.04505
-0.04505
-0.04505
-0.04505
-0.04423
-0.04014
-0.04014
-0.04014
-0.04096
-0.04505
-0.04505
-0.04587
-0.04997
-0.04997
-0.04997
-0.05079
-0.05488
-0.05488
-0.05488
-0.05488
-0.05488
-0.05488
-0.05406
-0.04997
-0.04997
-0.04915
-0.04505
-0.04505
-0.04423
-0.03850
-0.02621
0.00164
0.04505
0.10895
0.19742
0.30309
0.40139
0.42105
0.32357
0.15482
-0.03440
-0.21380
-0.35797
-0.46610
-0.53163
-0.56440
-0.55293
-0.50214
-0.41941
-0.32029
-0.22936
-0.16219
-0.11468
-0.08192
-0.06307
-0.04833
-0.03932
-0.03440
-0.03031
-0.03031
-0.03031
-0.02949
-0.02539
-0.02457
-0.01966
-0.01966
-0.01884
-0.01474
-0.01393
-0.00983
-0.00901
-0.00491
-0.00573
-0.00983
-0.00983
-0.00983
-0.00901
-0.00491
-0.00491
-0.00491
-0.00491
-0.00491
-0.00491
-0.00491
-0.00491
-0.00410
0.00000
0.00082
0.00573
0.00901
0.00410
0.00000
0.00000
0.00000
0.00000
0.00000
0.00082
0.00491
0.00491
0.00491
0.00491
0.00491
0.00491
0.00573
0.00983
0.00901
0.00491
0.00573
0.01065
0.01474
0.01474
0.01474
0.01474
0.01474
0.01474
0.01474
0.01474
0.01556
0.01966
0.02048
0.02539
0.02539
0.02539
0.02457
0.01966
0.01966
0.01966
0.01966
0.02048
0.02539
0.02457
0.01966
0.01474
0.01474
0.01474
0.01474
0.01474
0.01474
0.01474
0.01474
0.01474
0.01556
0.01966
0.02048
0.02539
0.02539
0.02949
0.02457
0.01966
0.01966
0.01474
0.01474
0.01474
0.01474
0.01556
0.01966
0.01966
0.02048
0.02539
0.02457
0.01966
0.01966
0.01966
0.01966
0.01474
0.01474
0.01474
0.01474
0.00983
0.00983
0.00410
-0.00082
-0.00491
-0.00573
-0.01065
-0.01556
-0.02048
-0.02539
-0.03031
-0.03031
-0.03031
-0.03522
-0.03522
-0.04014
-0.04014
-0.04505
-0.04505
-0.04505
-0.04505
-0.04505
-0.04505
-0.04505
-0.04505
-0.04423
-0.04014
-0.03932
-0.03522
-0.03522
-0.03522
-0.03440
-0.03031
-0.03031
-0.03031
-0.03031
-0.03031
-0.03031
-0.03031
-0.03031
-0.03031
-0.02949
-0.02539
-0.02539
-0.02539
-0.02539
-0.02539
-0.02539
-0.02539
-0.02539
-0.03031
-0.03031
-0.03031
-0.02949
-0.02376
-0.01393
-0.00410
0.00573
0.01638
0.03604
0.04505
0.04997
0.04997
0.04505
0.04505
0.04587
0.05570
0.05898
0.04915
0.03850
0.01884
0.00901
-0.00655
-0.02048
-0.03113
-0.04096
-0.05079
-0.05488
-0.05570
-0.05980
-0.05980
-0.05980
-0.05980
-0.05980
-0.05980
-0.05980
-0.05980
-0.05980
-0.05980
-0.05980
-0.05980
-0.05980
-0.05980
-0.05980
-0.05980
-0.05980
-0.05980
-0.06062
-0.06471
-0.06471
-0.06471
-0.05980
-0.05980
-0.05980
-0.05980
-0.05980
-0.05980
-0.05980
-0.05488
-0.05488
-0.05488
-0.04915
-0.03850
-0.01802
0.01802
0.06963
0.14663
0.24738
0.36534
0.43825
0.40220
0.26868
0.08355
-0.11059
-0.28343
-0.41531
-0.50296
-0.54638
-0.56358
-0.53163
-0.46446
-0.36944
-0.27524
-0.19168
-0.12779
-0.08847
-0.06389
-0.04423
-0.02949
-0.02539
-0.02457
-0.01966
-0.01966
-0.01966
-0.01966
-0.01966
-0.01966
-0.01474
-0.01474
-0.01474
-0.01474
-0.00983
-0.00491
-0.00491
-0.00491
-0.00491
-0.00491
-0.00491
-0.00491
0.00000
0.00000
0.00000
0.00000
0.00000
0.00000
0.00000
0.00000
0.00000
0.00491
0.00491
0.00983
0.00983
0.00983
0.00983
0.00983
0.00983
0.00983
0.01474
0.01474
0.01474
0.01474
0.01474
0.01474
0.01474
0.00983
0.01474
0.01474
0.01474
0.01474
0.01474
0.01474
0.01474
0.01556
0.01966
0.02048
0.02539
0.02539
0.02539
0.03031
0.03031
0.03031
0.03031
0.03522
0.03031
0.02949
0.02539
0.02539
0.02539
0.03031
0.03031
0.03031
0.03031
0.03031
0.03522
0.03522
0.03522
0.03522
0.03522
0.03031
0.02949
0.02539
0.02457
0.01966
0.01966
0.01966
0.01966
0.01966
0.01474
0.01474
0.01474
0.01474
0.01474
0.01474
0.00983
0.00983
0.00983
0.00983
0.01474
0.01474
0.01474
0.01474
0.01474
0.01474
0.01474
0.01474
0.01474
0.00983
0.00983
0.00491
0.00491
0.00000
-0.00491
-0.00491
-0.00491
-0.00983
-0.01474
-0.02539
-0.03031
-0.03031
-0.03522
-0.03522
-0.04014
-0.04505
-0.05488
-0.05488
-0.05488
-0.05488
-0.05488
-0.05488
-0.05488
-0.05488
-0.05488
-0.05488
-0.04997
-0.04997
-0.04997
-0.04997
-0.04997
-0.04997
-0.04505
-0.04505
-0.04505
-0.04014
-0.04014
-0.03522
-0.03522
-0.03522
-0.03522
-0.04014
-0.04014
-0.04014
-0.04014
-0.04505
-0.04505
-0.04505
-0.04505
-0.04997
-0.04997
-0.04997
-0.04997
-0.04997
-0.04997
-0.04997
-0.04997
-0.05488
-0.05488
-0.04997
-0.04014
-0.03031
-0.02048
-0.00491
0.01474
0.01966
0.02457
0.03031
0.03031
0.03522
0.03522
0.04014
0.04014
0.02539
0.01065
-0.00491
-0.01474
-0.02949
-0.03522
-0.04505
-0.05488
-0.05980
-0.06471
-0.06963
-0.07454
-0.07536
-0.07536
-0.07536
-0.07536
-0.08028
-0.08028
-0.08028
-0.08028
-0.08028
-0.08028
-0.08028
-0.08028
-0.08028
-0.08028
-0.08028
-0.08028
-0.08028
-0.08028
-0.08028
-0.08028
-0.08028
-0.08028
-0.08519
-0.08519
-0.08028
-0.08028
-0.07536
-0.07045
-0.06963
-0.06963
-0.06553
-0.05570
-0.03113
-0.00573
0.04342
0.11222
0.20643
0.32029
0.41122
0.42924
0.33422
0.14745
-0.05652
-0.24738
-0.39893
-0.49641
-0.56194
-0.59389
-0.58078
-0.52754
-0.44398
-0.34896
-0.24902
-0.17366
-0.11714
-0.08192
-0.06062
-0.05079
-0.03604
-0.03031
-0.03031
-0.03031
-0.03031
-0.02539
-0.02539
-0.02048
-0.01966
-0.01556
-0.01474
-0.01065
-0.00491
-0.00491
-0.00491
-0.00491
-0.00491
-0.00491
-0.00491
-0.00491
-0.00491
-0.00491
-0.00491
-0.00491
-0.00491
-0.00491
-0.00491
-0.00491
-0.00491
-0.00491
0.00000
0.00491
0.00983
0.01474
0.01474
0.01474
0.01474
0.01966
0.01966
0.01966
0.02457
0.02048
0.01966
0.02457
0.02539
0.02539
0.02539
0.02949
0.03031
0.02539
0.02539
0.02539
0.02539
0.02539
0.02949
0.03031
0.02539
0.02539
0.02539
0.02949
0.03031
0.03440
0.03522
0.03522
0.03522
0.03522
0.03932
0.03522
0.03522
0.03522
0.03522
0.03522
0.03522
0.03522
0.03522
0.03932
0.03522
0.03932
0.04014
0.04014
0.04014
0.03522
0.03522
0.03522
0.03522
0.03522
0.03522
0.03522
0.03031
0.03031
0.03031
0.03031
0.03031
0.03031
0.03440
0.03522
0.03522
0.03522
0.03522
0.03522
0.03522
0.03522
0.03031
0.03031
0.03031
0.03031
0.03031
0.03031
0.02539
0.02539
0.02048
0.01966
0.01556
0.01474
0.01474
0.01474
0.01065
0.00573
0.00082
-0.00491
-0.00491
-0.00491
-0.00983
-0.01884
-0.01966
-0.02457
-0.02539
-0.02539
-0.02539
-0.02539
-0.02949
-0.03031
-0.03031
-0.03031
-0.03440
-0.03522
-0.03522
-0.03522
-0.03522
-0.03522
-0.03522
-0.03522
-0.03522
-0.03522
-0.03031
-0.03031
-0.03031
-0.03031
-0.03031
-0.03031
-0.03031
-0.03031
-0.03031
-0.03031
-0.03031
-0.03031
-0.03031
-0.03440
-0.03522
-0.03031
-0.03031
-0.03031
-0.03031
-0.03031
-0.03031
-0.03031
-0.03031
-0.03031
-0.03031
-0.03440
-0.03522
-0.03031
-0.02539
-0.01147
-0.00082
0.01311
0.02785
0.03850
0.04014
0.04014
0.04014
0.04014
0.04014
0.04915
0.05406
0.05079
0.04096
0.02212
0.01147
-0.00328
-0.01393
-0.02785
-0.03440
-0.04342
-0.05406
-0.05488
-0.05488
-0.05898
-0.05980
-0.05980
-0.06471
-0.06471
-0.06471
-0.06963
-0.06963
-0.06963
-0.06963
-0.06963
-0.06553
-0.06471
-0.06471
-0.06471
-0.06062
-0.05980
-0.06471
-0.06471
-0.06471
-0.06471
-0.06062
-0.05980
-0.05980
-0.05980
-0.05980
-0.05980
-0.05570
-0.05488
-0.05488
-0.05079
-0.04178
-0.02703
0.00082
0.03522
0.08273
0.15482
0.25558
0.36452
0.42268
0.37435
0.22363
0.02376
-0.16793
-0.32766
-0.44398
-0.51607
-0.56358
-0.57013
-0.53163
-0.46118
-0.36452
-0.26459
-0.18185
-0.11878
-0.08028
-0.05816
-0.04260
-0.03113
-0.03031
-0.03031
-0.02539
-0.02048
-0.01966
-0.01556
-0.01065
-0.00983
-0.00983
-0.00983
-0.00573
-0.00491
-0.00491
-0.00491
-0.00491
-0.00491
-0.00901
-0.01393
-0.01474
-0.01474
-0.01474
-0.01474
-0.01065
-0.00573
-0.00491
-0.00491
-0.00491
-0.00491
-0.00491
-0.00082
0.00000
0.00000
0.00000
0.00000
0.00000
0.00000
0.00000
0.00000
0.00000
0.00000
0.00410
0.00491
0.00491
0.00901
0.00983
0.00983
0.00983
0.00983
0.00983
0.00983
0.00983
0.00983
0.00983
0.00983
0.00983
0.01393
0.01474
0.01474
0.01474
0.01474
0.01474
0.01474
0.01065
0.01393
0.01884
0.02376
0.02539
0.02539
0.02048
0.01966
0.01966
0.01966
0.01966
0.01966
0.01966
0.01966
0.01966
0.02376
0.02539
0.02539
0.02130
0.01966
0.01966
0.01966
0.01966
0.01556
0.01474
0.01474
0.01474
0.01474
0.01474
0.01474
0.01474
0.01474
0.01474
0.01474
0.01474
0.01474
0.01474
0.01474
0.01474
0.01474
0.01474
0.01474
0.01474
0.01474
0.01474
0.01474
0.01474
0.01065
0.00983
0.00573
0.00491
0.00082
0.00000
-0.00410
-0.00491
-0.00491
-0.00901
-0.01393
-0.01884
-0.02376
-0.02867
-0.03031
-0.03440
-0.03932
-0.04423
-0.04505
-0.04915
-0.04997
-0.04997
-0.04997
-0.04997
-0.04997
-0.05406
-0.05488
-0.05488
-0.05079
-0.04997
-0.04587
-0.04505
-0.04096
-0.04014
-0.04014
-0.04014
-0.04014
-0.03604
-0.03522
-0.03522
-0.03522
-0.03932
-0.04014
-0.04014
-0.04014
-0.04014
-0.04014
-0.04014
-0.04014
-0.03604
-0.03522
-0.03522
-0.03522
-0.03932
-0.04014
-0.04014
-0.04014
-0.04014
-0.04014
-0.04014
-0.04014
-0.04014
-0.03604
-0.02703
-0.01311
-0.00246
0.01147
0.02703
0.03768
0.04014
0.04014
0.04014
0.04423
0.04915
0.05406
0.05488
0.04342
0.02867
0.01311
-0.00164
-0.00901
-0.02130
-0.02867
-0.03768
-0.04751
-0.05406
-0.05488
-0.05488
-0.05898
-0.05980
-0.05980
-0.05980
-0.05980
-0.05980
-0.05980
-0.06389
-0.06471
-0.06144
-0.05980
-0.05980
-0.05980
-0.05980
-0.05980
-0.05980
-0.05980
-0.05980
-0.05980
-0.05980
-0.05652
-0.05488
-0.05488
-0.05488
-0.05488
-0.05488
-0.05488
-0.05488
-0.05488
-0.05488
-0.04751
-0.03768
-0.01966
0.00737
0.05325
0.12205
0.20807
0.31701
0.40548
0.42105
0.33667
0.16219
-0.03604
-0.22117
-0.37026
-0.47675
-0.54146
-0.57013
-0.56030
-0.50624
-0.42596
-0.33340
-0.24247
-0.16383
-0.11141
-0.07782
-0.05898
-0.04342
-0.03277
-0.03031
-0.02621
-0.02539
-0.02130
-0.01966
-0.01966
-0.01638
-0.01474
-0.01474
-0.01474
-0.01474
-0.01147
-0.00983
-0.00983
-0.00655
-0.00491
-0.00491
-0.00491
-0.00491
-0.00164
0.00000
0.00410
0.00491
0.00491
0.00491
0.00491
0.00491
0.00901
0.00983
0.00983
0.00983
0.00983
0.01393
0.01474
0.01474
0.01474
0.01474
0.01474
0.01474
0.01474
0.01474
0.01474
0.01474
0.01474
0.01474
0.01474
0.01474
0.01474
0.01474
0.01474
0.01474
0.01474
0.01474
0.01884
0.01966
0.01638
0.01474
0.01474
0.01474
0.01474
0.01884
0.01966
0.01966
0.02376
0.02539
0.02539
0.02867
0.03031
0.03031
0.03031
0.02621
0.02539
0.02130
0.01966
0.01966
0.01966
0.01966
0.01966
0.01966
0.01966
0.01966
0.01966
0.01966
0.01966
0.01966
0.01966
0.01966
0.01638
0.01474
0.01474
0.01474
0.01474
0.01474
0.01474
0.01474
0.01474
0.01474
0.01147
0.00983
0.00983
0.00655
0.00491
0.00491
0.00491
0.00491
0.00491
0.00491
0.00491
0.00491
0.00491
0.00164
-0.00328
-0.00491
-0.00491
-0.00819
-0.00983
-0.01311
-0.01884
-0.02703
-0.03031
-0.03359
-0.03522
-0.03522
-0.03850
-0.04014
-0.04342
-0.04833
-0.04997
-0.05325
-0.05488
-0.05488
-0.05488
-0.05488
-0.05488
-0.05161
-0.04997
-0.04997
-0.04669
-0.04178
-0.03686
-0.03522
-0.03195
-0.03031
-0.03031
-0.03031
-0.03031
-0.03031
-0.03359
-0.03522
-0.03522
-0.03522
-0.03195
-0.03031
-0.03359
-0.03195
-0.03031
-0.03031
-0.03031
-0.03031
-0.03031
-0.03031
-0.03031
-0.03031
-0.03031
-0.03031
-0.03031
-0.03359
-0.03522
-0.03522
-0.03522
-0.03195
-0.02294
-0.00983
0.00491
0.02048
0.03522
0.04342
0.04505
0.04505
0.04178
0.04014
0.04342
0.04833
0.04669
0.03522
0.01966
0.00491
-0.00655
-0.01638
-0.02703
-0.03686
-0.04669
-0.05325
-0.05488
-0.05816
-0.06307
-0.06471
-0.06799
-0.07372
-0.07864
-0.07700
-0.07127
-0.06635
-0.06471
-0.06471
-0.06799
-0.06963
-0.07372
-0.07536
-0.07864
-0.08028
-0.08028
-0.08028
-0.08028
-0.08028
-0.07700
-0.07536
-0.07536
-0.07536
-0.07864
-0.08028
-0.08028
-0.08028
-0.08028
-0.08028
-0.08028
-0.07372
-0.05980
-0.03850
-0.00737
0.04096
0.10239
0.18431
0.28752
0.37108
0.37517
0.27032
0.08601
-0.11222
-0.28752
-0.42350
-0.51361
-0.57259
-0.59634
-0.58078
-0.52426
-0.44152
-0.34486
-0.25148
-0.17776
-0.13188
-0.10076
-0.08028
-0.06881
-0.05816
-0.05488
-0.05161
-0.04669
-0.04505
-0.04178
-0.04014
-0.04342
-0.04505
-0.04178
-0.04014
-0.04014
-0.03686
-0.03522
-0.03195
-0.03031
-0.03359
-0.03522
-0.03195
-0.03031
-0.03031
-0.03031
-0.03031
-0.03031
-0.03031
-0.03031
-0.03031
-0.02703
-0.02212
-0.01966
-0.01966
-0.01966
-0.02294
-0.02212
-0.01966
-0.01720
-0.01147
-0.00655
-0.00491
-0.00491
-0.00491
-0.00491
-0.00491
-0.00491
-0.00491
-0.00491
-0.00819
-0.01311
-0.01474
-0.01474
-0.01474
-0.01147
-0.00983
-0.00983
-0.00655
-0.00491
-0.00491
-0.00491
-0.00491
-0.00491
-0.00491
-0.00491
-0.00491
-0.00491
-0.00491
-0.00164
-0.00328
-0.00491
-0.00491
-0.00491
-0.00491
-0.00491
-0.00164
0.00000
-0.00328
-0.00491
-0.00164
0.00000
0.00328
0.00491
0.00164
0.00000
0.00000
0.00000
0.00000
0.00000
0.00328
0.00491
0.00164
-0.00328
-0.00491
-0.00491
-0.00491
-0.00491
-0.00491
-0.00491
-0.00491
-0.00491
-0.00491
-0.00491
-0.00491
-0.00164
0.00000
0.00000
0.00000
-0.00328
-0.00491
-0.00491
-0.00491
-0.00491
-0.00819
-0.01311
-0.01474
-0.01802
-0.02294
-0.02539
-0.02785
-0.03031
-0.03277
-0.03768
-0.04260
-0.04833
-0.05325
-0.05816
-0.05980
-0.06307
-0.06471
-0.06799
-0.07290
-0.07536
-0.07536
-0.07782
-0.08028
-0.07700
-0.07536
-0.07536
-0.07209
-0.06963
-0.06963
-0.06963
-0.06963
-0.06963
-0.06963
-0.06963
-0.06717
-0.06471
-0.06471
-0.06471
-0.06799
-0.06963
-0.07290
-0.07536
-0.07536
-0.07536
-0.07536
-0.07536
-0.07536
-0.07536
-0.07536
-0.07536
-0.07782
-0.08028
-0.08028
-0.08028
-0.08028
-0.08028
-0.08028
-0.08028
-0.08273
-0.08765
-0.09011
-0.08683
-0.08192
-0.08028
-0.07127
-0.05898
-0.04669
-0.03440
-0.01884
-0.00737
-0.00246
0.00328
0.00491
0.00491
0.00491
0.01065
0.01229
0.00410
-0.00819
-0.02376
-0.03850
-0.05325
-0.06881
-0.08110
-0.09093
-0.09748
-0.10321
-0.10485
-0.10813
-0.10977
-0.10977
-0.10977
-0.10977
-0.10977
-0.11304
-0.11468
-0.11468
-0.11468
-0.11796
-0.11960
-0.11960
-0.11960
-0.12287
-0.12533
-0.12533
-0.12533
-0.12533
-0.12533
-0.12533
-0.12533
-0.12205
-0.11714
-0.11468
-0.11468
-0.11468
-0.11468
-0.11468
-0.11222
-0.10977
-0.10731
-0.09912
-0.08355
-0.05570
-0.01802
0.03604
0.11468
0.21298
0.30964
0.35551
0.30473
0.15564
-0.04260
-0.23428
-0.39729
-0.52016
-0.59798
-0.64140
-0.64713
-0.60945
-0.53818
-0.44808
-0.35060
-0.26377
-0.20233
-0.16383
-0.13598
-0.11960
-0.10977
-0.10239
-0.09748
-0.09256
-0.08765
-0.08192
-0.08028
-0.08028
-0.08028
-0.07700
-0.07536
-0.07209
-0.06963
-0.06963
-0.06963
-0.06717
-0.06471
-0.06471
-0.06471
-0.06471
-0.06471
-0.06471
-0.06226
-0.05980
-0.05980
-0.05980
-0.05980
-0.05980
-0.05734
-0.05488
-0.05488
-0.05488
-0.05243
-0.04997
-0.04997
-0.04997
-0.04997
-0.04751
-0.04505
-0.04505
-0.04751
-0.04997
-0.04997
-0.05243
-0.05488
-0.05488
-0.05488
-0.05488
-0.05488
-0.05734
-0.05980
-0.05980
-0.06226
-0.06471
-0.06471
-0.06471
-0.06471
-0.06471
-0.06471
-0.06226
-0.05980
-0.05734
-0.05488
-0.05488
-0.05488
-0.05488
-0.05488
-0.05488
-0.05488
-0.05488
-0.05488
-0.05488
-0.05488
-0.05488
-0.05734
-0.05980
-0.06226
-0.06717
-0.06963
-0.06963
-0.06963
-0.06963
-0.06963
-0.06963
-0.06963
-0.06963
-0.07290
-0.07536
-0.07536
-0.07782
-0.08028
-0.08028
-0.08028
-0.08028
-0.08028
-0.08028
-0.08028
-0.08028
-0.08028
-0.08028
-0.08028
-0.08028
-0.07782
-0.07536
-0.07536
-0.07536
-0.07536
-0.07536
-0.07536
-0.07536
-0.07536
-0.07536
-0.07782
-0.08028
-0.08028
-0.08028
-0.08028
-0.08028
-0.08273
-0.08765
-0.09256
-0.09748
-0.09994
-0.10485
-0.11222
-0.11468
-0.11714
-0.11960
-0.11960
-0.12287
-0.12533
-0.12533
-0.12533
-0.12533
-0.12533
-0.12533
-0.12533
-0.12533
-0.12287
-0.11960
-0.11960
-0.11960
-0.11960
-0.11960
-0.11960
-0.11796
-0.11468
-0.11222
-0.10977
-0.10731
-0.10485
-0.10485
-0.10485
-0.10731
-0.10977
-0.10731
-0.10485
-0.10485
-0.10485
-0.10485
-0.10239
-0.09994
-0.09994
-0.09994
-0.09994
-0.09994
-0.09994
-0.09994
-0.09994
-0.09994
-0.10239
-0.10239
-0.09994
-0.09994
-0.09994
-0.09994
-0.09502
-0.08519
-0.07290
-0.06062
-0.04342
-0.02785
-0.02294
-0.02212
-0.02539
-0.02539
-0.02048
-0.01065
-0.00491
-0.00737
-0.01966
-0.03686
-0.05243
-0.06471
-0.07454
-0.08437
-0.09502
-0.09994
-0.10485
-0.10977
-0.10977
-0.11222
-0.11468
-0.11714
-0.11960
-0.11796
-0.11468
-0.11468
-0.11714
-0.11960
-0.12205
-0.12287
-0.11960
-0.11796
-0.11468
-0.11468
-0.11304
-0.10977
-0.10731
-0.10485
-0.10485
-0.10485
-0.10485
-0.10239
-0.09994
-0.09994
-0.09994
-0.09748
-0.09502
-0.09502
-0.09502
-0.09256
-0.08519
-0.06881
-0.03686
0.00983
0.07127
0.15072
0.24738
0.33831
0.36616
0.29408
0.14417
-0.04260
-0.22854
-0.38500
-0.49805
-0.56931
-0.60863
-0.60863
-0.56604
-0.48985
-0.39565
-0.29981
-0.21871
-0.15810
-0.11714
-0.09093
-0.07372
-0.06062
-0.05243
-0.04751
-0.04505
-0.04260
-0.03768
-0.03522
-0.03277
-0.03031
-0.03031
-0.03031
-0.03031
-0.03031
-0.02785
-0.02294
-0.01966
-0.01802
-0.01474
-0.01474
-0.01474
-0.01474
-0.01474
-0.01474
-0.01474
-0.01474
-0.01474
-0.01474
-0.01474
-0.01474
-0.01311
-0.00983
-0.00819
-0.00491
-0.00491
-0.00491
-0.00246
0.00000
0.00000
0.00246
0.00491
0.00737
0.00983
0.00983
0.00983
0.00983
0.00983
0.00983
0.00983
0.00983
0.00983
0.00983
0.00983
0.00983
0.00819
0.00491
0.00491
0.00491
0.00328
-0.00246
-0.00491
-0.00328
0.00000
0.00246
0.00491
0.00328
0.00000
-0.00246
-0.00491
-0.00491
-0.00491
-0.00328
0.00000
0.00246
0.00491
0.00491
0.00491
0.00328
0.00000
0.00000
0.00000
0.00000
0.00000
0.00000
0.00000
0.00000
0.00000
0.00000
0.00000
0.00164
0.00491
0.00491
0.00491
0.00491
0.00737
0.00983
0.01229
0.01474
0.01474
0.01474
0.01474
0.01474
0.01311
0.00983
0.00983
0.00819
0.00491
0.00491
0.00328
0.00000
0.00000
0.00000
0.00000
-0.00164
-0.00491
-0.00491
-0.00491
-0.00737
-0.01229
-0.01474
-0.01720
-0.02212
-0.02703
-0.03031
-0.03031
-0.03195
-0.03686
-0.04014
-0.04178
-0.04505
-0.04505
-0.04669
-0.04997
-0.04997
-0.04997
-0.04997
-0.04833
-0.04505
-0.04505
-0.04342
-0.04014
-0.03768
-0.03522
-0.03277
-0.03031
-0.03031
-0.03031
-0.03031
-0.03031
-0.02785
-0.02539
-0.02539
-0.02294
-0.01966
-0.01802
-0.01474
-0.01474
-0.01474
-0.01474
-0.01311
-0.00983
-0.00983
-0.00983
-0.00983
-0.00983
-0.00983
-0.00983
-0.00983
-0.00983
-0.00983
-0.00983
-0.01147
-0.01311
-0.00983
-0.00819
0.00246
0.01884
0.03031
0.04587
0.05898
0.06717
0.06963
0.06963
0.06963
0.06963
0.07372
0.08192
0.08110
0.07127
0.05734
0.03932
0.02457
0.01311
0.00491
-0.00655
-0.01147
-0.01720
-0.02212
-0.02539
-0.02703
-0.03031
-0.03031
-0.03031
-0.03031
-0.03031
-0.03031
-0.03031
-0.03031
-0.03031
-0.03031
-0.03031
-0.03031
-0.03031
-0.03031
-0.03031
-0.03031
-0.03031
-0.03031
-0.03031
-0.03031
-0.03031
-0.03031
-0.03031
-0.02785
-0.02539
-0.02294
-0.01966
-0.01802
-0.01311
-0.00819
0.00164
0.02212
0.04505
0.08028
0.13106
0.19742
0.28507
0.37272
0.40794
0.35551
0.21790
0.03604
-0.14335
-0.29981
-0.41285
-0.48412
-0.52672
-0.53327
-0.49805
-0.42596
-0.33585
-0.23919
-0.15646
-0.09502
-0.05652
-0.03359
-0.01474
-0.00164
0.00819
0.01474
0.01474
0.01638
0.02130
0.02703
0.03195
0.03522
0.03522
0.03522
0.03359
0.03195
0.03522
0.03359
0.03195
0.03522
0.03522
0.03522
0.03522
0.03522
0.03522
0.03522
0.03522
0.03522
0.03522
0.03522
0.03522
0.03522
0.03522
0.03522
0.03686
0.04014
0.04014
0.04014
0.04014
0.04014
0.04178
0.04505
0.04505
0.04505
0.04342
0.04014
0.04014
0.04014
0.04014
0.04014
0.03850
0.03359
0.03031
0.03031
0.03031
0.03031
0.03031
0.03031
0.03031
0.02867
0.02539
0.02376
0.01966
0.01966
0.01966
0.01966
0.02130
0.02376
0.01966
0.01966
0.01884
0.01474
0.01474
0.01474
0.01311
0.00983
0.01147
0.01474
0.01474
0.01474
0.01311
0.00983
0.00983
0.00819
0.00491
0.00491
0.00491
0.00491
0.00491
0.00491
0.00491
0.00491
0.00491
0.00491
0.00491
0.00491
0.00491
0.00491
0.00491
0.00328
0.00000
-0.00164
-0.00491
-0.00491
-0.00491
-0.00491
-0.00491
-0.00655
-0.00983
-0.01147
-0.01474
-0.01474
-0.01638
-0.01966
-0.02130
-0.02621
-0.03031
-0.03031
-0.03031
-0.03113
-0.03686
-0.04178
-0.04751
-0.05488
-0.05652
-0.06144
-0.06635
-0.06963
-0.06881
-0.06635
-0.06963
-0.07127
-0.07536
-0.07618
-0.08028
-0.07864
-0.07536
-0.07536
-0.07536
-0.07536
-0.07536
-0.07372
-0.06963
-0.06881
-0.06471
-0.06471
-0.06471
-0.06471
-0.06389
-0.05980
-0.06144
-0.06471
-0.06471
-0.06471
-0.06471
-0.06471
-0.06471
-0.06389
-0.05980
-0.05980
-0.05980
-0.05898
-0.05488
-0.05488
-0.05652
-0.05980
-0.05980
-0.05980
-0.05980
-0.05980
-0.05898
-0.05325
-0.04423
-0.02703
-0.01556
-0.00082
0.01229
0.02294
0.03031
0.02867
0.02539
0.02621
0.03277
0.04014
0.03768
0.02621
0.01065
-0.00246
-0.01229
-0.02294
-0.03277
-0.04260
-0.05161
-0.05652
-0.05980
-0.06144
-0.06471
-0.06635
-0.06963
-0.06881
-0.06471
-0.06471
-0.06471
-0.06635
-0.06963
-0.06963
-0.06963
-0.06963
-0.07127
-0.07372
-0.06963
-0.06963
-0.06963
-0.06963
-0.06963
-0.06881
-0.06471
-0.06471
-0.06389
-0.05898
-0.05488
-0.05488
-0.05488
-0.05488
-0.05488
-0.05406
-0.04915
-0.04096
-0.02539
-0.00410
0.02457
0.06963
0.13598
0.22363
0.31701
0.38582
0.36534
0.24575
0.06226
-0.12861
-0.29899
-0.42678
-0.50706
-0.55211
-0.57259
-0.55293
-0.49477
-0.40712
-0.31128
-0.21544
-0.14335
-0.09748
-0.07045
-0.04997
-0.03277
-0.02376
-0.01966
-0.01884
-0.01393
-0.00983
-0.00901
-0.00491
-0.00491
-0.00410
0.00000
0.00000
0.00000
0.00000
0.00000
0.00000
0.00000
0.00082
0.00491
0.00655
0.01147
0.01474
0.01474
0.01474
0.01474
0.01474
0.01474
0.01474
0.01474
0.01474
0.01474
0.01474
0.01474
0.01474
0.01474
0.01474
0.01638
0.01966
0.02130
0.02539
0.02539
0.02539
0.02539
0.02539
0.02539
0.02539
0.02376
0.01884
0.01474
0.01474
0.01474
0.01393
0.00983
0.00983
0.00983
0.00983
0.00983
0.00983
0.01147
0.01474
0.01474
0.01474
0.01474
0.01474
0.01638
0.01966
0.01966
0.01966
0.02130
0.02621
0.03031
0.03113
0.03522
0.03522
0.03604
0.04014
0.04014
0.04014
0.04014
0.04014
0.04014
0.04014
0.04014
0.04014
0.04014
0.04014
0.04014
0.04014
0.04014
0.04014
0.04014
0.04014
0.04096
0.04423
0.04014
0.04096
0.04423
0.04014
0.04096
0.04505
0.04505
0.04505
0.04505
0.04505
0.04423
0.04014
0.04014
0.04014
0.03932
0.03440
0.03031
0.02867
0.02539
0.02539
0.02376
0.01966
0.01884
0.01474
0.01393
0.00901
0.00410
-0.00082
-0.00491
-0.00573
-0.00983
-0.01065
-0.01474
-0.01556
-0.01966
-0.01966
-0.01966
-0.01966
-0.01884
-0.01474
-0.01474
-0.01474
-0.01474
-0.01393
-0.00983
-0.00983
-0.00983
-0.00983
-0.00983
-0.00983
-0.00983
-0.00983
-0.00983
-0.00983
-0.00901
-0.00491
-0.00491
-0.00491
-0.00491
-0.00491
-0.00410
-0.00082
-0.00491
-0.00491
-0.00491
-0.00491
-0.00491
-0.00491
-0.00491
-0.00410
0.00164
0.01147
0.02294
0.03686
0.04751
0.06144
0.07209
0.07946
0.07454
0.06963
0.06963
0.07209
0.08110
0.08355
0.07372
0.06144
0.04260
0.02785
0.01229
-0.00164
-0.01147
-0.02130
-0.03031
-0.03113
-0.03604
-0.04014
-0.04096
-0.04505
-0.04505
-0.04505
-0.04587
-0.05079
-0.05488
-0.05488
-0.05570
-0.05980
-0.05980
-0.05980
-0.05980
-0.05980
-0.05980
-0.05980
-0.05980
-0.05980
-0.05980
-0.05980
-0.05980
-0.05980
-0.05980
-0.06062
-0.06553
-0.06963
-0.07045
-0.07454
-0.06963
-0.06963
-0.06963
-0.06799
-0.05161
-0.02949
0.00983
0.07536
0.14745
0.23346
0.31537
0.33503
0.25312
0.09748
-0.09011
-0.26131
-0.39975
-0.49477
-0.55621
-0.59471
-0.58897
-0.54392
-0.46118
-0.36534
-0.26377
-0.18677
-0.13025
-0.09666
-0.07290
-0.05898
-0.05325
-0.04423
-0.04014
-0.04014
-0.04014
-0.04014
-0.04014
-0.04014
-0.04014
-0.04014
-0.04014
-0.04014
-0.04014
-0.04014
-0.04014
-0.04014
-0.04014
-0.04096
-0.04505
-0.04505
-0.04505
-0.04505
-0.04505
-0.04505
-0.04505
-0.04505
-0.04505
-0.04505
-0.04505
-0.04505
-0.04505
-0.04505
-0.04423
-0.04014
-0.04014
-0.03932
-0.03522
-0.03440
-0.03031
-0.03031
-0.03522
-0.03522
-0.03522
-0.03522
-0.03522
-0.03522
-0.03440
-0.03031
-0.03031
-0.03031
-0.03031
-0.03031
-0.03031
-0.03031
-0.03031
-0.03031
-0.03031
-0.03031
-0.03031
-0.03031
-0.03031
-0.03031
-0.03031
-0.03031
-0.03031
-0.03031
-0.03031
-0.03031
-0.03031
-0.03031
-0.02949
-0.02539
-0.02539
-0.02539
-0.02539
-0.02539
-0.02539
-0.02539
-0.02539
-0.03031
-0.03031
-0.03031
-0.03031
-0.03031
-0.03031
-0.03031
-0.03031
-0.03031
-0.03031
-0.03031
-0.03031
-0.03031
-0.03031
-0.03522
-0.03522
-0.04014
-0.04014
-0.04014
-0.04014
-0.04014
-0.04505
-0.04505
-0.04505
-0.04587
-0.04997
-0.04997
-0.05079
-0.05488
-0.05488
-0.05488
-0.05570
-0.06062
-0.06553
-0.07045
-0.07536
-0.08028
-0.08028
-0.08601
-0.09584
-0.10076
-0.10567
-0.11059
-0.11550
-0.12533
-0.12533
-0.13106
-0.14008
-0.14008
-0.14581
-0.14991
-0.14991
-0.14991
-0.15072
-0.15482
-0.15482
-0.15564
-0.15974
-0.15974
-0.15974
-0.15974
-0.15974
-0.16055
-0.16465
-0.15974
-0.15974
-0.15482
-0.14991
-0.14991
-0.14991
-0.14991
-0.14991
-0.14991
-0.14499
-0.14499
-0.14008
-0.14008
-0.14008
-0.13926
-0.13516
-0.13516
-0.13516
-0.13434
-0.13025
-0.13025
-0.12943
-0.12451
-0.11386
-0.09912
-0.08355
-0.06881
-0.05406
-0.04505
-0.04014
-0.04505
-0.04997
-0.04505
-0.03932
-0.03031
-0.03113
-0.04587
-0.05652
-0.07536
-0.08110
-0.09584
-0.10567
-0.12042
-0.12533
-0.13025
-0.13516
-0.14008
-0.14008
-0.14499
-0.14499
-0.14499
-0.14499
-0.14499
-0.14499
-0.14499
-0.14499
-0.14499
-0.14991
-0.14991
-0.14991
-0.14991
-0.14991
-0.14991
-0.14991
-0.14991
-0.14991
-0.14991
-0.14991
-0.14991
-0.14991
-0.14991
-0.14991
-0.14991
-0.14499
-0.14008
-0.13516
-0.13516
-0.13434
-0.12943
-0.11878
-0.09912
-0.07290
-0.02621
0.04423
0.13516
0.23346
0.29408
0.27524
0.16629
-0.01311
-0.18759
-0.34568
-0.46364
-0.54720
-0.59634
-0.61928
-0.60290
-0.54638
-0.46610
-0.37599
-0.28752
-0.22363
-0.18431
-0.15892
-0.13926
-0.12451
-0.11960
-0.11468
-0.10485
-0.09994
-0.09502
-0.09502
-0.09502
-0.09502
-0.09502
-0.09502
-0.09502
-0.09011
-0.09011
-0.09011
-0.09011
-0.09011
-0.09011
-0.09011
-0.08519
-0.08519
-0.08519
-0.08519
-0.08519
-0.08519
-0.08519
-0.08519
-0.08519
-0.08028
-0.08028
-0.08028
-0.08028
-0.08028
-0.08028
-0.07946
-0.07536
-0.07536
-0.07454
-0.06963
-0.06963
-0.06963
-0.06963
-0.06963
-0.06471
-0.06471
-0.06471
-0.06471
-0.06471
-0.06471
-0.06471
-0.06471
-0.06471
-0.06471
-0.06471
-0.06471
-0.06471
-0.06963
-0.06963
-0.06963
-0.06963
-0.06963
-0.06471
-0.06471
-0.06471
-0.06471
-0.06963
-0.06963
-0.06471
-0.06471
-0.05980
-0.05980
-0.06471
-0.06471
-0.07045
-0.07536
-0.07536
-0.07536
-0.07536
-0.08028
-0.08028
-0.08028
-0.08028
-0.08028
-0.08028
-0.08028
-0.08028
-0.08519
-0.08519
-0.08519
-0.09011
-0.09011
-0.09011
-0.09011
-0.08519
-0.08519
-0.08028
-0.08028
-0.08519
-0.08519
-0.09011
-0.09011
-0.08519
-0.08519
-0.08519
-0.08519
-0.08519
-0.08028
-0.08028
-0.08028
-0.08028
-0.08519
-0.08519
-0.08519
-0.09011
-0.09502
-0.09994
-0.09994
-0.09994
-0.10485
-0.10977
-0.11468
-0.11960
-0.12533
-0.12533
-0.13025
-0.14008
-0.14991
-0.14991
-0.15482
-0.15974
-0.16465
-0.16957
-0.17038
-0.16547
-0.16465
-0.15974
-0.15974
-0.15482
-0.15482
-0.15482
-0.14991
-0.14991
-0.14991
-0.14499
-0.14499
-0.14499
-0.14499
-0.14499
-0.14008
-0.13025
-0.13025
-0.12533
-0.12533
-0.12533
-0.13025
-0.13025
-0.13025
-0.13025
-0.13025
-0.13025
-0.12533
-0.12533
-0.12533
-0.11059
-0.09994
-0.08519
-0.07045
-0.05570
-0.04505
-0.04505
-0.04997
-0.04997
-0.04997
-0.04997
-0.04505
-0.05488
-0.05980
-0.07454
-0.08437
-0.09994
-0.11468
-0.12451
-0.13434
-0.14008
-0.14499
-0.14991
-0.14991
-0.14991
-0.14991
-0.14991
-0.14991
-0.14991
-0.14991
-0.14991
-0.14991
-0.14991
-0.14991
-0.14991
-0.14991
-0.14991
-0.14991
-0.14991
-0.14991
-0.14991
-0.14991
-0.14991
-0.14991
-0.14991
-0.14991
-0.14991
-0.14991
-0.14991
-0.14991
-0.14991
-0.14991
-0.14499
-0.14008
-0.14008
-0.13516
-0.12533
-0.10158
-0.06635
-0.01229
0.06144
0.16465
0.27933
0.34159
0.30718
0.16301
-0.03440
-0.21134
-0.36698
-0.48412
-0.56112
-0.60290
-0.61437
-0.59143
-0.52344
-0.43497
-0.33995
-0.25967
-0.20315
-0.16711
-0.14171
-0.12615
-0.11550
-0.10567
-0.09994
-0.09994
-0.09994
-0.09502
-0.09011
-0.09011
-0.09011
-0.09011
-0.08519
-0.08519
-0.08519
-0.08519
-0.08929
-0.09011
-0.09011
-0.09011
-0.09011
-0.09011
-0.09502
-0.09502
-0.09502
-0.09502
-0.09502
-0.09502
-0.09502
-0.09502
-0.09502
-0.09502
-0.09011
-0.08519
-0.08519
-0.08519
-0.08519
-0.08028
-0.08028
-0.08028
-0.08028
-0.07536
-0.07045
-0.06963
-0.06963
-0.06553
-0.06471
-0.06471
-0.06471
-0.06471
-0.06471
-0.06471
-0.06471
-0.06471
-0.06471
-0.06471
-0.06471
-0.06471
-0.06471
-0.06471
-0.06062
-0.05980
-0.05980
-0.05570
-0.05488
-0.05488
-0.05488
-0.05488
-0.05488
-0.05488
-0.05488
-0.05488
-0.05488
-0.05488
-0.05488
-0.05488
-0.05488
-0.05488
-0.05488
-0.05488
-0.05488
-0.05488
-0.05488
-0.05488
-0.05488
-0.05488
-0.05488
-0.05488
-0.05488
-0.05488
-0.05488
-0.05488
-0.05488
-0.05488
-0.05488
-0.05488
-0.05488
-0.05488
-0.05980
-0.05980
-0.05570
-0.05488
-0.05488
-0.05488
-0.05488
-0.05488
-0.05488
-0.05488
-0.05980
-0.05980
-0.06471
-0.06471
-0.06963
-0.07454
-0.07946
-0.08028
-0.08028
-0.08028
-0.08437
-0.08929
-0.09420
-0.09912
-0.09994
-0.10485
-0.10977
-0.11468
-0.11960
-0.12451
-0.12533
-0.12533
-0.12943
-0.13025
-0.13025
-0.13025
-0.13434
-0.13516
-0.13516
-0.13025
-0.13025
-0.12533
-0.12533
-0.12042
-0.11960
-0.11960
-0.11550
-0.11468
-0.11059
-0.10977
-0.10567
-0.10485
-0.10076
-0.09994
-0.09994
-0.09994
-0.09994
-0.09994
-0.09994
-0.09994
-0.09994
-0.09994
-0.09994
-0.09584
-0.08192
-0.07536
-0.06144
-0.05161
-0.03277
-0.02539
-0.02048
-0.02457
-0.02949
-0.03031
-0.03031
-0.02130
-0.01966
-0.02457
-0.03768
-0.05325
-0.07209
-0.08355
-0.09338
-0.10403
-0.11386
-0.11960
-0.12451
-0.12533
-0.12533
-0.12533
-0.12943
-0.13025
-0.13025
-0.13025
-0.13434
-0.13516
-0.13516
-0.13926
-0.14008
-0.14008
-0.14008
-0.14008
-0.14008
-0.14008
-0.13598
-0.13516
-0.13516
-0.13516
-0.13516
-0.13516
-0.13106
-0.13025
-0.13025
-0.13025
-0.13434
-0.13516
-0.13516
-0.13106
-0.12533
-0.12533
-0.11632
-0.10239
-0.08683
-0.05898
-0.00819
0.07290
0.17858
0.28425
0.33831
0.30636
0.17612
-0.00246
-0.17858
-0.33258
-0.44398
-0.51934
-0.56358
-0.57423
-0.54556
-0.48494
-0.41122
-0.32766
-0.25558
-0.20233
-0.16137
-0.13844
-0.12205
-0.11141
-0.10158
-0.09994
-0.09994
-0.09994
-0.09994
-0.09584
-0.09093
-0.09011
-0.08601
-0.08519
-0.08110
-0.08028
-0.08028
-0.08028
-0.08437
-0.08519
-0.08929
-0.09011
-0.09011
-0.09011
-0.09011
-0.09011
-0.09420
-0.09502
-0.09502
-0.09093
-0.08601
-0.08519
-0.08519
-0.08110
-0.08028
-0.08028
-0.08028
-0.08028
-0.07618
-0.07536
-0.07536
-0.07045
-0.06963
-0.06963
-0.06553
-0.05652
-0.05079
-0.04178
-0.03195
-0.02212
-0.01556
-0.01474
-0.01065
-0.00573
-0.00491
-0.00491
-0.00491
-0.00491
-0.00491
-0.00082
0.00410
0.01311
0.03522
0.06062
0.09748
0.12943
0.15154
0.17120
0.18349
0.19742
0.20397
0.20479
0.19660
0.18677
0.17694
0.16301
0.14745
0.13680
0.11878
0.10239
0.08765
0.07290
0.06226
0.04751
0.03686
0.02703
0.01720
0.00655
-0.00328
-0.00491
-0.00901
-0.00983
-0.01393
-0.02294
-0.02867
-0.03440
-0.03932
-0.04833
-0.05406
-0.05488
-0.05898
-0.06799
-0.06963
-0.06963
-0.06963
-0.06963
-0.07372
-0.07536
-0.07536
-0.07864
-0.08028
-0.08028
-0.08028
-0.08028
-0.08028
-0.08028
-0.08028
-0.08028
-0.08437
-0.08929
-0.09420
-0.09912
-0.10403
-0.10895
-0.11386
-0.11468
-0.12287
-0.12533
-0.13270
-0.13516
-0.13926
-0.14008
-0.14417
-0.14909
-0.14991
-0.14991
-0.14991
-0.14991
-0.14991
-0.14991
-0.14991
-0.14991
-0.14991
-0.14581
-0.14499
-0.14499
-0.14499
-0.14499
-0.14499
-0.14499
-0.14089
-0.14008
-0.14008
-0.14008
-0.14008
-0.14008
-0.14008
-0.14008
-0.14008
-0.14008
-0.14008
-0.14008
-0.14008
-0.14008
-0.13188
-0.11796
-0.10321
-0.09256
-0.07454
-0.05816
-0.04751
-0.04096
-0.04014
-0.04423
-0.04096
-0.03604
-0.03113
-0.03359
-0.04669
-0.05734
-0.07536
-0.08765
-0.09748
-0.10403
-0.11632
-0.12369
-0.12533
-0.12861
-0.13025
-0.13352
-0.13516
-0.13516
-0.13516
-0.13516
-0.13516
-0.13516
-0.13516
-0.13516
-0.13516
-0.13106
-0.13025
-0.13025
-0.13025
-0.13025
-0.13025
-0.13025
-0.13025
-0.13025
-0.13025
-0.13025
-0.12615
-0.12533
-0.12533
-0.12533
-0.12533
-0.12533
-0.12533
-0.12533
-0.12123
-0.11960
-0.11632
-0.10731
-0.09011
-0.06226
-0.02130
0.03932
0.12287
0.23592
0.34814
0.40139
0.34241
0.18021
-0.01966
-0.20151
-0.35387
-0.46118
-0.52999
-0.57095
-0.57587
-0.54146
-0.47347
-0.38336
-0.28916
-0.21216
-0.15728
-0.11878
-0.09502
-0.08273
-0.07290
-0.06226
-0.05652
-0.05488
-0.05488
-0.05161
-0.04997
-0.04587
-0.04505
-0.04505
-0.04505
-0.04096
-0.04014
-0.03604
-0.03113
-0.03031
-0.03031
-0.03031
-0.03031
-0.03031
-0.03031
-0.03031
-0.03031
-0.03031
-0.03031
-0.03031
-0.02621
-0.02130
-0.01966
-0.01638
-0.01474
-0.01147
-0.00983
-0.00983
-0.00983
-0.00983
-0.00655
-0.00491
-0.00491
-0.00491
-0.00491
-0.00491
-0.00491
-0.00491
-0.00491
-0.00491
-0.00491
-0.00491
-0.00491
-0.00164
0.00000
0.00000
0.00000
0.00000
0.00000
0.00328
0.00491
0.00491
0.00491
0.00901
0.01393
0.01474
0.01147
0.01393
0.01474
0.01474
0.01474
0.01474
0.01474
0.01884
0.01966
0.01966
0.01966
0.02376
0.02539
0.02539
0.02539
0.02867
0.03031
0.03031
0.03031
0.03359
0.03522
0.03113
0.03031
0.03031
0.03031
0.03031
0.03031
0.03031
0.03031
0.03359
0.03522
0.03522
0.03522
0.03522
0.03850
0.04014
0.04014
0.04014
0.03686
0.03522
0.03522
0.03850
0.04014
0.04014
0.04014
0.04014
0.04342
0.04505
0.04833
0.04997
0.04669
0.04505
0.04178
0.04014
0.04014
0.04014
0.04014
0.03686
0.03113
0.02621
0.02130
0.01638
0.01474
0.01147
0.00655
0.00164
0.00000
-0.00328
-0.00491
-0.00491
-0.00491
-0.00491
-0.00491
-0.00491
-0.00164
0.00000
0.00000
0.00000
0.00000
0.00328
0.00819
0.01311
0.01474
0.01474
0.01884
0.01966
0.02376
0.02539
0.02539
0.02539
0.02539
0.02867
0.03031
0.02621
0.02539
0.02539
0.02867
0.03686
0.04669
0.06062
0.07209
0.08192
0.09502
0.10321
0.10158
0.09666
0.09502
0.09830
0.10321
0.10813
0.10321
0.09011
0.07454
0.06307
0.04997
0.03850
0.02457
0.01638
0.01147
0.00655
0.00164
0.00000
0.00000
0.00000
-0.00328
-0.00491
-0.00491
-0.00491
-0.00491
-0.00491
-0.00491
-0.00491
-0.00491
-0.00491
-0.00491
-0.00164
0.00000
-0.00328
-0.00164
0.00000
0.00000
0.00000
0.00000
0.00000
0.00000
0.00000
0.00000
0.00000
0.00000
0.00328
0.00491
0.00491
0.00491
0.00819
0.01638
0.03359
0.05980
0.10649
0.17776
0.27114
0.38418
0.46774
0.46036
0.35633
0.19168
0.00819
-0.16301
-0.30227
-0.40057
-0.46282
-0.48985
-0.47183
-0.41777
-0.33585
-0.24984
-0.17120
-0.10895
-0.06717
-0.03850
-0.01720
-0.00328
0.00328
0.00819
0.01311
0.01474
0.01474
0.01474
0.01474
0.01474
0.01474
0.01474
0.01474
0.01474
0.01474
0.01474
0.01474
0.01147
0.00983
0.00983
0.01311
0.01474
0.01474
0.01474
0.01474
0.01474
0.01474
0.01474
0.01474
0.01474
0.01474
0.01474
0.01474
0.01474
0.01474
0.01474
0.01802
0.01720
0.01474
0.01802
0.01966
0.02294
0.02539
0.02539
0.02539
0.02785
0.02703
0.02539
0.02212
0.02294
0.02539
0.02539
0.02539
0.02539
0.02539
0.02539
0.02785
0.03031
0.03277
0.03850
0.04014
0.03686
0.03522
0.03522
0.03195
0.03031
0.03277
0.03522
0.03522
0.03522
0.03522
0.03522
0.03522
0.03850
0.04014
0.04014
0.04014
0.04014
0.04014
0.04014
0.04014
0.04014
0.04014
0.04342
0.04178
0.04342
0.04505
0.04505
0.04178
0.04014
0.04014
0.03686
0.03522
0.03522
0.03522
0.03768
0.04014
0.04014
0.04014
0.04014
0.04014
0.04014
0.04014
0.04014
0.04014
0.04014
0.04014
0.04014
0.04014
0.04014
0.04014
0.04014
0.03686
0.03522
0.03195
0.03031
0.03031
0.02376
0.01720
0.01474
0.01229
0.00737
0.00164
-0.00328
-0.00491
-0.00491
-0.00491
-0.00819
-0.00983
-0.00983
-0.01311
-0.01474
-0.01474
-0.01474
-0.01802
-0.01966
-0.01966
-0.01720
-0.01474
-0.01229
-0.01311
-0.01229
-0.00983
-0.00983
-0.00983
-0.00983
-0.00737
-0.00491
-0.00491
-0.00491
-0.00491
-0.00246
-0.00328
-0.00491
-0.00491
-0.00491
-0.00491
-0.00491
-0.00491
-0.00246
0.00328
0.01065
0.02048
0.03359
0.04915
0.06635
0.08110
0.08519
0.08519
0.08192
0.08028
0.08273
0.08765
0.08683
0.07946
0.06635
0.05161
0.03932
0.02949
0.01884
0.00655
-0.00328
-0.00819
-0.00983
-0.00983
-0.01311
-0.01474
-0.01474
-0.01474
-0.01474
-0.01474
-0.01474
-0.01474
-0.01474
-0.01474
-0.01474
-0.01474
-0.01474
-0.01474
-0.01474
-0.01229
-0.00983
-0.00983
-0.00983
-0.00983
-0.00983
-0.00983
-0.00983
-0.00983
-0.00983
-0.00983
-0.00983
-0.00983
-0.00737
-0.00491
-0.00491
-0.00491
-0.00246
0.00819
0.03195
0.07045
0.12943
0.21626
0.33012
0.44398
0.50378
0.46446
0.32439
0.13025
-0.05816
-0.21626
-0.33585
-0.41367
-0.45709
-0.46692
-0.44234
-0.38336
-0.29981
-0.20970
-0.13106
-0.07536
-0.03850
-0.01393
0.00328
0.01311
0.01474
0.01802
0.02294
0.02785
0.03277
0.03522
0.03522
0.03522
0.03768
0.04014
0.04014
0.04014
0.04014
0.04014
0.04014
0.04260
0.04505
0.04505
0.04505
0.04751
0.04997
0.04997
0.05243
0.05488
0.05488
0.05488
0.05734
0.05980
0.05980
0.05980
0.05980
0.05980
0.05980
0.05980
0.05980
0.06307
0.06471
0.06471
0.06799
0.07290
0.07536
0.07536
0.07209
0.06963
0.06717
0.06799
0.06963
0.07290
0.07536
0.07782
0.08028
0.07700
0.07536
0.07782
0.08273
0.08519
0.08519
0.08519
0.08519
0.08519
0.08519
0.08519
0.08519
0.08765
0.09011
0.09011
0.08765
0.08519
0.08519
0.08519
0.08765
0.09011
0.09011
0.09011
0.08765
0.08519
0.08519
0.08519
0.08519
0.08519
0.08519
0.08519
0.08519
0.08519
0.08273
0.08028
0.08028
0.08028
0.08028
0.08028
0.08028
0.07782
0.07782
0.08028
0.08273
0.08519
0.08519
0.08519
0.08519
0.08273
0.08028
0.07782
0.07536
0.07536
0.07536
0.07209
0.06963
0.06963
0.06717
0.06471
0.06471
0.06471
0.06471
0.06226
0.05734
0.05243
0.04505
0.04014
0.03768
0.03277
0.02785
0.02212
0.01720
0.01474
0.01474
0.00983
0.00491
0.00491
0.00491
0.00737
0.01229
0.01474
0.01474
0.01474
0.01474
0.01474
0.01474
0.01474
0.01474
0.01474
0.01474
0.01474
0.01720
0.02212
0.02785
0.03031
0.03031
0.03277
0.03522
0.03522
0.03522
0.03522
0.03277
0.03031
0.02785
0.02539
0.02539
0.02294
0.01966
0.02212
0.03195
0.04751
0.05980
0.07454
0.09011
0.09994
0.10485
0.10485
0.10485
0.10485
0.10731
0.10977
0.10977
0.10485
0.09256
0.07782
0.06307
0.04751
0.03522
0.02294
0.01229
0.00737
0.00246
-0.00246
-0.00491
-0.00491
-0.00491
-0.00491
-0.00491
-0.00491
-0.00737
-0.00983
-0.00983
-0.01229
-0.01474
-0.01474
-0.01720
-0.01966
-0.02212
-0.02294
-0.01966
-0.01966
-0.01966
-0.02212
-0.02539
-0.02539
-0.02294
-0.01966
-0.01966
-0.01966
-0.01966
-0.01966
-0.01802
-0.01474
-0.01474
-0.01474
-0.01065
0.00164
0.02130
0.05161
0.09994
0.17448
0.27606
0.39565
0.48576
0.48248
0.36616
0.17776
-0.02294
-0.19660
-0.32848
-0.41695
-0.47347
-0.49723
-0.47921
-0.42268
-0.34159
-0.24657
-0.16055
-0.09502
-0.04915
-0.01884
0.00164
0.01474
0.02457
0.03195
0.03768
0.04014
0.04260
0.04505
0.04505
0.04505
0.04505
0.04505
0.04505
0.04751
0.04997
0.04997
0.04997
0.04997
0.04997
0.04997
0.05243
0.05488
0.05488
0.05488
0.05734
0.05980
0.05980
0.05980
0.05816
0.05734
0.05980
0.05980
0.05980
0.06226
0.06471
0.06471
0.06471
0.06471
0.06471
0.06471
0.06471
0.06471
0.06471
0.06471
0.06471
0.06471
0.06471
0.06471
0.06471
0.06471
0.06471
0.06471
0.06471
0.06471
0.06471
0.06471
0.06471
0.06471
0.06471
0.06471
0.06471
0.06471
0.06471
0.06471
0.06471
0.06471
0.06717
0.06963
0.06963
0.06963
0.06963
0.06963
0.06963
0.06799
0.06471
0.06717
0.06963
0.06963
0.06963
0.06799
0.06471
0.06471
0.06471
0.06471
0.06471
0.06471
0.06471
0.06471
0.06471
0.06471
0.06471
0.06471
0.06307
0.05980
0.05980
0.05980
0.05980
0.05980
0.05816
0.05488
0.05488
0.05488
0.05488
0.05488
0.05488
0.05488
0.05488
0.05488
0.05488
0.05488
0.05488
0.05325
0.04997
0.04997
0.04833
0.04260
0.04014
0.04014
0.04014
0.04014
0.03768
0.03277
0.02785
0.02294
0.01966
0.01802
0.01474
0.01311
0.00819
0.00491
0.00491
0.00491
0.00491
0.00328
-0.00164
-0.00491
-0.00328
0.00164
0.00901
0.01474
0.01720
0.02212
0.02539
0.02539
0.02539
0.02703
0.03031
0.03031
0.03031
0.03195
0.03522
0.03686
0.04014
0.04178
0.04505
0.04342
0.04014
0.03768
0.03522
0.03686
0.04014
0.04014
0.04014
0.04587
0.05898
0.06881
0.07864
0.09256
0.10895
0.11714
0.11960
0.11796
0.11468
0.11714
0.12369
0.13025
0.12615
0.11386
0.09748
0.07946
0.06389
0.04915
0.03604
0.02621
0.01802
0.01474
0.01474
0.01474
0.01474
0.01311
0.00983
0.00819
0.00491
0.00328
-0.00164
-0.00491
-0.00328
0.00000
-0.00164
-0.00491
-0.00491
-0.00328
0.00000
0.00000
0.00000
0.00164
0.00491
0.00491
0.00491
0.00491
0.00328
0.00000
0.00000
-0.00164
-0.00491
-0.00328
0.00000
0.00000
0.00000
0.00410
0.01556
0.03440
0.06635
0.11878
0.19332
0.29408
0.41040
0.49477
0.49477
0.38582
0.19824
-0.00410
-0.18349
-0.32684
-0.42514
-0.48412
-0.50788
-0.49231
-0.44480
-0.36534
-0.27114
-0.17939
-0.10485
-0.05570
-0.02130
0.00000
0.01393
0.02212
0.02703
0.03031
0.03195
0.03522
0.03686
0.04014
0.04014
0.04178
0.04505
0.04669
0.04997
0.04997
0.04997
0.05161
0.05488
0.05325
0.04997
0.05161
0.05488
0.05325
0.04997
0.04997
0.05161
0.05488
0.05652
0.05980
0.05980
0.06144
0.06471
0.06471
0.06471
0.06471
0.06471
0.06471
0.06471
0.06471
0.06471
0.06471
0.06635
0.06963
0.07209
0.07536
0.07290
0.06963
0.06963
0.06963
0.06963
0.07209
0.07536
0.07290
0.06963
0.07209
0.07536
0.07536
0.07700
0.08028
0.08028
0.08192
0.08519
0.08519
0.08355
0.08028
0.08192
0.08519
0.08519
0.08519
0.08519
0.08519
0.08355
0.08192
0.08519
0.08519
0.08519
0.08519
0.08519
0.08355
0.08028
0.08028
0.08028
0.08028
0.08028
0.07864
0.07536
0.07536
0.07536
0.07700
0.08192
0.08519
0.08519
0.08519
0.08355
0.08028
0.08028
0.08028
0.08028
0.08028
0.08028
0.08028
0.08028
0.08028
0.08192
0.08519
0.08355
0.08192
0.08519
0.08519
0.08519
0.08355
0.08028
0.07864
0.07536
0.07372
0.06881
0.06471
0.06307
0.05652
0.04833
0.04342
0.04014
0.03850
0.03359
0.03031
0.02867
0.02539
0.02539
0.02376
0.01966
0.01884
0.01474
0.01474
0.01474
0.01474
0.01311
0.00983
0.00983
0.00983
0.00983
0.01147
0.01474
0.01474
0.01474
0.01638
0.01966
0.01966
0.01966
0.01966
0.01966
0.02130
0.02539
0.02539
0.02539
0.02376
0.01966
0.01966
0.01966
0.01966
0.01966
0.01966
0.01966
0.01966
0.01966
0.01966
0.01966
0.01966
0.01884
0.01474
0.01474
0.01802
0.02949
0.04423
0.05816
0.07045
0.08765
0.09666
0.09830
0.09502
0.09502
0.09502
0.09748
0.10649
0.10731
0.09584
0.07946
0.06062
0.04751
0.03604
0.02212
0.01393
0.00819
0.00328
-0.00164
-0.00491
-0.00491
-0.00491
-0.00491
-0.00491
-0.00491
-0.00491
-0.00491
-0.00655
-0.00983
-0.00983
-0.00983
-0.00983
-0.00983
-0.00983
-0.00983
-0.00901
-0.00491
-0.00491
-0.00491
-0.00491
-0.00491
-0.00491
-0.00491
-0.00491
-0.00491
-0.00491
-0.00491
-0.00491
-0.00491
-0.00491
-0.00328
0.00246
0.01393
0.03195
0.05898
0.10076
0.16465
0.24493
0.34159
0.42678
0.44152
0.34896
0.18349
-0.00573
-0.17448
-0.31128
-0.40302
-0.46692
-0.49968
-0.48822
-0.43661
-0.36043
-0.26377
-0.16957
-0.09584
-0.04587
-0.01393
0.00901
0.02294
0.03113
0.03604
0.04014
0.04014
0.04014
0.04014
0.04014
0.04014
0.04096
0.04505
0.04505
0.04587
0.04997
0.04997
0.04915
0.04505
0.04342
0.04014
0.04014
0.04096
0.04505
0.04342
0.04014
0.04096
0.04342
0.04014
0.04014
0.04014
0.04014
0.04096
0.04587
0.04997
0.04997
0.04997
0.04997
0.05161
0.05488
0.05406
0.04997
0.04997
0.04997
0.04997
0.04997
0.04997
0.04997
0.05079
0.05488
0.05488
0.05406
0.04997
0.04997
0.05079
0.05488
0.05488
0.05488
0.05652
0.05980
0.05980
0.05980
0.05898
0.05488
0.05488
0.05488
0.05488
0.05488
0.05406
0.04997
0.05079
0.05488
0.05488
0.05488
0.05488
0.05652
0.05980
0.05980
0.05980
0.05980
0.05980
0.06144
0.06471
0.06471
0.06389
0.05898
0.05488
0.05488
0.05488
0.05488
0.05488
0.05488
0.05406
0.04997
0.04997
0.04997
0.04997
0.04997
0.04997
0.04997
0.04997
0.04997
0.04997
0.05079
0.05488
0.05406
0.04997
0.04997
0.04997
0.04997
0.04997
0.04997
0.04997
0.04997
0.04915
0.04423
0.04014
0.03932
0.03522
0.03359
0.02867
0.02376
0.01884
0.01474
0.01393
0.00901
0.00491
0.00410
-0.00082
-0.00491
-0.00491
-0.00491
-0.00491
-0.00573
-0.00983
-0.00983
-0.00983
-0.00983
-0.00983
-0.00983
-0.00983
-0.00983
-0.00983
-0.00983
-0.00983
-0.00983
-0.00983
-0.00983
-0.00901
-0.00491
-0.00491
-0.00491
-0.00491
-0.00491
-0.00491
-0.00491
-0.00491
-0.00491
-0.00491
-0.00491
-0.00491
-0.00491
-0.00491
-0.00491
-0.00491
-0.00491
-0.00491
-0.00491
-0.00491
-0.00491
-0.00491
-0.00491
-0.00491
-0.00410
0.00164
0.01229
0.02294
0.03768
0.05243
0.06717
0.07618
0.07946
0.07536
0.07536
0.07618
0.08110
0.08519
0.08192
0.06717
0.05243
0.03850
0.02703
0.01311
0.00328
-0.00573
-0.01065
-0.01556
-0.02130
-0.02539
-0.02539
-0.02539
-0.02539
-0.02539
-0.02621
-0.03031
-0.03031
-0.03031
-0.03031
-0.03031
-0.03031
-0.03031
-0.03031
-0.03031
-0.03031
-0.03031
-0.03031
-0.03031
-0.03031
-0.03031
-0.03031
-0.03031
-0.03031
-0.03031
-0.03031
-0.03031
-0.02949
-0.02539
-0.02539
-0.02539
-0.02457
-0.01720
-0.00164
0.01884
0.04751
0.09666
0.16875
0.25885
0.37108
0.45545
0.44316
0.32357
0.12779
-0.06799
-0.23674
-0.36616
-0.45955
-0.51525
-0.54228
-0.52098
-0.46118
-0.37435
-0.27524
-0.18431
-0.11714
-0.07045
-0.04096
-0.01802
-0.00410
0.00164
0.01065
0.01474
0.01474
0.01556
0.01966
0.01966
0.02048
0.02539
0.02539
0.03031
0.03031
0.03031
0.03031
0.03031
0.03031
0.03031
0.03113
0.03522
0.03522
0.03522
0.03522
0.03522
0.03522
0.03522
0.03522
0.03604
0.04014
0.03932
0.03522
0.03522
0.03522
0.03604
0.04014
0.04014
0.04014
0.04014
0.04096
0.04505
0.04505
0.04505
0.04423
0.04014
0.04014
0.04014
0.04096
0.04423
0.04014
0.04096
0.04587
0.05079
0.05488
0.05488
0.05488
0.05488
0.05488
0.05570
0.05980
0.05980
0.05980
0.05980
0.05980
0.05980
0.05980
0.06062
0.06471
0.06471
0.06471
0.06471
0.06471
0.06471
0.06471
0.06471
0.06471
0.06471
0.06471
0.05980
0.05980
0.05898
0.05488
0.05488
0.05488
0.05488
0.05488
0.05406
0.04997
0.04997
0.04915
0.04423
0.04014
0.04014
0.04014
0.04096
0.04587
0.04997
0.04915
0.04505
0.04505
0.04505
0.04505
0.04505
0.04505
0.04505
0.04423
0.04014
0.04014
0.04014
0.04014
0.04014
0.03932
0.03440
0.03031
0.02949
0.02539
0.02457
0.01966
0.01966
0.01474
0.01393
0.00410
0.00000
0.00000
-0.00082
-0.00491
-0.00573
-0.01065
-0.01966
-0.02048
-0.02539
-0.02539
-0.02539
-0.03031
-0.03031
-0.02949
-0.02539
-0.02457
-0.01966
-0.01966
-0.01966
-0.01474
-0.01474
-0.01474
-0.01474
-0.00983
-0.00983
-0.00491
-0.00491
-0.00491
-0.00491
-0.00491
0.00000
0.00000
0.00000
0.00000
-0.00082
-0.00491
-0.00491
-0.00491
-0.00491
-0.00573
-0.00983
-0.01065
-0.01474
-0.01474
-0.01474
-0.01474
-0.00983
-0.00983
-0.00491
0.00164
0.01556
0.02621
0.04178
0.06144
0.07536
0.08028
0.07946
0.07536
0.07536
0.08028
0.08519
0.08519
0.08355
0.06389
0.04915
0.03850
0.02457
0.01393
-0.00082
-0.01065
-0.01556
-0.02048
-0.02539
-0.03031
-0.03031
-0.03031
-0.03031
-0.03031
-0.03031
-0.03031
-0.03522
-0.03522
-0.03440
-0.03031
-0.03031
-0.03522
-0.03522
-0.03440
-0.03031
-0.03522
-0.03522
-0.03522
-0.03522
-0.04014
-0.04014
-0.04014
-0.04014
-0.04014
-0.03932
-0.03440
-0.03031
-0.03031
-0.03031
-0.03031
-0.02949
-0.02376
-0.00819
0.01720
0.05816
0.11468
0.19660
0.30227
0.41941
0.47593
0.40548
0.25312
0.05816
-0.13516
-0.29735
-0.41941
-0.49805
-0.54556
-0.54801
-0.51607
-0.43989
-0.34404
-0.24083
-0.16137
-0.09830
-0.06389
-0.03850
-0.01884
-0.00491
0.00000
0.00491
0.00983
0.01065
0.01474
0.01474
0.01474
0.01474
0.01474
0.01474
0.01474
0.01474
0.01474
0.01474
0.01556
0.01966
0.01966
0.01966
0.02048
0.02539
0.02539
0.02539
0.02539
0.02539
0.02539
0.02539
0.02539
0.03031
0.03031
0.03031
0.03031
0.03031
0.03522
0.03522
0.03522
0.03522
0.04014
0.04014
0.04014
0.04014
0.03522
0.03522
0.03522
0.03522
0.03522
0.04014
0.04014
0.04014
0.04014
0.04014
0.04014
0.04014
0.04014
0.04014
0.04014
0.04014
0.04014
0.04014
0.04014
0.04014
0.04014
0.04505
0.04505
0.04505
0.04505
0.04505
0.04505
0.04505
0.04505
0.04505
0.04505
0.04505
0.04505
0.04505
0.04505
0.04505
0.04505
0.04014
0.04505
0.04505
0.04505
0.04505
0.04014
0.04014
0.04014
0.04014
0.04014
0.04014
0.04014
0.04014
0.04014
0.04014
0.04014
0.04014
0.04014
0.04014
0.04014
0.04014
0.04014
0.04014
0.04014
0.04014
0.04014
0.04014
0.04014
0.04014
0.03522
0.03031
0.03031
0.03522
0.03522
0.03031
0.03031
0.02539
0.02539
0.02457
0.01966
0.01474
0.01474
0.00983
0.00491
0.00491
0.00491
0.00491
0.00491
0.00491
0.00000
-0.00491
-0.00491
-0.00491
-0.00491
-0.00491
-0.00491
-0.00491
-0.00491
-0.00491
-0.00491
-0.00491
0.00000
0.00000
0.00000
0.00491
0.00491
0.00983
0.00983
0.00983
0.00983
0.00491
0.00491
0.00983
0.00491
0.00491
0.00491
0.00491
0.00491
0.00000
-0.00491
-0.00491
-0.00491
-0.00491
-0.00491
-0.00491
-0.00983
-0.00983
-0.00983
-0.00983
-0.01474
-0.01474
-0.00491
0.00000
0.01474
0.02457
0.03522
0.04997
0.05980
0.05980
0.05980
0.05488
0.05980
0.06471
0.06471
0.06471
0.06471
0.04997
0.04014
0.02539
0.01065
0.00000
-0.00983
-0.01966
-0.02949
-0.03031
-0.03522
-0.03522
-0.03522
-0.04014
-0.04505
-0.04505
-0.04014
-0.04014
-0.04505
-0.04505
-0.04997
-0.04997
-0.04997
-0.04505
-0.04997
-0.05488
-0.05488
-0.05488
-0.05488
-0.05488
-0.05488
-0.05488
-0.05488
-0.05488
-0.04997
-0.04997
-0.04997
-0.04997
-0.04997
-0.04997
-0.04505
-0.04014
-0.03522
-0.02539
-0.00573
0.01393
0.05816
0.12287
0.20643
0.31128
0.41613
0.46774
0.40302
0.23182
0.01884
-0.18185
-0.34323
-0.45545
-0.52672
-0.56849
-0.57013
-0.53163
-0.45791
-0.35961
-0.25476
-0.17366
-0.11304
-0.07700
-0.04669
-0.03031
-0.02048
-0.01065
-0.00983
-0.00983
-0.00491
-0.00491
-0.00491
-0.00491
-0.00491
-0.00491
-0.00491
0.00000
0.00000
0.00491
0.00491
0.00491
0.00491
0.00491
0.00491
0.00491
0.00491
0.00491
0.00491
0.00983
0.00983
0.00983
0.00983
0.00983
0.00983
0.00983
0.00983
0.01474
0.01474
0.01474
0.01065
0.00983
0.00983
0.01474
0.01474
0.01474
0.01474
0.01474
0.01474
0.01474
0.01474
0.01474
0.01474
0.01474
0.01474
0.01474
0.01474
0.01474
0.01474
0.01474
0.01474
0.01474
0.01474
0.01474
0.01474
0.01474
0.01474
0.01966
0.02457
0.02539
0.02539
0.02949
0.02539
0.02539
0.02539
0.02539
0.02539
0.02949
0.03031
0.03031
0.03031
0.03031
0.03031
0.03031
0.03031
0.03031
0.03031
0.03031
0.03031
0.02539
0.02048
0.01966
0.02457
0.02539
0.02539
0.02539
0.02539
0.02048
0.01966
0.01966
0.01966
0.01966
0.01966
0.01966
0.01556
0.01474
0.01474
0.01474
0.01474
0.01474
0.01474
0.01474
0.01474
0.01474
0.01474
0.01474
0.01474
0.01474
0.01065
0.00983
0.00983
0.00573
0.00082
0.00000
-0.00491
-0.00491
-0.00983
-0.01474
-0.01966
-0.02457
-0.02949
-0.03031
-0.03031
-0.03031
-0.03031
-0.03440
-0.03522
-0.03522
-0.03522
-0.03522
-0.03522
-0.03522
-0.03522
-0.03522
-0.03522
-0.03522
-0.03522
-0.03932
-0.04014
-0.04014
-0.03522
-0.03031
-0.03031
-0.03031
-0.03031
-0.03031
-0.03031
-0.03031
-0.03031
-0.03031
-0.03031
-0.03031
-0.03031
-0.03031
-0.03031
-0.03031
-0.02539
-0.02539
-0.02539
-0.02539
-0.02539
-0.02539
-0.02949
-0.03031
-0.03031
-0.03031
-0.03031
-0.03031
-0.03031
-0.03031
-0.03440
-0.03031
-0.03031
-0.02539
-0.00737
0.00410
0.01393
0.02785
0.03850
0.04423
0.04096
0.04014
0.04423
0.04505
0.05406
0.05898
0.05570
0.04178
0.03113
0.01720
-0.00246
-0.01393
-0.02785
-0.03031
-0.03440
-0.03932
-0.04423
-0.04915
-0.05406
-0.05488
-0.05488
-0.05488
-0.05488
-0.05488
-0.05488
-0.05898
-0.05980
-0.06471
-0.06471
-0.06062
-0.05980
-0.05570
-0.05488
-0.05488
-0.05488
-0.05898
-0.05980
-0.06471
-0.06062
-0.05570
-0.05488
-0.05488
-0.05488
-0.05488
-0.05488
-0.05488
-0.05079
-0.04997
-0.04178
-0.03113
-0.02130
-0.00246
0.03440
0.09175
0.16875
0.26541
0.36534
0.40958
0.35469
0.20397
0.00000
-0.18431
-0.33831
-0.45381
-0.52590
-0.56522
-0.57013
-0.53163
-0.46528
-0.37435
-0.27524
-0.19168
-0.13352
-0.09502
-0.06881
-0.05243
-0.03686
-0.03113
-0.03031
-0.02539
-0.02048
-0.01556
-0.01474
-0.01884
-0.01966
-0.01966
-0.01966
-0.01966
-0.01966
-0.01966
-0.02457
-0.02539
-0.02048
-0.01966
-0.01556
-0.01474
-0.01474
-0.01474
-0.01474
-0.01065
-0.00983
-0.00983
-0.00983
-0.00573
-0.00491
-0.00491
-0.00491
-0.00491
-0.00491
-0.00491
-0.00491
-0.00082
0.00000
0.00410
0.00491
0.00491
0.00491
0.00491
0.00491
0.00082
0.00000
-0.00410
-0.00491
-0.00491
-0.00491
-0.00491
-0.00491
-0.00491
-0.00082
0.00410
0.00901
0.00983
0.00573
0.00491
0.00491
0.00491
0.00491
0.00901
0.01393
0.01474
0.01474
0.01474
0.01474
0.01474
0.01474
0.01474
0.01474
0.01474
0.01065
0.00983
0.01393
0.01474
0.01474
0.01474
0.01474
0.01474
0.01474
0.01474
0.01474
0.01474
0.01474
0.01474
0.01474
0.01474
0.01474
0.01474
0.01474
0.01474
0.01474
0.01474
0.01474
0.01474
0.01474
0.01474
0.01474
0.01474
0.01474
0.01474
0.01474
0.01474
0.01884
0.01556
0.01474
0.01474
0.01474
0.01474
0.01474
0.01474
0.01065
0.00983
0.00983
0.00573
0.00082
-0.00410
-0.00491
-0.00901
-0.01393
-0.01884
-0.02376
-0.02539
-0.02867
-0.03031
-0.03359
-0.03522
-0.03932
-0.04014
-0.04423
-0.04505
-0.04505
-0.04505
-0.04505
-0.04505
-0.04505
-0.04505
-0.04505
-0.04505
-0.04505
-0.04505
-0.04505
-0.04096
-0.04014
-0.04014
-0.04014
-0.04014
-0.04014
-0.04014
-0.04014
-0.04014
-0.03604
-0.03522
-0.03522
-0.03522
-0.03522
-0.03522
-0.03522
-0.03522
-0.03113
-0.03031
-0.03031
-0.03359
-0.03522
-0.03522
-0.03522
