-0.00375
-0.05246
-0.12490
-0.13489
0.03872
0.39218
0.74938
0.88677
0.71941
0.38218
0.08368
-0.06245
-0.08993
-0.07869
-0.06744
-0.06744
-0.06994
-0.06994
-0.06744
-0.06744
-0.07494
-0.08243
-0.08743
-0.09242
-0.09492
-0.09492
-0.09742
-0.10242
-0.10741
-0.11491
-0.12490
-0.13489
-0.14738
-0.15737
-0.16486
-0.17486
-0.18485
-0.19484
-0.19984
-0.20483
-0.21232
-0.21982
-0.22481
-0.22481
-0.22232
-0.21982
-0.21732
-0.21232
-0.20608
-0.19109
-0.17111
-0.15113
-0.12864
-0.10616
-0.08618
-0.06620
-0.04871
-0.03372
-0.01873
-0.00749
0.00000
0.00500
0.00500
0.00500
0.00500
0.00500
0.00500
0.00500
0.00500
0.00500
0.00500
0.00500
0.00500
0.00250
-0.00250
-0.00500
-0.00500
-0.00500
-0.00749
-0.01374
-0.02373
-0.03622
-0.04746
-0.04746
-0.04122
-0.02623
-0.00375
0.02123
0.03747
0.03622
0.02623
0.01998
0.02248
0.02498
0.02248
0.02248
0.02498
0.02248
0.01124
-0.01499
-0.06495
-0.12864
-0.12615
0.04246
0.37094
0.69817
0.83057
0.68818
0.37844
0.09867
-0.04746
-0.08493
-0.07869
-0.06744
-0.06744
-0.06994
-0.06994
-0.06744
-0.06744
-0.06994
-0.07244
-0.07744
-0.08243
-0.08743
-0.09242
-0.09742
-0.10366
-0.11241
-0.11740
-0.12365
-0.13364
-0.14613
-0.15862
-0.16861
-0.17860
-0.19109
-0.20358
-0.21232
-0.21482
-0.21857
-0.22731
-0.23231
-0.23481
-0.23481
-0.23481
-0.23356
-0.22606
-0.21607
-0.20608
-0.19234
-0.16986
-0.14488
-0.11990
-0.09492
-0.06994
-0.04746
-0.02873
-0.01624
-0.00624
0.00375
0.01374
0.01998
0.01998
0.01749
0.01249
0.00749
0.00500
0.00874
0.01499
0.01249
0.00999
0.01249
0.01499
0.01249
0.00999
0.00749
0.00250
-0.00250
-0.00500
-0.00874
-0.01873
-0.03247
-0.04496
-0.04496
-0.03872
-0.01873
0.01124
0.03622
0.04746
0.04746
0.04496
0.04246
0.03747
0.03247
0.02998
0.02748
0.02498
0.02248
0.01249
-0.02123
-0.08743
-0.14613
-0.07619
0.20108
0.59076
0.87428
0.86554
0.57078
0.21732
-0.00874
-0.08368
-0.08368
-0.07119
-0.06495
-0.06744
-0.07244
-0.07369
-0.06994
-0.06869
-0.06744
-0.06994
-0.07244
-0.07869
-0.08743
-0.09242
-0.09742
-0.10242
-0.10741
-0.11366
-0.12365
-0.13614
-0.15113
-0.16736
-0.18360
-0.19234
-0.19734
-0.20358
-0.20983
-0.21357
-0.22232
-0.22856
-0.23481
-0.23481
-0.23481
-0.23481
-0.23356
-0.22481
-0.21108
-0.19734
-0.17610
-0.14863
-0.12115
-0.09742
-0.07744
-0.05745
-0.03997
-0.02623
-0.01499
-0.00375
0.00125
0.00874
0.01499
0.01499
0.01499
0.01624
0.01998
0.01998
0.01998
0.01998
0.01873
0.01374
0.01124
0.01624
0.01624
0.00624
-0.00125
-0.00624
-0.01374
-0.02373
-0.03372
-0.04122
-0.04496
-0.03997
-0.02123
0.00749
0.03497
0.04496
0.04496
0.04496
0.04122
0.03372
0.02873
0.02498
0.02373
0.01873
0.01499
0.01374
-0.00250
-0.05121
-0.11865
-0.12365
0.02748
0.32348
0.63198
0.77686
0.65196
0.36095
0.09617
-0.04496
-0.08368
-0.07619
-0.06869
-0.06495
-0.06495
-0.06620
-0.06994
-0.07119
-0.07494
-0.07619
-0.08118
-0.08618
-0.08993
-0.09117
-0.09617
-0.10366
-0.11116
-0.11615
-0.12115
-0.12864
-0.13988
-0.15362
-0.16486
-0.17860
-0.18859
-0.19859
-0.20858
-0.21857
-0.22606
-0.22981
-0.22981
-0.22981
-0.22981
-0.22981
-0.22856
-0.22481
-0.22232
-0.20858
-0.18735
-0.16237
-0.13864
-0.11491
-0.08493
-0.05995
-0.04496
-0.02873
-0.01124
-0.00125
0.00624
0.01374
0.01998
0.01873
0.01374
0.01124
0.01624
0.01998
0.01998
0.01998
0.01998
0.01998
0.01998
0.01998
0.01998
0.01873
0.01124
0.00375
0.00000
-0.00125
-0.00874
-0.02123
-0.03622
-0.03872
-0.03372
-0.02373
-0.00125
0.02748
0.04621
0.04871
0.04371
0.03997
0.03872
0.03372
0.02873
0.02498
0.02498
0.02373
0.01749
-0.00250
-0.05620
-0.13988
-0.16736
-0.00375
0.35596
0.73689
0.90176
0.74564
0.39842
0.09492
-0.05995
-0.09242
-0.07993
-0.06744
-0.06120
-0.06620
-0.06994
-0.07119
-0.07619
-0.07993
-0.08118
-0.08618
-0.09117
-0.09492
-0.09617
-0.10117
-0.10741
-0.11615
-0.12115
-0.12739
-0.13988
-0.15237
-0.16486
-0.17735
-0.18735
-0.19734
-0.20733
-0.21732
-0.22731
-0.23481
-0.23481
-0.23481
-0.23730
-0.24605
-0.24979
-0.24979
-0.24730
-0.23730
-0.22606
-0.20983
-0.18735
-0.16237
-0.13739
-0.11116
-0.08243
-0.06120
-0.04746
-0.03622
-0.02123
-0.00874
-0.00375
0.00125
0.00500
0.00624
0.00999
0.00999
0.00874
0.00375
0.00000
0.00125
0.00749
0.01624
0.01749
0.00874
0.00375
0.00000
0.00125
0.00250
-0.00749
-0.01873
-0.03247
-0.03872
-0.03247
-0.02123
-0.00375
0.01998
0.03747
0.04496
0.04371
0.03872
0.03497
0.03497
0.03372
0.02873
0.02498
0.02373
0.01873
0.00749
-0.02998
-0.08743
-0.13239
-0.06869
0.17860
0.51458
0.74813
0.72565
0.47586
0.18110
-0.00749
-0.07244
-0.07744
-0.06869
-0.06370
-0.06120
-0.06495
-0.06495
-0.06495
-0.06620
-0.07244
-0.08243
-0.08993
-0.08993
-0.09117
-0.09492
-0.09617
-0.10242
-0.11116
-0.11740
-0.12739
-0.13864
-0.15237
-0.16237
-0.17236
-0.18235
-0.19234
-0.20233
-0.20983
-0.21108
-0.21732
-0.22481
-0.22606
-0.22981
-0.22981
-0.22981
-0.22856
-0.22107
-0.20733
-0.19484
-0.17361
-0.14863
-0.12365
-0.09867
-0.07369
-0.05121
-0.03497
-0.01749
-0.00749
0.00250
0.01124
0.01499
0.01374
0.00999
0.01124
0.01624
0.01998
0.01998
0.01998
0.01998
0.01873
0.01499
0.01624
0.01998
0.01749
0.00874
0.00500
0.00250
-0.00749
-0.01873
-0.03247
-0.03997
-0.03872
-0.03122
-0.01249
0.01749
0.04246
0.04871
0.04496
0.04496
0.04496
0.04496
0.04371
0.03872
0.03372
0.02873
0.02373
0.01624
-0.00999
-0.08118
-0.15737
-0.11615
0.14363
0.54455
0.85804
0.88302
0.61949
0.25979
0.00999
-0.07619
-0.07619
-0.06245
-0.05495
-0.05495
-0.05620
-0.06120
-0.06620
-0.06994
-0.06869
-0.06620
-0.07244
-0.08118
-0.08618
-0.09117
-0.09617
-0.10242
-0.11116
-0.11615
-0.12365
-0.13739
-0.14738
-0.15737
-0.16861
-0.18235
-0.19359
-0.20733
-0.21857
-0.23106
-0.23481
-0.23730
-0.24605
-0.24979
-0.24979
-0.24979
-0.24979
-0.24855
-0.24230
-0.22481
-0.20108
-0.18110
-0.15862
-0.12864
-0.09992
-0.07494
-0.05246
-0.03747
-0.02248
-0.01249
-0.00375
0.00125
0.00749
0.01624
0.01998
0.01998
0.01998
0.01998
0.01998
0.02123
0.02373
0.01998
0.01998
0.01998
0.01873
0.01249
0.00500
0.00375
-0.00250
-0.01249
-0.02748
-0.04246
-0.04871
-0.04371
-0.03497
-0.00874
0.02373
0.04246
0.04871
0.04371
0.03997
0.03872
0.03497
0.03497
0.03372
0.02748
0.01998
0.01749
0.00375
-0.03372
-0.10741
-0.13988
0.00874
0.36220
0.73939
0.90925
0.75313
0.39592
0.08118
-0.07244
-0.10242
-0.08743
-0.07369
-0.06994
-0.06994
-0.07119
-0.07619
-0.08118
-0.08493
-0.08618
-0.09117
-0.09492
-0.09492
-0.09617
-0.10242
-0.11116
-0.11740
-0.12615
-0.13114
-0.13739
-0.14738
-0.16237
-0.17236
-0.18110
-0.18735
-0.20233
-0.21108
-0.21732
-0.22606
-0.22981
-0.22856
-0.22606
-0.22981
-0.22981
-0.22856
-0.21857
-0.20983
-0.20733
-0.19109
-0.16611
-0.13988
-0.11116
-0.08618
-0.06744
-0.05246
-0.03872
-0.02873
-0.01873
-0.00874
-0.00500
-0.00375
0.00125
0.00500
0.00500
0.00375
0.00125
0.00500
0.00500
0.00500
0.00500
0.00375
-0.00125
-0.00500
-0.00624
-0.01124
-0.01624
-0.02748
-0.04122
-0.05121
-0.05870
-0.05371
-0.04122
-0.01499
0.01374
0.03622
0.03872
0.03372
0.03122
0.03372
0.02998
0.02873
0.02373
0.01998
0.01873
0.01374
0.00500
-0.03622
-0.10991
-0.15862
-0.05371
0.24105
0.60075
0.83181
0.77311
0.48085
0.16861
-0.02498
-0.08368
-0.07744
-0.06370
-0.05995
-0.06120
-0.06495
-0.06620
-0.07119
-0.07494
-0.07369
-0.07119
-0.08118
-0.08618
-0.09117
-0.09617
-0.10616
-0.11116
-0.11615
-0.12615
-0.13614
-0.14613
-0.15612
-0.16611
-0.17735
-0.19109
-0.20108
-0.21108
-0.21607
-0.22606
-0.22981
-0.23106
-0.23606
-0.24105
-0.24480
-0.23980
-0.23481
-0.22856
-0.21857
-0.20233
-0.17735
-0.15737
-0.13614
-0.10616
-0.07619
-0.05246
-0.03247
-0.01749
-0.00375
0.00500
0.00500
0.00500
0.00500
0.00500
0.00500
0.00500
0.00500
0.00500
0.00500
0.00624
0.01624
0.01998
0.01998
0.01873
0.00999
0.00375
-0.00500
-0.00624
-0.01624
-0.02623
-0.04122
-0.04996
-0.04371
-0.03122
-0.00125
0.02748
0.05121
0.05495
0.05371
0.04496
0.04496
0.03997
0.04496
0.04496
0.03997
0.03497
0.02748
0.00500
-0.04496
-0.12615
-0.16112
-0.01124
0.34721
0.75063
0.94047
0.78560
0.42340
0.10616
-0.04871
-0.07869
-0.06869
-0.05995
-0.05995
-0.05995
-0.06495
-0.06994
-0.06994
-0.07119
-0.07993
-0.08493
-0.08493
-0.08618
-0.09492
-0.09992
-0.10491
-0.11116
-0.11990
-0.12615
-0.13614
-0.15113
-0.16112
-0.17111
-0.18110
-0.19109
-0.20608
-0.22107
-0.23106
-0.23606
-0.24105
-0.24979
-0.25104
-0.25479
-0.25479
-0.24979
-0.24855
-0.23855
-0.22856
-0.21357
-0.19234
-0.16736
-0.14238
-0.10741
-0.08243
-0.05371
-0.03872
-0.02373
-0.01374
-0.00375
0.00500
0.00999
0.00999
0.01499
0.01998
0.01998
0.01499
0.01499
0.01998
0.02498
0.02998
0.02498
0.02498
0.01873
0.00874
0.00000
0.00000
-0.00624
-0.01624
-0.03622
-0.04496
-0.04371
-0.03247
-0.00749
0.02748
0.04996
0.05495
0.05495
0.04996
0.04996
0.04996
0.04496
0.04496
0.04496
0.03872
0.02873
0.01749
-0.01499
-0.08493
-0.15113
-0.07869
0.22606
0.64322
0.93798
0.89801
0.57827
0.20358
-0.02498
-0.09492
-0.08368
-0.06495
-0.05995
-0.06495
-0.06994
-0.06495
-0.06994
-0.06994
-0.06994
-0.07619
-0.08493
-0.08993
-0.09492
-0.09492
-0.09617
-0.10616
-0.12115
-0.12989
-0.13614
-0.14613
-0.15612
-0.16611
-0.17610
-0.18610
-0.20108
-0.20983
-0.21482
-0.22107
-0.22981
-0.22981
-0.22981
-0.23481
-0.23481
-0.23481
-0.22981
-0.22481
-0.21857
-0.20358
-0.17860
-0.15362
-0.12864
-0.10366
-0.07869
-0.05371
-0.03497
-0.02373
-0.00999
-0.00500
0.00500
0.00500
0.00500
0.00500
0.00500
0.00999
0.00999
0.00999
0.00999
0.00999
0.00999
0.01499
0.01499
0.00500
-0.00500
-0.00500
-0.00999
-0.02123
-0.03497
-0.04496
-0.04496
-0.03997
-0.02873
0.00125
0.03497
0.04496
0.04496
0.04496
0.03997
0.03497
0.02498
0.01998
0.01998
0.01998
0.01998
0.01998
0.00874
-0.03247
-0.10741
-0.15737
-0.05495
0.23730
0.60325
0.83806
0.77061
0.46462
0.14488
-0.03122
-0.08493
-0.07494
-0.06495
-0.05995
-0.06495
-0.06495
-0.06994
-0.06994
-0.06994
-0.06495
-0.06994
-0.08493
-0.08493
-0.08493
-0.08993
-0.09492
-0.10491
-0.10491
-0.11491
-0.12989
-0.14488
-0.15487
-0.15987
-0.17486
-0.18485
-0.19484
-0.19984
-0.20983
-0.21982
-0.22481
-0.22981
-0.22981
-0.23481
-0.23481
-0.23481
-0.22981
-0.22481
-0.21482
-0.19984
-0.17985
-0.15487
-0.12989
-0.10491
-0.07993
-0.05495
-0.03997
-0.01998
-0.00500
-0.00500
0.00000
0.00500
0.00999
0.01499
0.01499
0.01499
0.01998
0.01998
0.01998
0.01998
0.01998
0.01998
0.01998
0.01998
0.01499
0.00500
0.00000
-0.00500
-0.01998
-0.02998
-0.04496
-0.04496
-0.03997
-0.01499
0.00999
0.03497
0.04996
0.04996
0.04496
0.04496
0.04496
0.03997
0.03997
0.03497
0.03497
0.03497
0.02998
0.00999
-0.04996
-0.13988
-0.15487
0.03372
0.41840
0.81308
0.96420
0.75688
0.36345
0.06744
-0.05870
-0.07993
-0.06495
-0.05995
-0.05495
-0.05995
-0.05995
-0.06495
-0.06495
-0.06994
-0.06994
-0.07494
-0.06994
-0.07993
-0.08493
-0.09492
-0.09992
-0.10491
-0.11491
-0.11990
-0.12989
-0.13988
-0.15487
-0.16486
-0.17985
-0.18984
-0.20483
-0.21982
-0.22481
-0.23481
-0.23980
-0.24480
-0.24979
-0.24480
-0.24979
-0.24979
-0.24480
-0.23481
-0.22481
-0.20983
-0.18610
-0.16112
-0.13114
-0.10616
-0.08118
-0.05620
-0.03997
-0.02498
-0.01998
-0.00500
0.00500
0.00999
0.00999
0.00999
0.00999
0.00500
0.00500
0.00500
0.01499
0.00999
0.00500
0.00999
0.01499
0.00999
0.00500
-0.00500
0.00000
-0.00500
-0.01499
-0.02998
-0.04496
-0.04996
-0.04996
-0.03997
-0.01124
0.02373
0.03997
0.04496
0.04496
0.03997
0.03497
0.02998
0.02998
0.02998
0.02498
0.01998
0.01998
0.00999
-0.01374
-0.07244
-0.14238
-0.11116
0.11990
0.48335
0.78685
0.81433
0.56204
0.22606
0.00500
-0.07619
-0.07993
-0.06994
-0.06495
-0.05995
-0.06495
-0.06994
-0.06994
-0.07494
-0.07494
-0.07494
-0.07993
-0.08493
-0.08493
-0.09492
-0.09492
-0.09992
-0.10991
-0.11990
-0.13364
-0.13988
-0.14988
-0.15487
-0.16861
-0.17985
-0.18485
-0.19859
-0.20483
-0.21482
-0.21982
-0.22481
-0.22981
-0.22981
-0.22981
-0.22981
-0.22481
-0.21982
-0.20608
-0.19109
-0.17111
-0.15113
-0.13114
-0.10616
-0.08118
-0.06120
-0.04122
-0.02123
-0.01124
-0.00500
0.00000
0.00500
0.00999
0.00500
0.00500
0.00500
0.00500
0.00500
0.00500
0.00500
0.00999
0.01499
0.00999
0.00999
0.00999
0.00500
-0.00375
-0.00999
-0.01873
-0.02873
-0.04371
-0.04496
-0.03622
-0.01624
0.01249
0.03747
0.04871
0.04996
0.04496
0.04496
0.03997
0.03497
0.02998
0.02498
0.02498
0.02498
0.02498
0.01124
-0.03622
-0.11740
-0.16611
-0.02748
0.31474
0.70692
0.90925
0.77436
0.42590
0.11615
-0.04246
-0.08243
-0.07619
-0.06620
-0.05995
-0.05995
-0.06495
-0.06495
-0.06495
-0.06495
-0.06994
-0.07494
-0.07494
-0.08368
-0.08493
-0.08993
-0.09492
-0.09992
-0.11366
-0.12365
-0.12989
-0.13864
-0.15362
-0.16362
-0.17361
-0.18360
-0.19859
-0.20858
-0.21857
-0.22856
-0.23481
-0.23481
-0.23481
-0.23980
-0.24480
-0.24480
-0.24105
-0.23606
-0.22606
-0.21607
-0.19734
-0.16861
-0.13864
-0.10866
-0.07869
-0.05246
-0.03622
-0.02623
-0.01624
-0.00624
0.00375
0.00500
0.00500
0.00999
0.01873
0.01998
0.01998
0.01998
0.01998
0.01998
0.01998
0.01998
0.01998
0.01998
0.01124
0.00500
0.00500
-0.00375
-0.01873
-0.03747
-0.04496
-0.04496
-0.03997
-0.01749
0.01624
0.03747
0.04496
0.04496
0.04496
0.04496
0.03997
0.03122
0.02998
0.03497
0.02998
0.02998
0.02998
0.01249
-0.04746
-0.13364
-0.15362
0.04246
0.42590
0.81683
0.96171
0.75188
0.36970
0.06620
-0.06245
-0.07993
-0.06744
-0.06120
-0.05995
-0.06495
-0.06495
-0.06994
-0.07494
-0.07119
-0.06994
-0.07494
-0.08368
-0.08493
-0.08993
-0.09867
-0.10866
-0.10991
-0.11491
-0.12365
-0.13739
-0.14863
-0.15487
-0.16861
-0.18360
-0.19359
-0.20358
-0.21357
-0.22357
-0.23356
-0.23481
-0.23980
-0.24855
-0.24979
-0.25479
-0.25104
-0.24979
-0.24605
-0.23231
-0.20858
-0.18360
-0.15862
-0.13364
-0.10366
-0.07869
-0.05371
-0.03747
-0.02248
-0.00749
-0.00500
0.00375
0.00500
0.01374
0.01873
0.01998
0.01998
0.01998
0.01998
0.01998
0.01998
0.01998
0.01998
0.01998
0.01624
0.00624
0.00500
0.00125
-0.00874
-0.01873
-0.03747
-0.04871
-0.04621
-0.03247
-0.00500
0.02998
0.04746
0.05371
0.04621
0.04496
0.04122
0.04371
0.04496
0.04122
0.03122
0.02998
0.02623
0.01624
-0.01499
-0.08243
-0.15362
-0.11491
0.14613
0.55954
0.91550
0.95296
0.65696
0.26478
0.00749
-0.08493
-0.09117
-0.07744
-0.07119
-0.06994
-0.06994
-0.06994
-0.06994
-0.06994
-0.07369
-0.08368
-0.08493
-0.08493
-0.09367
-0.09492
-0.10366
-0.10866
-0.11865
-0.12365
-0.13739
-0.14863
-0.15862
-0.17236
-0.18360
-0.19359
-0.20358
-0.21732
-0.22856
-0.23356
-0.23855
-0.24855
-0.24979
-0.24979
-0.25354
-0.25479
-0.25104
-0.24605
-0.23231
-0.21732
-0.19859
-0.17486
-0.14988
-0.11990
-0.09492
-0.06994
-0.04496
-0.02748
-0.01249
-0.00624
0.00375
0.00500
0.00500
0.00500
0.00874
0.01873
0.01124
0.00999
0.01374
0.01873
0.01998
0.01998
0.01998
0.01998
0.01249
-0.00250
-0.00874
-0.00999
-0.02248
-0.03747
-0.04371
-0.04496
-0.03247
-0.01749
0.01374
0.03997
0.05246
0.04746
0.04496
0.04122
0.03247
0.02998
0.02998
0.02998
0.02998
0.02998
0.02248
0.00375
-0.04371
-0.11491
-0.12615
0.03497
0.35096
0.68818
0.83931
0.69193
0.37469
0.09742
-0.04246
-0.07244
-0.06744
-0.06120
-0.05995
-0.05995
-0.05995
-0.05995
-0.06370
-0.06869
-0.06994
-0.07369
-0.07869
-0.08368
-0.08868
-0.09367
-0.09867
-0.10741
-0.11366
-0.11865
-0.12739
-0.14238
-0.15237
-0.16237
-0.17236
-0.18235
-0.19234
-0.19859
-0.20358
-0.20858
-0.21357
-0.21857
-0.22357
-0.22856
-0.22606
-0.22481
-0.21732
-0.21108
-0.20608
-0.18485
-0.15987
-0.13489
-0.11491
-0.08993
-0.06495
-0.04496
-0.02873
-0.00999
0.00250
0.00874
0.01374
0.01499
0.01873
0.01249
0.00999
0.01374
0.01873
0.01998
0.01998
0.01998
0.01998
0.01998
0.01624
0.01124
0.00624
0.00500
0.00125
-0.00749
-0.02123
-0.03622
-0.04371
-0.04496
-0.03372
-0.00749
0.02248
0.04496
0.05371
0.05121
0.04621
0.04496
0.04496
0.04496
0.04122
0.03247
0.02623
0.02498
0.01749
-0.01499
-0.08618
-0.15487
-0.09367
0.17361
0.55829
0.86429
0.88802
0.60950
0.24730
0.00874
-0.07369
-0.07744
-0.06370
-0.05995
-0.05995
-0.06370
-0.06495
-0.06869
-0.06994
-0.06994
-0.07744
-0.08368
-0.08493
-0.08493
-0.08493
-0.09242
-0.09492
-0.10242
-0.11241
-0.12240
-0.13239
-0.14238
-0.15612
-0.17111
-0.18235
-0.19234
-0.20233
-0.21232
-0.22232
-0.22856
-0.23356
-0.23855
-0.24355
-0.24105
-0.23980
-0.24355
-0.24105
-0.23606
-0.21982
-0.19984
-0.17610
-0.14363
-0.11241
-0.08618
-0.06495
-0.04496
-0.02498
-0.00874
-0.00125
0.00375
0.00500
0.00874
0.00999
0.01374
0.01873
0.01624
0.01124
0.01374
0.01873
0.01998
0.01998
0.01998
0.01998
0.01249
0.00250
0.00000
-0.00375
-0.00874
-0.02498
-0.04122
-0.04496
-0.04122
-0.02498
0.00250
0.03497
0.05246
0.05121
0.04621
0.04122
0.03997
0.04371
0.04122
0.03622
0.03122
0.02998
0.02248
0.00500
-0.04746
-0.12615
-0.14613
0.03247
0.40716
0.79934
0.96670
0.79185
0.41965
0.09617
-0.05745
-0.08868
-0.07619
-0.06245
-0.06370
-0.06869
-0.06994
-0.06620
-0.06869
-0.07369
-0.07869
-0.08368
-0.09242
-0.09867
-0.10366
-0.10866
-0.11366
-0.11865
-0.13114
-0.13864
-0.14738
-0.15737
-0.16736
-0.18110
-0.19234
-0.20608
-0.22107
-0.22856
-0.23356
-0.24230
-0.24855
-0.25354
-0.25479
-0.25104
-0.24979
-0.24979
-0.24605
-0.23855
-0.22856
-0.21108
-0.18735
-0.16237
-0.13739
-0.11241
-0.08743
-0.06620
-0.04996
-0.03497
-0.01998
-0.00749
-0.00500
-0.00500
-0.00500
0.00250
0.00500
0.00500
0.00874
0.00624
0.00500
0.00500
0.00500
0.01249
0.01124
0.00624
-0.00250
-0.00500
-0.01249
-0.02248
-0.03497
-0.04371
-0.04496
-0.04122
-0.02248
0.00874
0.03747
0.04496
0.04122
0.03997
0.03997
0.03372
0.02998
0.02998
0.02998
0.02623
0.02123
0.01374
-0.00749
-0.04871
-0.11241
-0.11491
0.06245
0.39343
0.72190
0.84056
0.67569
0.35596
0.08118
-0.05246
-0.07993
-0.06620
-0.05995
-0.05995
-0.06370
-0.06120
-0.06370
-0.06869
-0.06994
-0.06620
-0.06869
-0.07369
-0.08118
-0.08493
-0.09117
-0.09867
-0.10366
-0.10866
-0.11615
-0.12615
-0.13988
-0.15113
-0.15862
-0.16986
-0.18110
-0.18859
-0.19609
-0.20733
-0.21357
-0.21857
-0.21982
-0.22357
-0.22481
-0.22481
-0.21857
-0.21108
-0.20608
-0.19484
-0.17610
-0.15987
-0.13864
-0.11366
-0.08493
-0.06120
-0.04496
-0.02998
-0.01124
-0.00125
0.00000
0.00000
0.00375
0.00874
0.00999
0.00624
0.00500
0.00500
0.00500
0.00500
0.00874
0.01374
0.01124
0.00624
0.00125
-0.00375
-0.00874
-0.01624
-0.02623
-0.03622
-0.04371
-0.04496
-0.03872
-0.02248
0.00500
0.03122
0.04371
0.04496
0.04496
0.04496
0.03872
0.03122
0.03372
0.03122
0.02998
0.02623
0.02123
0.00749
-0.04246
-0.11615
-0.13864
0.01624
0.35221
0.72190
0.90800
0.77936
0.44588
0.12989
-0.03372
-0.07369
-0.06869
-0.06120
-0.05620
-0.05495
-0.05870
-0.06370
-0.06495
-0.06495
-0.06869
-0.06994
-0.07369
-0.07494
-0.08118
-0.08868
-0.09367
-0.09867
-0.10616
-0.11615
-0.12615
-0.13614
-0.14988
-0.16112
-0.17486
-0.18360
-0.19484
-0.20608
-0.21607
-0.22357
-0.22856
-0.23356
-0.23855
-0.23980
-0.23730
-0.23481
-0.23481
-0.23231
-0.22107
-0.20233
-0.17985
-0.15487
-0.12615
-0.09992
-0.07494
-0.04996
-0.03122
-0.01249
0.00125
0.00749
0.01374
0.01873
0.01998
0.01998
0.01998
0.01998
0.01998
0.01998
0.01998
0.02248
0.02498
0.02498
0.02498
0.02498
0.02248
0.01124
0.00500
0.00250
-0.00874
-0.02748
-0.04122
-0.04496
-0.03622
-0.02123
0.00624
0.03872
0.05620
0.05745
0.05246
0.04996
0.04746
0.04496
0.03872
0.03497
0.03247
0.02998
0.02373
0.01124
-0.03122
-0.10616
-0.14863
-0.01873
0.32723
0.73689
0.95921
0.84305
0.49209
0.15113
-0.03747
-0.08743
-0.08118
-0.06869
-0.06744
-0.06994
-0.06994
-0.06994
-0.07244
-0.07744
-0.08243
-0.08743
-0.09242
-0.09492
-0.09492
-0.09742
-0.10616
-0.11615
-0.12615
-0.13239
-0.14113
-0.15113
-0.16112
-0.17111
-0.18360
-0.19859
-0.21357
-0.21982
-0.22357
-0.23106
-0.23481
-0.23481
-0.23855
-0.24605
-0.24979
-0.24979
-0.24730
-0.23855
-0.22856
-0.21357
-0.18984
-0.16486
-0.13988
-0.11491
-0.08993
-0.06495
-0.04621
-0.03122
-0.01873
-0.00874
-0.00500
-0.00250
0.00250
0.00500
0.00500
0.00500
0.00500
0.00500
0.00500
0.00500
0.00749
0.01249
0.01249
0.00749
0.00500
-0.00125
-0.00500
-0.01124
-0.01749
-0.02873
-0.04122
-0.04746
-0.04746
-0.03622
-0.01249
0.01374
0.03122
0.03747
0.03747
0.03247
0.02748
0.02498
0.02498
0.02248
0.01998
0.01998
0.01749
0.00874
-0.01749
-0.07244
-0.13114
-0.10616
0.09117
0.42715
0.72940
0.80683
0.61824
0.30350
0.04996
-0.06370
-0.07993
-0.06994
-0.06744
-0.06994
-0.06994
-0.06994
-0.06994
-0.06994
-0.07244
-0.08118
-0.08493
-0.08493
-0.08743
-0.09242
-0.09492
-0.09742
-0.10616
-0.11615
-0.12615
-0.13614
-0.14863
-0.16112
-0.17111
-0.17735
-0.18610
-0.19859
-0.20733
-0.21232
-0.21732
-0.22232
-0.22731
-0.22981
-0.22981
-0.22731
-0.22481
-0.22232
-0.21232
-0.19734
-0.18235
-0.16362
-0.14113
-0.11615
-0.09117
-0.06620
-0.04371
-0.02623
-0.01499
-0.00500
0.00250
0.00749
0.00749
0.00500
0.00500
0.00500
0.00500
0.00500
0.00500
0.00500
0.00749
0.01249
0.01749
0.01998
0.01749
0.00999
0.00250
0.00000
-0.00500
-0.01749
-0.03247
-0.04496
-0.04996
-0.04496
-0.02623
0.00125
0.02873
0.04246
0.04496
0.04496
0.04496
0.03997
0.03247
0.02998
0.03497
0.03747
0.03247
0.02748
0.01749
-0.01624
-0.08493
-0.14113
-0.05745
0.22606
0.59576
0.85679
0.84555
0.56703
0.22481
0.00375
-0.06744
-0.06744
-0.05745
-0.05495
-0.05495
-0.05495
-0.05745
-0.06245
-0.06495
-0.06744
-0.06994
-0.07244
-0.07244
-0.07244
-0.07993
-0.08993
-0.09742
-0.10242
-0.10991
-0.11990
-0.12989
-0.14238
-0.15487
-0.16486
-0.17735
-0.18735
-0.19484
-0.20733
-0.21982
-0.22481
-0.22481
-0.22981
-0.23481
-0.23481
-0.23481
-0.23481
-0.23231
-0.22481
-0.21232
-0.19234
-0.16986
-0.14488
-0.11740
-0.09242
-0.06744
-0.04496
-0.02748
-0.01249
-0.00500
0.00000
0.00749
0.01499
0.01749
0.01249
0.00999
0.00999
0.00999
0.01249
0.01749
0.01998
0.01998
0.01998
0.01998
0.01998
0.01749
0.00999
0.00250
0.00000
-0.00500
-0.01749
-0.03247
-0.04246
-0.04496
-0.04246
-0.02498
0.00999
0.03997
0.04996
0.04746
0.04246
0.03747
0.03247
0.02998
0.02998
0.02998
0.02498
0.01998
0.01499
-0.00500
-0.05246
-0.11740
-0.12615
0.03747
0.37594
0.72690
0.87303
0.71441
0.37719
0.08493
-0.05371
-0.07993
-0.06744
-0.06245
-0.06744
-0.07244
-0.07494
-0.07244
-0.06994
-0.06994
-0.07244
-0.07993
-0.08493
-0.08743
-0.08993
-0.09242
-0.10242
-0.11241
-0.11740
-0.12240
-0.12989
-0.13988
-0.15237
-0.16486
-0.17486
-0.18235
-0.18984
-0.19734
-0.20483
-0.21482
-0.22232
-0.22481
-0.22731
-0.22731
-0.22232
-0.22232
-0.22481
-0.21982
-0.20733
-0.19109
-0.16861
-0.14613
-0.12615
-0.10366
-0.07869
-0.05745
-0.04246
-0.02998
-0.01749
-0.00749
-0.00500
-0.00500
-0.00250
0.00250
0.00500
0.00500
0.00500
0.00500
0.00500
0.00500
0.00500
0.00500
0.00250
0.00000
-0.00250
-0.00749
-0.01249
-0.01749
-0.02748
-0.03997
-0.04746
-0.04996
-0.04371
-0.02623
-0.00375
0.02123
0.03997
0.04246
0.03747
0.03247
0.02998
0.02998
0.02748
0.02248
0.01998
0.01998
0.01749
0.00375
-0.03747
-0.10616
-0.14738
-0.04996
0.22856
0.58077
0.79684
0.72940
0.44963
0.15737
-0.01998
-0.07993
-0.07993
-0.06994
-0.06245
-0.06495
-0.06994
-0.06994
-0.06994
-0.06994
-0.07244
-0.07494
-0.07494
-0.07993
-0.08743
-0.09242
-0.09492
-0.09992
-0.10991
-0.11740
-0.12615
-0.13988
-0.14988
-0.15987
-0.16986
-0.17985
-0.19109
-0.20233
-0.20733
-0.21232
-0.21732
-0.22232
-0.22481
-0.22481
-0.22731
-0.22731
-0.22107
-0.21108
-0.19859
-0.18610
-0.16861
-0.14363
-0.11865
-0.09367
-0.07119
-0.05121
-0.03372
-0.02123
-0.01124
-0.00125
0.00749
0.01249
0.01499
0.01749
0.01749
0.01249
0.01249
0.01749
0.01998
0.01998
0.01998
0.02248
0.02748
0.02998
0.02748
0.02248
0.01998
0.01624
0.00749
0.00125
-0.00874
-0.01873
-0.02748
-0.02623
-0.01124
0.01249
0.03872
0.05246
0.05495
0.05495
0.05121
0.04496
0.04496
0.04246
0.03747
0.03497
0.03747
0.03747
0.02248
-0.02623
-0.10242
-0.13739
-0.01374
0.30974
0.69693
0.91425
0.81433
0.48710
0.16237
-0.01998
-0.06744
-0.06120
-0.05121
-0.04496
-0.04746
-0.05371
-0.05995
-0.05995
-0.06245
-0.06744
-0.06994
-0.07244
-0.07494
-0.07744
-0.08243
-0.08868
-0.09742
-0.10366
-0.11615
-0.12864
-0.13864
-0.15237
-0.16861
-0.17735
-0.18360
-0.19609
-0.20733
-0.21357
-0.22232
-0.22481
-0.22856
-0.23481
-0.23481
-0.23481
-0.23481
-0.23481
-0.23356
-0.22357
-0.20733
-0.18735
-0.16362
-0.13364
-0.10491
-0.07993
-0.05745
-0.03747
-0.02123
-0.01124
-0.00250
0.00250
0.00500
0.00749
0.01249
0.01749
0.01749
0.01249
0.00999
0.01249
0.01749
0.01998
0.01998
0.01749
0.01499
0.01249
0.00749
0.00500
0.00250
-0.00250
-0.00874
-0.01873
-0.03122
-0.04246
-0.04746
-0.04621
-0.02998
-0.00500
0.01998
0.03872
0.04746
0.04871
0.04122
0.03372
0.03247
0.03372
0.02998
0.02873
0.02498
0.02373
0.01124
-0.02498
-0.08368
-0.11990
-0.02998
0.23481
0.56828
0.78435
0.74064
0.46711
0.15987
-0.02623
-0.08243
-0.07993
-0.06869
-0.06370
-0.05995
-0.06370
-0.06994
-0.06994
-0.06994
-0.06994
-0.07244
-0.07869
-0.08493
-0.08743
-0.09242
-0.09492
-0.09867
-0.10741
-0.11366
-0.12365
-0.13364
-0.14488
-0.15737
-0.16237
-0.16861
-0.17985
-0.19359
-0.20233
-0.20733
-0.20983
-0.21232
-0.21482
-0.21482
-0.21482
-0.21732
-0.21857
-0.21108
-0.20108
-0.18984
-0.17486
-0.15487
-0.12615
-0.10242
-0.08243
-0.06245
-0.04496
-0.02998
-0.01873
-0.01124
-0.00125
0.00500
0.00500
0.00375
0.00000
0.00000
0.00000
0.00000
0.00125
0.00500
0.00500
0.00375
0.00000
0.00000
0.00000
-0.00125
-0.00500
-0.00624
-0.01374
-0.02498
-0.03872
-0.04621
-0.04996
-0.04871
-0.03997
-0.01873
0.01374
0.03497
0.04496
0.04496
0.04122
0.03372
0.02873
0.02623
0.02998
0.02998
0.02873
0.02498
0.01873
-0.01499
-0.08118
-0.13988
-0.08868
0.15113
0.50458
0.79310
0.82932
0.58577
0.25104
0.01998
-0.06495
-0.07119
-0.06370
-0.05995
-0.05870
-0.05620
-0.06120
-0.06495
-0.06495
-0.06620
-0.07119
-0.07869
-0.08493
-0.08493
-0.08618
-0.09117
-0.09617
-0.10366
-0.11366
-0.12490
-0.13614
-0.14363
-0.15487
-0.16861
-0.17860
-0.18859
-0.19859
-0.20983
-0.22107
-0.22606
-0.23106
-0.23481
-0.23481
-0.23481
-0.23481
-0.23481
-0.23481
-0.22981
-0.21482
-0.19984
-0.18360
-0.15862
-0.12615
-0.09867
-0.07869
-0.05745
-0.03497
-0.02248
-0.01249
-0.00500
-0.00375
0.00125
0.00500
0.00500
0.00500
0.00500
0.00500
0.00500
0.00624
0.00874
0.00500
0.00500
0.00624
0.00999
0.00999
0.00874
0.00375
0.00000
-0.00250
-0.01249
-0.02498
-0.03747
-0.04496
-0.04496
-0.03997
-0.01749
0.01749
0.03747
0.04496
0.04621
0.04871
0.04496
0.04371
0.03872
0.03372
0.02998
0.02748
0.01998
0.01374
-0.01374
-0.06495
-0.11990
-0.07619
0.15737
0.50583
0.78186
0.80309
0.56204
0.22981
0.00375
-0.07619
-0.07619
-0.06370
-0.05995
-0.05995
-0.06120
-0.06495
-0.06620
-0.06994
-0.06994
-0.06994
-0.06994
-0.07244
-0.08118
-0.08743
-0.09492
-0.09617
-0.10242
-0.11241
-0.12115
-0.12615
-0.13239
-0.14363
-0.15737
-0.16611
-0.17111
-0.17735
-0.18735
-0.19734
-0.20483
-0.20358
-0.20108
-0.20483
-0.20483
-0.20483
-0.20483
-0.20358
-0.19484
-0.17610
-0.16112
-0.14488
-0.12365
-0.09867
-0.07619
-0.06120
-0.04621
-0.03122
-0.01749
-0.00874
-0.00250
0.00500
0.00500
0.00500
0.00749
0.01624
0.01873
0.01249
0.00624
0.01249
0.02248
0.02748
0.01998
0.01998
0.01998
0.01624
0.00250
-0.00624
-0.01249
-0.02373
-0.03747
-0.04496
-0.04371
-0.03872
-0.02873
-0.00250
0.02498
0.04122
0.04371
0.03872
0.03497
0.03372
0.02998
0.02873
0.02498
0.02498
0.02373
0.01749
0.00375
-0.02998
-0.09617
-0.15612
-0.08993
0.16611
0.51083
0.74564
0.71566
0.45962
0.16486
-0.01998
-0.07869
-0.07244
-0.06245
-0.05495
-0.05620
-0.05995
-0.05995
-0.06120
-0.06495
-0.06495
-0.06620
-0.07119
-0.07619
-0.07993
-0.07993
-0.08118
-0.08743
-0.09492
-0.09742
-0.10741
-0.11865
-0.13114
-0.13864
-0.15237
-0.16237
-0.17236
-0.18235
-0.19234
-0.20108
-0.20483
-0.20608
-0.20983
-0.21108
-0.21482
-0.21357
-0.20858
-0.20358
-0.19609
-0.18110
-0.16362
-0.13988
-0.11990
-0.10117
-0.08493
-0.06495
-0.04621
-0.03122
-0.01749
-0.00874
-0.00500
-0.00375
0.00125
0.00500
0.00500
0.00500
0.00500
0.00500
0.00500
0.00500
0.00500
0.00749
0.01374
0.00874
0.00500
0.00500
0.00250
-0.00500
-0.00500
-0.00624
-0.01374
-0.02748
-0.03622
-0.03997
-0.03872
-0.02998
-0.00999
0.01499
0.03747
0.04496
0.04496
0.04246
0.03372
0.02873
0.02498
0.02623
0.02998
0.02748
0.01873
0.01124
-0.01124
-0.06869
-0.13988
-0.11491
0.11241
0.47586
0.77936
0.82557
0.58452
0.24855
0.01249
-0.07744
-0.08118
-0.06245
-0.05620
-0.05995
-0.05995
-0.05995
-0.06245
-0.06994
-0.06994
-0.07119
-0.07744
-0.08493
-0.08368
-0.08118
-0.08618
-0.09117
-0.09742
-0.10741
-0.11615
-0.12365
-0.13739
-0.14738
-0.15737
-0.16736
-0.17735
-0.18610
-0.19359
-0.20608
-0.21108
-0.21607
-0.22107
-0.22606
-0.22981
-0.22856
-0.22357
-0.21857
-0.21357
-0.20733
-0.19109
-0.17111
-0.14863
-0.11865
-0.08993
-0.06620
-0.04746
-0.03247
-0.01749
-0.00375
0.00125
0.00500
0.00624
0.01249
0.01998
0.01998
0.01998
0.01998
0.01998
0.01998
0.01998
0.01998
0.01998
0.01998
0.02123
0.02498
0.02373
0.01873
0.01374
0.01124
0.01374
0.00375
-0.00250
-0.01749
-0.03122
-0.03997
-0.03622
-0.01499
0.01499
0.03622
0.04496
0.04496
0.04496
0.04496
0.04371
0.03872
0.03372
0.02873
0.02498
0.02498
0.02248
0.00125
-0.05371
-0.12615
-0.12615
0.08118
0.46836
0.82182
0.91550
0.68319
0.30725
0.02748
-0.08118
-0.08618
-0.06869
-0.05995
-0.06120
-0.06495
-0.06620
-0.06994
-0.06994
-0.07119
-0.07619
-0.08618
-0.08993
-0.08993
-0.09117
-0.09617
-0.10616
-0.11116
-0.12115
-0.13114
-0.13614
-0.14613
-0.15612
-0.16611
-0.17735
-0.19109
-0.20108
-0.21108
-0.21482
-0.21482
-0.21607
-0.22606
-0.22981
-0.22981
-0.22481
-0.22481
-0.22357
-0.21357
-0.20233
-0.18735
-0.16611
-0.13988
-0.11116
-0.08743
-0.07244
-0.05246
-0.03247
-0.01873
-0.00874
-0.00500
-0.00375
0.00000
0.00000
0.00125
0.00500
0.00500
0.00375
0.00125
0.00500
0.00624
0.01124
0.01499
0.01624
0.01873
0.00874
0.00375
-0.00624
-0.01124
-0.02123
-0.03122
-0.04122
-0.04496
-0.04371
-0.03872
-0.02623
0.00375
0.02623
0.03497
0.03372
0.02998
0.02998
0.02873
0.02373
0.01998
0.01998
0.01998
0.01873
0.01374
0.00375
-0.04496
-0.11116
-0.13614
-0.00749
0.28601
0.61324
0.79060
0.68568
0.38468
0.09867
-0.04496
-0.07869
-0.06869
-0.05995
-0.05995
-0.05995
-0.05995
-0.06120
-0.06495
-0.06495
-0.06495
-0.06620
-0.07119
-0.07619
-0.08493
-0.08618
-0.09117
-0.09617
-0.10117
-0.11116
-0.12115
-0.13114
-0.13739
-0.15237
-0.16611
-0.17610
-0.18110
-0.19109
-0.20108
-0.20983
-0.20983
-0.21108
-0.21607
-0.22107
-0.22481
-0.21857
-0.20983
-0.20983
-0.20358
-0.18735
-0.16736
-0.14738
-0.12615
-0.09617
-0.06744
-0.04746
-0.02873
-0.01374
-0.00375
0.00500
0.00500
0.00999
0.01499
0.00999
0.00500
0.00999
0.01499
0.01998
0.01499
0.01499
0.01499
0.01998
0.01998
0.01998
0.01998
0.01998
0.01374
0.00500
0.00999
0.00375
-0.00624
-0.02123
-0.03497
-0.03497
-0.03372
-0.01624
0.01749
0.04122
0.04996
0.04496
0.04496
0.03997
0.03497
0.02998
0.02998
0.02998
0.02998
0.02498
0.01749
-0.00500
-0.06245
-0.13988
-0.11990
0.11241
0.50333
0.84181
0.88552
0.61200
0.25604
0.01124
-0.07993
-0.07744
-0.05371
-0.04621
-0.05495
-0.05995
-0.05995
-0.06495
-0.06994
-0.06994
-0.06994
-0.07619
-0.08493
-0.08993
-0.08993
-0.09492
-0.10117
-0.10991
-0.11116
-0.12115
-0.13114
-0.14113
-0.15113
-0.16611
-0.18110
-0.19109
-0.20108
-0.21108
-0.21982
-0.22481
-0.22981
-0.22981
-0.23481
-0.23481
-0.23481
-0.23481
-0.23481
-0.23356
-0.21857
-0.19359
-0.17860
-0.15862
-0.13239
-0.10366
-0.07869
-0.05870
-0.03872
-0.02373
-0.01499
-0.00999
-0.00375
0.00500
0.00999
0.01499
0.01499
0.01499
0.01998
0.01998
0.01998
0.01998
0.01998
0.01998
0.01998
0.02498
0.01998
0.01374
0.00500
0.00000
0.00000
-0.00624
-0.01624
-0.03497
-0.03997
-0.03372
-0.01374
0.01624
0.04621
0.05495
0.04996
0.04496
0.04496
0.04996
0.03997
0.02998
0.02498
0.02998
0.03497
0.02373
0.00749
-0.03872
-0.09617
-0.10616
0.06245
0.38218
0.70192
0.80559
0.62823
0.30600
0.04871
-0.06120
-0.07869
-0.06370
-0.04996
-0.04996
-0.05495
-0.05495
-0.04996
-0.04996
-0.05495
-0.05495
-0.05995
-0.06495
-0.06994
-0.07494
-0.07494
-0.08493
-0.09492
-0.09492
-0.09992
-0.10991
-0.12115
-0.13489
-0.13988
-0.14988
-0.16112
-0.17486
-0.17985
-0.18485
-0.19484
-0.19984
-0.19984
-0.19984
-0.20483
-0.20483
-0.20483
-0.19984
-0.19484
-0.18485
-0.16986
-0.15362
-0.12989
-0.10991
-0.08868
-0.05870
-0.03997
-0.02498
-0.00999
-0.00500
0.00500
0.00500
0.00500
0.00500
0.00999
0.00500
0.00500
0.00999
0.01499
0.01998
0.01998
0.01998
0.01998
0.01998
0.01998
0.01998
0.01499
0.00500
0.00000
-0.00500
-0.01499
-0.02498
-0.03997
-0.03997
-0.02998
-0.00874
0.01998
0.03997
0.04996
0.04996
0.04496
0.04496
0.04496
0.04496
0.03997
0.03497
0.02998
0.02998
0.02498
0.00375
-0.05620
-0.12989
-0.12615
0.09117
0.46961
0.81058
0.89176
0.65071
0.28726
0.02873
-0.06495
-0.06495
-0.05495
-0.04496
-0.04996
-0.05495
-0.05495
-0.05495
-0.05995
-0.06495
-0.06495
-0.06495
-0.06994
-0.07494
-0.08493
-0.08993
-0.08993
-0.09492
-0.10491
-0.11491
-0.12490
-0.13489
-0.14988
-0.15487
-0.16486
-0.17486
-0.18984
-0.19984
-0.20983
-0.21982
-0.22481
-0.22981
-0.23481
-0.23481
-0.22981
-0.22481
-0.22481
-0.21982
-0.20983
-0.20483
-0.17985
-0.15487
-0.12989
-0.10491
-0.07993
-0.05495
-0.03997
-0.02498
-0.01499
-0.00500
0.00500
0.00500
0.00500
0.00500
0.01499
0.01998
0.01499
0.01499
0.01499
0.01998
0.01998
0.01998
0.01998
0.01998
0.01998
0.00999
0.00500
0.00000
-0.00999
-0.02498
-0.03997
-0.04496
-0.04996
-0.03997
-0.01499
0.01998
0.03997
0.04496
0.04496
0.04496
0.03997
0.03497
0.02998
0.02498
0.01998
0.01499
0.01499
0.00999
-0.01873
-0.09367
-0.16861
-0.09242
0.20233
0.60450
0.90301
0.87053
0.54330
0.16986
-0.04371
-0.09367
-0.07993
-0.06994
-0.06994
-0.06994
-0.06994
-0.07494
-0.07494
-0.07993
-0.07993
-0.08493
-0.08993
-0.09492
-0.09992
-0.10491
-0.10991
-0.11491
-0.11990
-0.12989
-0.13988
-0.15487
-0.16486
-0.17985
-0.18984
-0.19984
-0.20483
-0.21482
-0.22981
-0.23481
-0.23980
-0.24480
-0.24979
-0.25479
-0.25479
-0.24979
-0.24979
-0.24979
-0.23980
-0.22981
-0.21108
-0.19109
-0.16112
-0.13114
-0.10117
-0.07619
-0.05620
-0.04122
-0.02623
-0.01998
-0.01499
-0.00500
0.00000
0.00500
0.00500
0.00500
0.00999
0.00500
0.00500
0.00500
0.00999
0.01499
0.01499
0.01499
0.00500
0.00000
0.00000
-0.00500
-0.00999
-0.02873
-0.04371
-0.04996
-0.04996
-0.03622
-0.01124
0.02248
0.03872
0.04496
0.03497
0.02998
0.03497
0.02998
0.02998
0.01998
0.01998
0.02498
0.01998
0.00999
-0.01873
-0.07619
-0.13614
-0.06994
0.18360
0.52332
0.77436
0.76187
0.49334
0.17610
-0.02248
-0.08118
-0.07993
-0.07119
-0.06120
-0.06495
-0.06994
-0.06495
-0.06495
-0.06994
-0.06994
-0.07494
-0.07494
-0.08368
-0.08993
-0.08993
-0.08993
-0.09492
-0.10866
-0.11491
-0.11990
-0.12864
-0.14363
-0.15487
-0.15987
-0.17361
-0.18485
-0.19859
-0.20483
-0.20483
-0.20983
-0.20983
-0.20983
-0.20983
-0.21982
-0.22481
-0.22481
-0.21607
-0.20983
-0.19609
-0.18110
-0.15737
-0.13239
-0.10741
-0.08243
-0.05745
-0.04122
-0.02623
-0.01998
-0.01124
-0.00500
0.00000
0.00500
0.00500
0.00500
0.00500
0.00500
0.00500
0.00500
0.00500
0.00500
0.00500
0.00500
0.00500
0.00500
0.00500
0.00000
-0.00874
-0.01873
-0.03372
-0.03997
-0.03997
-0.03997
-0.02623
-0.00250
0.03122
0.04371
0.04496
0.04496
0.03997
0.03497
0.03497
0.03497
0.03497
0.02998
0.02123
0.01998
0.01499
-0.01624
-0.08743
-0.14488
-0.04621
0.23855
0.60200
0.84680
0.79434
0.49334
0.16486
-0.02248
-0.07119
-0.06620
-0.05620
-0.04996
-0.05495
-0.05995
-0.06495
-0.06495
-0.06495
-0.06495
-0.06994
-0.06994
-0.07494
-0.07993
-0.08493
-0.09367
-0.09492
-0.09992
-0.10866
-0.11865
-0.12864
-0.13864
-0.14863
-0.16362
-0.17361
-0.18360
-0.19359
-0.20358
-0.20983
-0.21482
-0.22357
-0.22981
-0.23481
-0.23481
-0.23481
-0.23481
-0.23481
-0.23106
-0.21732
-0.19734
-0.17361
-0.14863
-0.11865
-0.08868
-0.06744
-0.04246
-0.02748
-0.01124
-0.00125
0.00500
0.00500
0.00500
0.00500
0.00500
0.00500
0.00500
0.00874
0.01374
0.01873
0.01998
0.01998
0.01998
0.01998
0.01624
0.00624
0.00125
-0.00375
-0.01374
-0.02373
-0.03372
-0.03872
-0.03622
-0.02248
0.00624
0.03122
0.04371
0.04496
0.04122
0.03622
0.03872
0.03997
0.03122
0.02623
0.02498
0.02123
0.01624
0.00250
-0.02623
-0.08118
-0.12490
-0.01873
0.27103
0.61075
0.81433
0.71941
0.41341
0.12115
-0.03497
-0.07619
-0.06744
-0.06120
-0.05995
-0.06370
-0.06869
-0.06620
-0.06120
-0.05995
-0.06370
-0.06869
-0.07369
-0.07869
-0.08368
-0.08868
-0.09367
-0.09492
-0.10366
-0.10866
-0.11865
-0.12864
-0.13364
-0.14363
-0.15362
-0.16362
-0.17361
-0.18360
-0.18485
-0.18984
-0.19859
-0.19984
-0.20483
-0.20483
-0.20483
-0.20483
-0.20108
-0.19984
-0.19109
-0.18110
-0.15862
-0.13864
-0.11865
-0.09367
-0.06869
-0.04371
-0.02748
-0.01624
-0.00624
-0.00500
-0.00125
0.00375
0.00500
0.00874
0.01374
0.01124
0.00999
0.00999
0.00999
0.00999
0.01374
0.01873
0.01998
0.01124
0.00624
0.00125
-0.00375
-0.00874
-0.02248
-0.03747
-0.03997
-0.03997
-0.02748
-0.00375
0.02123
0.04122
0.04496
0.04496
0.04496
0.03622
0.03122
0.02623
0.02498
0.02498
0.02498
0.02123
0.01624
-0.00999
-0.06869
-0.13364
-0.07993
0.16112
0.50084
0.77811
0.79684
0.54830
0.22107
0.00000
-0.07619
-0.07244
-0.06245
-0.05995
-0.05995
-0.06370
-0.06495
-0.06495
-0.06495
-0.06495
-0.06869
-0.06994
-0.07369
-0.07494
-0.08368
-0.09367
-0.10366
-0.10866
-0.11366
-0.11865
-0.13239
-0.13864
-0.14863
-0.16237
-0.17735
-0.18859
-0.19359
-0.19859
-0.20858
-0.20983
-0.21857
-0.22357
-0.23356
-0.23481
-0.23481
-0.23106
-0.22606
-0.22481
-0.21357
-0.19859
-0.17486
-0.14988
-0.12115
-0.09492
-0.06994
-0.04871
-0.02873
-0.01249
-0.00250
0.00375
0.00500
0.00500
0.00874
0.00999
0.01374
0.01873
0.01998
0.01998
0.01998
0.01998
0.01998
0.01998
0.01624
0.01124
0.00624
-0.00250
-0.00874
-0.01749
-0.03247
-0.04246
-0.04496
-0.04122
-0.01998
0.00874
0.03497
0.04746
0.05371
0.04746
0.04496
0.04122
0.04371
0.04496
0.03747
0.03122
0.02623
0.02123
0.00000
-0.05246
-0.11990
-0.11990
0.07993
0.45463
0.80683
0.91550
0.69942
0.33847
0.05995
-0.05745
-0.07494
-0.06370
-0.05620
-0.05121
-0.05745
-0.05995
-0.06370
-0.06495
-0.06869
-0.06994
-0.06994
-0.07369
-0.08243
-0.08868
-0.09367
-0.10242
-0.10866
-0.11366
-0.11865
-0.12739
-0.13739
-0.15113
-0.16237
-0.17236
-0.18235
-0.18859
-0.20108
-0.20858
-0.21357
-0.21857
-0.22357
-0.22856
-0.22981
-0.22981
-0.23356
-0.23481
-0.23106
-0.21857
-0.19984
-0.17985
-0.15237
-0.12615
-0.10117
-0.07619
-0.05870
-0.03997
-0.02748
-0.01374
-0.00250
0.00375
0.00874
0.01374
0.01873
0.01998
0.01998
0.01998
0.01998
0.01998
0.01998
0.01998
0.01998
0.01998
0.01998
0.00874
0.00500
0.00500
0.00125
-0.01124
-0.02998
-0.03872
-0.03997
-0.02498
0.00250
0.02873
0.04621
0.04996
0.04621
0.04496
0.04496
0.04496
0.03747
0.03122
0.02998
0.02998
0.02623
0.02123
-0.00250
-0.05495
-0.11116
-0.06245
0.16362
0.50583
0.77436
0.79809
0.56329
0.24480
0.01998
-0.06370
-0.06744
-0.05371
-0.04996
-0.05745
-0.05995
-0.05995
-0.05995
-0.06370
-0.06495
-0.06495
-0.06869
-0.06994
-0.07369
-0.07869
-0.08743
-0.09367
-0.10242
-0.10866
-0.11366
-0.12240
-0.13614
-0.14738
-0.15362
-0.16237
-0.17610
-0.18360
-0.18859
-0.19734
-0.20358
-0.20858
-0.20983
-0.20983
-0.20983
-0.20983
-0.20983
-0.20983
-0.20608
-0.19359
-0.17610
-0.15237
-0.12739
-0.10616
-0.08493
-0.06245
-0.03997
-0.02373
-0.01249
-0.00624
-0.00125
-0.00375
-0.00125
0.00000
0.00375
0.00500
0.00500
0.00874
0.01374
0.01124
0.00624
0.00500
0.00500
0.00500
0.00125
-0.00375
-0.00500
-0.01249
-0.02248
-0.03247
-0.04246
-0.04496
-0.03372
-0.01249
0.01624
0.03622
0.04371
0.04496
0.04496
0.04496
0.04496
0.04496
0.04122
0.03247
0.02998
0.02623
0.02123
0.00250
-0.04746
-0.11116
-0.11241
0.05745
0.38593
0.71316
0.84056
0.67944
0.35596
0.07869
-0.04746
-0.06620
-0.05745
-0.04746
-0.04496
-0.04496
-0.04871
-0.05745
-0.05995
-0.06370
-0.06495
-0.06495
-0.06869
-0.07369
-0.07869
-0.08743
-0.09367
-0.09867
-0.10366
-0.11241
-0.12240
-0.13239
-0.14238
-0.15237
-0.16486
-0.17361
-0.18235
-0.19234
-0.19859
-0.20358
-0.20858
-0.21732
-0.22357
-0.22856
-0.22981
-0.22606
-0.22481
-0.22107
-0.20983
-0.19484
-0.17610
-0.15237
-0.12490
-0.09742
-0.07244
-0.04746
-0.02623
-0.01374
-0.00624
-0.00125
0.00375
0.01124
0.01873
0.01998
0.01998
0.01998
0.01998
0.01998
0.01998
0.02373
0.02873
0.02998
0.02998
0.02998
0.02623
0.01873
0.01499
0.01499
0.00874
-0.00874
-0.02498
-0.03372
-0.03122
-0.01998
0.00874
0.03997
0.05995
0.06120
0.05620
0.05121
0.04996
0.04621
0.04122
0.03622
0.03497
0.03122
0.02623
0.01873
-0.01124
-0.07869
-0.12864
-0.02373
0.29101
0.68194
0.91175
0.82057
0.49834
0.16736
-0.02123
-0.07119
-0.06120
-0.04871
-0.04496
-0.05121
-0.05870
-0.05995
-0.05995
-0.06620
-0.06994
-0.06994
-0.06994
-0.07369
-0.08118
-0.08868
-0.09367
-0.09492
-0.10117
-0.11116
-0.12115
-0.13489
-0.14988
-0.16112
-0.17111
-0.18110
-0.19109
-0.20108
-0.21108
-0.22107
-0.22856
-0.23356
-0.23481
-0.23481
-0.23481
-0.23481
-0.23231
-0.22731
-0.21857
-0.20483
-0.18735
-0.16362
-0.14238
-0.11865
-0.09117
-0.06370
-0.04246
-0.02873
-0.01873
-0.00874
-0.00125
0.00375
0.00500
0.00500
0.00874
0.01374
0.01499
0.01873
0.01998
0.01998
0.01998
0.01998
0.01998
0.01624
0.01124
0.00624
0.00125
0.00000
-0.00624
-0.01998
-0.03497
-0.04371
-0.04122
-0.02373
0.00749
0.03247
0.04371
0.04496
0.04496
0.04496
0.04246
0.03997
0.03372
0.02748
0.02498
0.02498
0.02248
0.00749
-0.02498
-0.07744
-0.11241
-0.02623
0.23356
0.56453
0.77811
0.73315
0.47211
0.17486
-0.01124
-0.07244
-0.07119
-0.06245
-0.05371
-0.05371
-0.05870
-0.05995
-0.06370
-0.06869
-0.06994
-0.06994
-0.06994
-0.07369
-0.08118
-0.08868
-0.09367
-0.09492
-0.10117
-0.11116
-0.11865
-0.12615
-0.13614
-0.14863
-0.16112
-0.17111
-0.18110
-0.18859
-0.19609
-0.19984
-0.20608
-0.20983
-0.20983
-0.20983
-0.20983
-0.20983
-0.20983
-0.20733
-0.19609
-0.18360
-0.16736
-0.14488
-0.11990
-0.09492
-0.07619
-0.05745
-0.04122
-0.02623
-0.01374
-0.00749
-0.00250
0.00250
0.00250
0.00000
0.00000
0.00250
0.00500
0.00500
0.00500
0.00250
0.00000
0.00000
0.00250
0.00749
0.00749
-0.00125
-0.00749
-0.01249
-0.02123
-0.03372
-0.04246
-0.04496
-0.04246
-0.03122
-0.00749
0.01749
0.03122
0.03497
0.03247
0.02998
0.02998
0.02998
0.02748
0.02498
0.02498
0.02248
0.01749
0.00375
-0.03122
-0.09367
-0.13364
-0.03747
0.23980
0.59076
0.81058
0.75937
0.48335
0.17361
-0.01749
-0.07619
-0.07119
-0.06245
-0.05995
-0.05995
-0.05995
-0.05995
-0.06245
-0.06495
-0.06495
-0.06744
-0.07244
-0.07744
-0.08243
-0.08493
-0.09117
-0.09742
-0.10616
-0.11241
-0.12115
-0.13114
-0.14363
-0.15237
-0.16112
-0.17111
-0.18360
-0.19609
-0.20233
-0.20733
-0.21607
-0.21982
-0.21732
-0.21732
-0.22232
-0.22481
-0.22481
-0.22232
-0.21108
-0.19609
-0.17860
-0.15612
-0.13364
-0.10741
-0.07744
-0.05371
-0.03622
-0.02123
-0.00874
0.00125
0.00500
0.00749
0.01249
0.01749
0.01749
0.01249
0.01249
0.01749
0.01998
0.01998
0.02248
0.02498
0.02498
0.02248
0.01998
0.01499
0.00749
0.00500
0.00500
0.00000
-0.00999
-0.02623
-0.03497
-0.03247
-0.02123
0.00500
0.03372
0.04996
0.05495
0.04996
0.04496
0.04496
0.04496
0.04246
0.03497
0.02998
0.03247
0.03247
0.01873
-0.01499
-0.07869
-0.12615
-0.02248
0.27852
0.64946
0.88302
0.81433
0.49959
0.16986
-0.01998
-0.07494
-0.07244
-0.06245
-0.05995
-0.06245
-0.06744
-0.06994
-0.06994
-0.06994
-0.06994
-0.07244
-0.07744
-0.08243
-0.08993
-0.09492
-0.09742
-0.10242
-0.10991
-0.11740
-0.12490
-0.13864
-0.14988
-0.16362
-0.17486
-0.18485
-0.19859
-0.20733
-0.21482
-0.22232
-0.22981
-0.23481
-0.23481
-0.23481
-0.23730
-0.23980
-0.23980
-0.23730
-0.23231
-0.22481
-0.20983
-0.18360
-0.15113
-0.12240
-0.09992
-0.07993
-0.06245
-0.04746
-0.03497
-0.02498
-0.01499
-0.00749
-0.00500
-0.00500
0.00000
0.00500
0.00500
0.00500
0.00500
0.00500
0.00500
0.00749
0.01249
0.00999
0.00250
-0.00250
-0.00500
-0.00999
-0.01998
-0.02998
-0.04246
-0.04996
-0.04996
-0.03997
-0.01749
0.00999
0.03497
0.04496
0.04496
0.04246
0.03747
0.03247
0.02748
0.02248
0.01998
0.01998
0.01998
0.01749
-0.00250
-0.05620
-0.11491
-0.09367
0.08493
0.38968
0.68194
0.77936
0.61075
0.30600
0.06120
-0.04996
-0.07244
-0.06744
-0.06245
-0.05745
-0.05995
-0.06744
-0.06994
-0.06744
-0.06744
-0.06994
-0.07244
-0.07744
-0.08243
-0.08993
-0.09492
-0.09742
-0.10242
-0.10991
-0.11990
-0.12989
-0.13739
-0.14488
-0.15487
-0.16486
-0.17486
-0.18235
-0.18984
-0.19484
-0.19734
-0.20233
-0.20983
-0.21732
-0.21982
-0.21732
-0.21232
-0.20983
-0.20233
-0.18984
-0.17735
-0.15987
-0.13739
-0.11241
-0.08743
-0.06495
-0.04746
-0.02998
-0.01499
-0.00749
-0.00500
-0.00500
-0.00500
-0.00500
-0.00250
0.00000
0.00250
0.00500
0.00500
0.00500
0.00500
0.00500
0.00500
0.00500
0.00250
-0.00250
-0.01249
-0.02248
-0.02998
-0.03997
-0.04746
-0.04996
-0.04746
-0.03997
-0.02748
-0.00624
0.02248
0.03997
0.04246
0.03747
0.03747
0.03747
0.03247
0.02498
0.01998
0.01998
0.01998
0.01499
-0.00125
-0.04371
-0.10616
-0.12365
0.00250
0.29101
0.61824
0.79185
0.69318
0.40342
0.11990
-0.03997
-0.08493
-0.07744
-0.06495
-0.05995
-0.06245
-0.06495
-0.06495
-0.06744
-0.06994
-0.06994
-0.06744
-0.06744
-0.07744
-0.08743
-0.09242
-0.09742
-0.10491
-0.11491
-0.12240
-0.13239
-0.14738
-0.15987
-0.16986
-0.18235
-0.19484
-0.20483
-0.21232
-0.21982
-0.22981
-0.23481
-0.23730
-0.24230
-0.24480
-0.24480
-0.24230
-0.23730
-0.23481
-0.23106
-0.21607
-0.19609
-0.17610
-0.15362
-0.12615
-0.09617
-0.07119
-0.05371
-0.03997
-0.02873
-0.01749
-0.01249
-0.00749
-0.00250
0.00250
0.00500
0.00500
0.00500
0.00500
0.00500
0.00500
0.00500
0.00500
0.00500
0.00500
0.00250
-0.00250
-0.00749
-0.01249
-0.01998
-0.03122
-0.04496
-0.05495
-0.05745
-0.05121
-0.03247
-0.00375
0.01873
0.03247
0.03247
0.02998
0.02748
0.02498
0.02248
0.01998
0.01998
0.01998
0.01998
0.01374
-0.01249
-0.06744
-0.13614
-0.12490
0.07494
0.43464
0.76437
0.84555
0.63198
0.29850
0.04496
-0.06744
-0.08743
-0.07869
-0.06994
-0.06994
-0.06994
-0.07244
-0.07494
-0.07494
-0.07744
-0.08243
-0.08493
-0.08743
-0.09242
-0.09492
-0.09742
-0.10366
-0.11366
-0.12240
-0.12864
-0.13739
-0.14613
-0.15862
-0.16861
-0.17735
-0.18360
-0.19609
-0.20733
-0.21232
-0.21732
-0.22232
-0.22731
-0.22981
-0.22981
-0.22981
-0.22981
-0.22731
-0.21857
-0.20733
-0.19734
-0.17236
-0.14738
-0.12739
-0.10491
-0.08118
-0.06370
-0.05121
-0.04122
-0.03122
-0.01873
-0.00749
-0.00500
-0.00500
-0.00250
0.00250
0.00500
0.00500
0.00500
0.00500
0.00500
0.00250
0.00000
0.00000
0.00000
-0.00250
-0.00874
-0.01749
-0.02623
-0.04122
-0.05246
-0.05495
-0.05246
-0.04621
-0.02998
-0.00500
0.01749
0.02998
0.02998
0.02998
0.02748
0.02248
0.01998
0.01998
0.01998
0.01998
0.01749
0.01124
-0.00500
-0.04746
-0.11740
-0.14488
-0.02623
0.26228
0.59451
0.76562
0.66570
0.38593
0.10991
-0.04371
-0.08618
-0.07369
-0.06245
-0.05995
-0.06245
-0.06495
-0.06495
-0.06744
-0.06994
-0.07244
-0.07744
-0.08243
-0.08368
-0.08243
-0.08743
-0.09242
-0.09867
-0.10741
-0.11366
-0.12615
-0.13864
-0.14738
-0.15237
-0.15862
-0.16861
-0.17860
-0.18735
-0.19359
-0.20233
-0.20733
-0.20983
-0.21232
-0.21732
-0.21982
-0.21857
-0.21357
-0.20858
-0.19984
-0.18235
-0.16237
-0.14238
-0.12115
-0.09617
-0.07244
-0.05246
-0.03497
-0.02123
-0.01374
-0.00874
-0.00375
0.00125
0.00624
0.00874
0.00500
0.00500
0.00500
0.00500
0.00500
0.00500
0.00624
0.01124
0.01499
0.01499
0.01374
0.00874
0.00375
-0.00125
-0.00874
-0.01998
-0.03372
-0.03872
-0.03122
-0.01998
-0.00125
0.02373
0.04371
0.04996
0.04871
0.04496
0.04496
0.04122
0.03372
0.02998
0.02998
0.02998
0.02873
0.01998
-0.00749
-0.06869
-0.12864
-0.08118
0.16112
0.52332
0.80434
0.81683
0.56703
0.24230
0.01749
-0.06495
-0.06994
-0.05620
-0.05121
-0.05620
-0.05995
-0.05995
-0.06120
-0.06620
-0.06994
-0.07119
-0.07619
-0.08118
-0.08618
-0.08993
-0.09117
-0.09617
-0.10491
-0.11615
-0.12365
-0.13364
-0.14488
-0.15612
-0.16486
-0.17860
-0.18984
-0.20108
-0.20608
-0.21108
-0.21857
-0.22606
-0.23231
-0.23481
-0.23481
-0.23481
-0.23481
-0.23356
-0.22856
-0.21857
-0.19984
-0.18360
-0.16112
-0.13489
-0.10616
-0.08118
-0.05995
-0.04496
-0.03122
-0.02123
-0.01124
-0.00500
-0.00500
-0.00375
0.00125
0.00500
0.00500
0.00624
0.00999
0.00999
0.00999
0.00999
0.00999
0.00999
0.00999
0.00874
0.00375
-0.00125
-0.00999
-0.02498
-0.03997
-0.04996
-0.04996
-0.04621
-0.02998
0.00000
0.02498
0.03622
0.04122
0.04122
0.03372
0.02873
0.02498
0.02498
0.02373
0.01998
0.01998
0.01499
-0.00749
-0.05745
-0.11865
-0.11366
0.06620
0.41091
0.74064
0.84555
0.64946
0.30350
0.03122
-0.08118
-0.08993
-0.07744
-0.06994
-0.06994
-0.07119
-0.07619
-0.07869
-0.07869
-0.08493
-0.08618
-0.08993
-0.08993
-0.09117
-0.09867
-0.10616
-0.11116
-0.11615
-0.12365
-0.13364
-0.14363
-0.15362
-0.16362
-0.17111
-0.17860
-0.18610
-0.19484
-0.20608
-0.21357
-0.22107
-0.22481
-0.22481
-0.22481
-0.22481
-0.22357
-0.21982
-0.21982
-0.21857
-0.21108
-0.19359
-0.17236
-0.14738
-0.12240
-0.09867
-0.07869
-0.06120
-0.04871
-0.04246
-0.03247
-0.02373
-0.01749
-0.00999
-0.00999
-0.00999
-0.00874
-0.00500
-0.00500
-0.00500
-0.00500
-0.00375
-0.00125
-0.00500
-0.00500
-0.00624
-0.01249
-0.02248
-0.03122
-0.03747
-0.04746
-0.05620
-0.05745
-0.04746
-0.03497
-0.01249
0.01124
0.02623
0.02873
0.02373
0.02123
0.02498
0.02373
0.01998
0.01998
0.01873
0.01249
0.00375
-0.00749
-0.03997
-0.09867
-0.15113
-0.10366
0.12615
0.47211
0.73939
0.74938
0.50958
0.20233
-0.00749
-0.08243
-0.08618
-0.07244
-0.06620
-0.06994
-0.06994
-0.06994
-0.06994
-0.06994
-0.06994
-0.07119
-0.07619
-0.08118
-0.08493
-0.08493
-0.08743
-0.09617
-0.10242
-0.11116
-0.11740
-0.12739
-0.13864
-0.15237
-0.16112
-0.16861
-0.18110
-0.18610
-0.19109
-0.19609
-0.20108
-0.20608
-0.20983
-0.20983
-0.21108
-0.21482
-0.21357
-0.20733
-0.19734
-0.18610
-0.16986
-0.14988
-0.12989
-0.10866
-0.08368
-0.06120
-0.04621
-0.03247
-0.02248
-0.01249
-0.00500
-0.00375
0.00125
0.00500
0.00500
0.00500
0.00500
0.00500
0.00500
0.00500
0.00500
0.00749
0.01374
0.00874
0.00500
0.00375
-0.00250
-0.01374
-0.02748
-0.03747
-0.04496
-0.04371
-0.03872
-0.02998
-0.00749
0.02123
0.04122
0.04496
0.04496
0.04496
0.04371
0.03997
0.03747
0.02873
0.02498
0.02498
0.02498
0.01624
-0.02498
-0.09242
-0.14113
-0.05121
0.23231
0.60200
0.84056
0.79559
0.50209
0.17610
-0.01749
-0.07244
-0.06120
-0.04871
-0.04496
-0.04621
-0.05246
-0.05995
-0.06120
-0.06495
-0.06620
-0.06994
-0.06994
-0.07119
-0.07619
-0.08118
-0.08618
-0.09117
-0.09742
-0.10741
-0.11865
-0.13114
-0.13864
-0.15237
-0.16237
-0.17361
-0.18735
-0.19734
-0.20608
-0.20983
-0.21108
-0.21732
-0.22606
-0.23106
-0.23481
-0.23356
-0.22856
-0.22357
-0.21732
-0.20233
-0.18610
-0.16486
-0.13988
-0.11366
-0.08493
-0.06120
-0.04621
-0.02623
-0.01249
-0.00375
0.00125
0.00749
0.01249
0.00500
0.00500
0.00624
0.00999
0.00874
0.00624
0.01124
0.01624
0.01998
0.01873
0.01249
0.00375
-0.00125
-0.00500
-0.00749
-0.01749
-0.03247
-0.04496
-0.04371
-0.03872
-0.03122
-0.00749
0.02373
0.04122
0.04371
0.03872
0.03497
0.03497
0.03497
0.03372
0.02998
0.02998
0.02873
0.02248
0.00375
-0.03122
-0.08493
-0.10741
0.02248
0.33223
0.66695
0.82182
0.68818
0.36845
0.08493
-0.04621
-0.07369
-0.06245
-0.04871
-0.04496
-0.04621
-0.05121
-0.05620
-0.06120
-0.06620
-0.06994
-0.06994
-0.06994
-0.07119
-0.07619
-0.08118
-0.08743
-0.09617
-0.10242
-0.11116
-0.11615
-0.12240
-0.13739
-0.15113
-0.15612
-0.16112
-0.16611
-0.17111
-0.17735
-0.18735
-0.19609
-0.19984
-0.19859
-0.19484
-0.19359
-0.18984
-0.18859
-0.18485
-0.18235
-0.16611
-0.14238
-0.12615
-0.10117
-0.08118
-0.06245
-0.04871
-0.03747
-0.02373
-0.01749
-0.00375
0.00125
0.00500
0.00500
0.00500
0.00500
0.00500
0.00500
0.00624
0.01124
0.01499
0.01624
0.01998
0.01873
0.00874
-0.00125
-0.00624
-0.01624
-0.02623
-0.03622
-0.03997
-0.03872
-0.03247
-0.01624
0.00999
0.03622
0.04496
0.04496
0.04496
0.04496
0.04371
0.03872
0.02998
0.02998
0.02873
0.02373
0.01873
0.00999
-0.03247
-0.10491
-0.14113
-0.01873
0.28976
0.63947
0.81058
0.68693
0.38343
0.10991
-0.03622
-0.06869
-0.05745
-0.04496
-0.04496
-0.04496
-0.04496
-0.04496
-0.04496
-0.04496
-0.04621
-0.05121
-0.05620
-0.06120
-0.06495
-0.06620
-0.07619
-0.08618
-0.09117
-0.09617
-0.10242
-0.11615
-0.12240
-0.13614
-0.14613
-0.15737
-0.17111
-0.17610
-0.18110
-0.18610
-0.19484
-0.19609
-0.20108
-0.20483
-0.20483
-0.20483
-0.20483
-0.19859
-0.18859
-0.17735
-0.15737
-0.13614
-0.11116
-0.08618
-0.06120
-0.03747
-0.02248
-0.00874
0.00125
0.00624
0.01624
0.01998
0.01998
0.01998
0.01998
0.01998
0.01998
0.02123
0.02623
0.02998
0.02998
0.02998
0.02873
0.02373
0.01873
0.01374
0.00874
-0.00125
-0.01124
-0.02123
-0.02498
-0.01998
-0.01124
0.01374
0.03747
0.05620
0.06495
0.05995
0.05995
0.05495
0.04996
0.04996
0.04496
0.04496
0.03997
0.03997
0.03122
-0.00375
-0.07369
-0.13489
-0.06744
0.21857
0.61075
0.87803
0.82807
0.51333
0.17486
-0.01624
-0.06495
-0.05870
-0.04996
-0.04496
-0.04496
-0.04996
-0.05495
-0.05995
-0.05495
-0.05121
-0.05995
-0.06495
-0.06994
-0.06994
-0.07619
-0.08618
-0.09617
-0.10117
-0.11615
-0.12115
-0.13114
-0.14113
-0.15612
-0.16611
-0.17111
-0.17610
-0.18610
-0.20108
-0.20483
-0.20608
-0.21108
-0.22481
-0.22481
-0.22481
-0.22481
-0.22481
-0.22481
-0.21857
-0.20358
-0.18360
-0.16736
-0.14238
-0.11241
-0.08743
-0.06370
-0.04871
-0.03372
-0.02373
-0.01374
-0.00500
-0.00375
0.00500
0.00500
0.00999
0.01499
0.01873
0.00999
0.00999
0.00999
0.01499
0.01998
0.01998
0.01374
0.00500
0.00000
-0.00624
-0.02123
-0.03497
-0.03997
-0.03997
-0.03372
-0.02248
0.00250
0.02623
0.03497
0.03997
0.03997
0.04496
0.03997
0.03997
0.03497
0.02873
0.01998
0.02498
0.02373
0.01249
-0.01998
-0.07494
-0.11990
-0.03997
0.21232
0.53956
0.76187
0.70817
0.43089
0.13614
-0.02373
-0.05995
-0.05870
-0.04996
-0.04496
-0.04996
-0.05495
-0.05495
-0.05121
-0.05995
-0.06495
-0.06994
-0.06495
-0.06120
-0.06994
-0.07619
-0.08493
-0.08618
-0.09617
-0.10491
-0.11116
-0.11990
-0.12615
-0.14113
-0.15113
-0.16112
-0.17111
-0.17985
-0.18485
-0.19109
-0.19984
-0.20483
-0.20983
-0.20983
-0.20983
-0.20983
-0.20983
-0.19984
-0.18984
-0.17860
-0.15862
-0.13364
-0.10866
-0.08868
-0.07369
-0.04871
-0.02373
-0.00999
-0.00500
-0.00500
0.00500
0.00500
0.00500
0.00999
0.00999
0.00500
0.00500
0.00999
0.01998
0.01499
0.00500
0.00500
0.00500
0.00000
-0.00500
-0.00999
-0.01499
-0.02623
-0.03997
-0.04496
-0.03872
-0.02373
-0.00874
0.01124
0.04122
0.05495
0.05995
0.05495
0.04996
0.04496
0.04496
0.04496
0.03997
0.03497
0.02998
0.02498
0.01374
-0.02248
-0.09242
-0.13988
-0.02123
0.29476
0.65321
0.85055
0.74688
0.42715
0.12365
-0.03122
-0.06495
-0.04996
-0.03497
-0.03997
-0.04496
-0.04496
-0.03997
-0.04496
-0.04496
-0.04996
-0.04996
-0.05495
-0.05995
-0.06495
-0.06495
-0.06495
-0.06994
-0.07993
-0.08493
-0.09492
-0.10491
-0.11990
-0.12490
-0.13489
-0.14488
-0.15987
-0.16486
-0.16986
-0.17985
-0.18485
-0.19484
-0.19484
-0.19484
-0.19984
-0.19984
-0.19984
-0.19484
-0.18485
-0.16986
-0.15487
-0.12989
-0.10491
-0.07993
-0.05495
-0.03497
-0.01499
0.00000
0.00999
0.01998
0.01998
0.02498
0.02998
0.02998
0.02998
0.02998
0.02998
0.02998
0.03497
0.03497
0.03497
0.03497
0.02998
0.02498
0.01998
0.01998
0.01998
0.00500
-0.00500
-0.00999
-0.00999
-0.00500
0.00000
0.01998
0.04996
0.05995
0.06495
0.05995
0.05995
0.05495
0.04996
0.04996
0.04996
0.04496
0.03997
0.03497
0.02998
-0.00500
-0.07993
-0.13489
-0.02873
0.30100
0.68069
0.88427
0.77436
0.43464
0.10491
-0.04996
-0.07494
-0.05995
-0.04496
-0.04996
-0.05495
-0.05495
-0.05495
-0.05995
-0.06994
-0.06994
-0.06994
-0.07494
-0.07494
-0.07494
-0.07993
-0.08493
-0.09492
-0.09492
-0.09992
-0.10991
-0.11491
-0.11990
-0.13489
-0.14988
-0.15487
-0.15987
-0.16986
-0.17486
-0.17985
-0.18485
-0.18984
-0.18984
-0.19984
-0.19984
-0.19984
-0.18984
-0.18485
-0.17985
-0.16486
-0.14488
-0.12989
-0.10491
-0.07993
-0.05995
-0.04496
-0.03497
-0.02498
-0.00999
-0.00500
0.00000
0.00500
0.00999
0.00500
0.00500
0.00500
0.01499
0.01998
0.01499
0.01499
0.01998
0.01998
0.01499
0.00000
-0.00999
-0.01499
-0.02498
-0.03497
-0.04496
-0.04496
-0.03497
-0.02498
-0.00125
0.02373
0.03997
0.04496
0.04496
0.03997
0.02998
0.02998
0.02998
0.02998
0.02498
0.01998
0.01998
0.01499
-0.01873
-0.07744
-0.14238
-0.10117
0.14113
0.50209
0.78061
0.76562
0.49459
0.18110
-0.01749
-0.07369
-0.06495
-0.05995
-0.05995
-0.05995
-0.05495
-0.05995
-0.06495
-0.06495
-0.06495
-0.06994
-0.06994
-0.06994
-0.07494
-0.07993
-0.08993
-0.09492
-0.09492
-0.09492
-0.10491
-0.11491
-0.12490
-0.13988
-0.15487
-0.16486
-0.17486
-0.17985
-0.18984
-0.19984
-0.20483
-0.20483
-0.20983
-0.21982
-0.21982
-0.21482
-0.20983
-0.20983
-0.20483
-0.19109
-0.17111
-0.15612
-0.13114
-0.09742
-0.06620
-0.05121
-0.03622
-0.02123
-0.00624
0.00000
0.00500
0.00500
0.00999
0.01499
0.00999
0.00999
0.01499
0.01499
0.01499
0.01499
0.01998
0.01998
0.01998
0.01998
0.01998
0.00624
0.00000
-0.00874
-0.02373
-0.03872
-0.04496
-0.03997
-0.03122
-0.02123
0.00375
0.03247
0.04371
0.04996
0.04496
0.03622
0.02998
0.02998
0.02998
0.02998
0.02998
0.02998
0.02498
0.01124
-0.02748
-0.08618
-0.13114
-0.04746
0.22856
0.56953
0.77561
0.69693
0.41716
0.13114
-0.02873
-0.06744
-0.05620
-0.04621
-0.04496
-0.04996
-0.05495
-0.05495
-0.05495
-0.05995
-0.06869
-0.06994
-0.06495
-0.06994
-0.07494
-0.07993
-0.08493
-0.09367
-0.09992
-0.10866
-0.11491
-0.12365
-0.13864
-0.14863
-0.15487
-0.15987
-0.17361
-0.18360
-0.19859
-0.19984
-0.20483
-0.20983
-0.20983
-0.20983
-0.20983
-0.20983
-0.20983
-0.20483
-0.19109
-0.18110
-0.16237
-0.14238
-0.11740
-0.09242
-0.07244
-0.05246
-0.03247
-0.02123
-0.01124
-0.00125
0.00500
0.00999
0.00999
0.01499
0.01499
0.00624
0.00500
0.00500
0.00500
0.00500
0.00500
0.00500
0.01374
0.00999
0.00500
0.00000
0.00000
-0.00500
-0.01873
-0.03372
-0.03997
-0.03997
-0.03497
-0.02998
-0.01249
0.02123
0.03872
0.04496
0.04496
0.04496
0.04496
0.03997
0.03122
0.02998
0.02498
0.01998
0.01998
0.01998
-0.00624
-0.07244
-0.14238
-0.10616
0.13114
0.49709
0.79310
0.81558
0.57078
0.23855
0.00999
-0.06869
-0.06620
-0.05121
-0.04496
-0.04496
-0.04996
-0.05495
-0.06370
-0.06495
-0.06495
-0.06994
-0.06994
-0.07494
-0.07494
-0.07993
-0.08868
-0.09492
-0.09992
-0.10866
-0.11865
-0.12490
-0.13364
-0.14363
-0.16237
-0.17361
-0.17985
-0.18485
-0.19359
-0.20358
-0.20483
-0.20483
-0.21357
-0.22357
-0.22481
-0.22107
-0.21982
-0.21607
-0.21482
-0.20608
-0.18735
-0.16736
-0.14363
-0.11366
-0.08868
-0.06744
-0.04746
-0.03247
-0.02123
-0.01124
-0.00624
-0.00125
0.00375
0.00500
0.00500
0.00874
0.01374
0.01124
0.00999
0.01374
0.01873
0.01624
0.01124
0.01374
0.01873
0.01998
0.01998
0.01998
0.01998
0.01998
0.01124
0.00125
0.00000
-0.00874
-0.02248
-0.03747
-0.03997
-0.03622
-0.03122
-0.02998
-0.01749
0.01499
0.03747
0.04371
0.04496
0.03622
0.02623
0.02123
0.01998
0.02373
0.02498
0.02123
0.01998
0.01124
-0.01124
-0.05745
-0.11615
-0.09992
0.09492
0.42590
0.72066
0.78186
0.57328
0.25604
0.01873
-0.07369
-0.08118
-0.06744
-0.06120
-0.05995
-0.05620
-0.05870
-0.06370
-0.06869
-0.06994
-0.06994
-0.07369
-0.07869
-0.07619
-0.07869
-0.08368
-0.08868
-0.09367
-0.10366
-0.11366
-0.11865
-0.12365
-0.13364
-0.14363
-0.15362
-0.15862
-0.17236
-0.18360
-0.19359
-0.19859
-0.19984
-0.20358
-0.20858
-0.20983
-0.20983
-0.20983
-0.20983
-0.20608
-0.19234
-0.18110
-0.16736
-0.14863
-0.11990
-0.09492
-0.07744
-0.06245
-0.04746
-0.03622
-0.02623
-0.02123
-0.01998
-0.01124
-0.00624
-0.00500
-0.00125
0.00000
-0.00375
-0.00500
-0.00500
-0.00500
-0.00500
-0.00500
-0.00125
0.00000
0.00375
0.00500
0.00500
0.00125
-0.00375
-0.01374
-0.03122
-0.04371
-0.04496
-0.04122
-0.03622
-0.03497
-0.03497
-0.01873
0.00500
0.02623
0.04246
0.03747
0.03122
0.02248
0.01998
0.01998
0.01998
0.01998
0.01998
0.01624
0.00749
-0.02373
-0.08243
-0.14363
-0.08618
0.15612
0.50333
0.76437
0.75812
0.49959
0.19109
-0.00999
-0.07744
-0.08118
-0.07244
-0.06245
-0.06370
-0.06869
-0.06994
-0.06620
-0.06869
-0.06994
-0.06994
-0.06994
-0.07369
-0.08243
-0.08868
-0.08618
-0.09242
-0.09867
-0.11241
-0.11865
-0.12365
-0.13239
-0.14738
-0.15737
-0.16736
-0.17735
-0.18735
-0.19734
-0.20358
-0.20858
-0.21732
-0.21982
-0.21982
-0.22357
-0.22481
-0.22856
-0.22606
-0.22107
-0.20858
-0.19359
-0.17486
-0.14988
-0.12490
-0.09992
-0.07494
-0.05371
-0.03872
-0.02748
-0.01749
-0.00749
-0.00500
-0.00125
0.00375
0.00874
0.00999
0.00624
0.00500
0.01249
0.01499
0.00749
0.00500
0.00874
0.01749
0.01998
0.01998
0.01998
0.01624
0.00749
-0.00624
-0.01749
-0.02748
-0.03372
-0.03122
-0.02623
-0.03247
-0.03497
-0.01998
0.01249
0.03497
0.03997
0.03622
0.03497
0.03497
0.03122
0.02623
0.02123
0.01998
0.01998
0.01624
0.00375
-0.03122
-0.09742
-0.15737
-0.06620
0.22107
0.59451
0.84930
0.80434
0.50333
0.16861
-0.02873
-0.08368
-0.07869
-0.06370
-0.05995
-0.06370
-0.06869
-0.06994
-0.07369
-0.07494
-0.07494
-0.07119
-0.07744
-0.08368
-0.09242
-0.09492
-0.10242
-0.10866
-0.11366
-0.11865
-0.12365
-0.13239
-0.14613
-0.15737
-0.16362
-0.17610
-0.18735
-0.19734
-0.20358
-0.20858
-0.21732
-0.22357
-0.22856
-0.22981
-0.22981
-0.22981
-0.22606
-0.22481
-0.21732
-0.20358
-0.18485
-0.16861
-0.14988
-0.12240
-0.09617
-0.07494
-0.05870
-0.04371
-0.02873
-0.01374
-0.00624
-0.00500
-0.00500
-0.00125
0.00375
0.00874
0.01749
0.01998
0.01249
0.00624
0.00500
0.01249
0.01873
0.01249
0.00999
0.00999
0.00999
0.00250
-0.01499
-0.02748
-0.03747
-0.03997
-0.03997
-0.03622
-0.03122
-0.02623
-0.00624
0.02248
0.04122
0.04122
0.03247
0.02998
0.02998
0.02998
0.02623
0.02498
0.02498
0.02123
0.01624
0.00375
-0.02873
-0.09117
-0.13239
-0.03872
0.23231
0.57078
0.76687
0.69318
0.42215
0.14363
-0.01998
-0.07369
-0.06869
-0.06120
-0.05995
-0.05995
-0.06370
-0.06495
-0.06869
-0.06994
-0.07369
-0.07119
-0.07744
-0.08368
-0.08868
-0.08993
-0.09367
-0.10616
-0.11366
-0.11865
-0.12739
-0.13739
-0.15113
-0.15862
-0.17111
-0.18235
-0.19234
-0.19859
-0.20733
-0.21357
-0.22232
-0.22481
-0.22856
-0.23356
-0.23481
-0.23106
-0.22606
-0.22107
-0.21607
-0.20733
-0.18735
-0.16611
-0.14613
-0.12240
-0.09742
-0.07244
-0.05745
-0.04496
-0.03622
-0.02498
-0.01998
-0.01624
-0.01124
-0.00624
-0.00500
-0.00500
-0.00500
-0.00500
-0.00500
-0.00500
-0.00500
-0.00125
0.00000
0.00000
0.00000
0.00000
-0.00375
-0.01249
-0.02248
-0.03497
-0.04371
-0.04496
-0.04496
-0.04122
-0.03622
-0.03122
-0.00874
0.01749
0.03247
0.03122
0.02998
0.02623
0.02498
0.02498
0.02123
0.01998
0.01998
0.01998
0.01374
-0.00749
-0.05246
-0.11491
-0.12864
0.01873
0.33223
0.67070
0.82307
0.68693
0.37594
0.09367
-0.04996
-0.07993
-0.06994
-0.06120
-0.05995
-0.05995
-0.05995
-0.05995
-0.06370
-0.06869
-0.07369
-0.07494
-0.07494
-0.08118
-0.08493
-0.08493
-0.09117
-0.09867
-0.10616
-0.11615
-0.11990
-0.12615
-0.13614
-0.14613
-0.15987
-0.17486
-0.18735
-0.19734
-0.20358
-0.20858
-0.21732
-0.22357
-0.22481
-0.22481
-0.22856
-0.22981
-0.22606
-0.22481
-0.21857
-0.20858
-0.18859
-0.16362
-0.13864
-0.11366
-0.08868
-0.06620
-0.04996
-0.03872
-0.02498
-0.01374
-0.00624
-0.00500
-0.00125
0.00375
0.00500
0.00500
0.00500
0.01124
0.01873
0.01998
0.01998
0.01998
0.01998
0.01998
0.01624
0.01124
0.00624
-0.00125
-0.00874
-0.01998
-0.03122
-0.03497
-0.03497
-0.02873
-0.02123
-0.00375
0.02498
0.04496
0.05371
0.05121
0.04621
0.04496
0.04496
0.03872
0.03122
0.02998
0.02998
0.02998
0.02373
-0.00624
-0.06245
-0.11116
-0.04122
0.21482
0.55954
0.80184
0.77811
0.50458
0.18610
-0.00749
-0.07119
-0.06994
-0.05495
-0.04621
-0.04871
-0.05620
-0.05995
-0.05620
-0.06120
-0.06869
-0.07369
-0.07494
-0.07494
-0.08118
-0.08868
-0.09367
-0.09867
-0.10991
-0.11865
-0.12365
-0.12864
-0.13364
-0.14488
-0.15612
-0.16611
-0.17610
-0.18610
-0.19359
-0.19859
-0.20358
-0.20858
-0.20983
-0.20983
-0.20983
-0.20983
-0.20983
-0.20983
-0.20358
-0.19109
-0.17236
-0.14988
-0.12490
-0.10242
-0.07993
-0.05745
-0.04122
-0.02873
-0.01873
-0.00874
-0.00250
0.00250
0.00500
0.01124
0.01499
0.00874
0.00500
0.00500
0.00749
0.01249
0.00874
0.00500
0.00749
0.01249
0.01499
0.01249
0.00749
-0.00125
-0.01374
-0.02873
-0.03747
-0.03997
-0.03747
-0.03247
-0.02123
0.00000
0.02498
0.04371
0.05246
0.05246
0.04746
0.04496
0.04496
0.04746
0.04746
0.04246
0.03372
0.03247
0.02873
-0.00250
-0.06245
-0.10491
-0.03622
0.19734
0.52082
0.76062
0.74564
0.49584
0.20358
0.01374
-0.05495
-0.05620
-0.04746
-0.03872
-0.03747
-0.03997
-0.04246
-0.04496
-0.04496
-0.04496
-0.05121
-0.05745
-0.05745
-0.05745
-0.06245
-0.06744
-0.07244
-0.08118
-0.09117
-0.10117
-0.10741
-0.11615
-0.12864
-0.14363
-0.15237
-0.15737
-0.16861
-0.18110
-0.18735
-0.18984
-0.19234
-0.19859
-0.20358
-0.20483
-0.20483
-0.20483
-0.20233
-0.19359
-0.18110
-0.16611
-0.14863
-0.12490
-0.09992
-0.07869
-0.05870
-0.03872
-0.02123
-0.00874
-0.00250
0.00250
0.00749
0.00999
0.00999
0.01249
0.01749
0.01749
0.01249
0.00999
0.01249
0.01749
0.01749
0.01499
0.01749
0.01998
0.01749
0.00874
0.00250
-0.00624
-0.02123
-0.03622
-0.03747
-0.03247
-0.02748
-0.02248
-0.00250
0.02748
0.04871
0.05495
0.05246
0.04996
0.04746
0.04496
0.04246
0.04246
0.04246
0.03372
0.02998
0.02123
-0.01374
-0.07744
-0.12115
-0.02998
0.24730
0.60200
0.82307
0.76437
0.48460
0.17985
-0.00749
-0.06620
-0.05870
-0.04746
-0.04496
-0.04496
-0.04496
-0.04746
-0.05620
-0.05995
-0.05995
-0.05995
-0.06245
-0.06495
-0.06495
-0.06744
-0.07619
-0.08243
-0.09117
-0.09742
-0.10616
-0.11615
-0.12615
-0.13864
-0.15362
-0.16611
-0.17236
-0.18110
-0.18735
-0.19609
-0.19984
-0.19984
-0.19984
-0.20233
-0.20483
-0.20483
-0.20483
-0.20733
-0.20483
-0.19234
-0.17361
-0.15362
-0.13364
-0.10866
-0.07869
-0.05121
-0.02873
-0.01124
-0.00250
0.00250
0.00749
0.01249
0.01749
0.01998
0.01998
0.02248
0.02748
0.02498
0.01998
0.01998
0.01998
0.01998
0.01998
0.01998
0.02248
0.01998
0.00749
-0.00500
-0.01749
-0.02998
-0.03747
-0.03997
-0.03747
-0.02998
-0.01374
0.00874
0.03122
0.04246
0.04246
0.03747
0.03747
0.03747
0.03247
0.02498
0.01998
0.01998
0.01749
0.00999
-0.01624
-0.06370
-0.11116
-0.07993
0.12115
0.44713
0.71816
0.75188
0.53706
0.23231
0.01374
-0.07119
-0.07744
-0.06495
-0.06245
-0.06744
-0.06994
-0.06994
-0.06744
-0.06744
-0.07244
-0.07744
-0.07993
-0.07993
-0.08243
-0.08493
-0.08493
-0.08993
-0.09742
-0.10491
-0.11241
-0.11990
-0.12989
-0.14238
-0.15237
-0.15987
-0.16986
-0.17985
-0.18485
-0.18735
-0.19484
-0.19984
-0.19984
-0.20233
-0.20483
-0.20483
-0.20233
-0.19734
-0.18984
-0.17985
-0.16486
-0.14238
-0.11990
-0.09992
-0.07993
-0.06245
-0.04746
-0.03497
-0.02498
-0.01249
-0.00250
0.00250
0.00500
0.00500
0.00500
0.00500
0.00500
0.00500
0.00500
0.00500
0.00500
0.00500
0.00749
0.01249
0.01249
0.00749
0.00250
-0.00500
-0.01749
-0.02748
-0.02998
-0.02498
-0.01749
-0.01249
0.00250
0.02998
0.04746
0.04746
0.04496
0.04746
0.04746
0.03997
0.03247
0.02998
0.02748
0.02248
0.01998
0.01249
-0.01749
-0.07494
-0.12240
-0.05371
0.19234
0.52707
0.76062
0.74189
0.49584
0.19609
-0.00375
-0.06994
-0.06744
-0.05495
-0.05246
-0.05745
-0.05995
-0.05995
-0.06245
-0.06744
-0.06994
-0.06994
-0.06994
-0.07244
-0.07744
-0.08493
-0.09242
-0.09742
-0.09992
-0.10242
-0.11241
-0.12739
-0.13988
-0.14988
-0.16237
-0.17735
-0.18735
-0.19484
-0.20483
-0.21232
-0.21732
-0.22232
-0.22731
-0.23231
-0.23481
-0.23481
-0.23481
-0.23231
-0.22232
-0.20733
-0.19109
-0.17111
-0.14613
-0.11865
-0.09117
-0.06620
-0.04746
-0.03122
-0.01499
-0.00749
-0.00250
0.00250
0.00999
0.01249
0.01249
0.01749
0.01998
0.01998
0.01998
0.01998
0.02248
0.02748
0.02998
0.02748
0.02248
0.01249
0.00250
-0.00500
-0.01499
-0.02498
-0.03497
-0.03997
-0.03997
-0.03497
-0.01873
0.01124
0.03872
0.04996
0.04746
0.04496
0.04496
0.04496
0.04246
0.03747
0.03497
0.03247
0.02748
0.01624
-0.01499
-0.07119
-0.11740
-0.03872
0.22731
0.58077
0.81308
0.76812
0.49209
0.18360
-0.00250
-0.05745
-0.05121
-0.03747
-0.03497
-0.03747
-0.04246
-0.04496
-0.04496
-0.04996
-0.05495
-0.05495
-0.04996
-0.04746
-0.05495
-0.06245
-0.06744
-0.07494
-0.08493
-0.09242
-0.09992
-0.11116
-0.12490
-0.13239
-0.13988
-0.15113
-0.16237
-0.16986
-0.17985
-0.18735
-0.19484
-0.19984
-0.19984
-0.19984
-0.19984
-0.19984
-0.19984
-0.19734
-0.19109
-0.17860
-0.16362
-0.14363
-0.12115
-0.10117
-0.07869
-0.05870
-0.04371
-0.03247
-0.02623
-0.01624
-0.00749
-0.00500
-0.00500
-0.00500
-0.00250
-0.00250
-0.00250
0.00000
0.00250
0.00500
0.00500
0.00500
0.00500
0.00250
-0.00250
-0.00749
-0.01624
-0.03122
-0.04246
-0.04496
-0.04496
-0.04246
-0.03372
-0.01499
0.00999
0.02873
0.03247
0.02748
0.02498
0.02498
0.02248
0.01998
0.01998
0.01998
0.01998
0.01749
0.00874
-0.02123
-0.07869
-0.12615
-0.06245
0.17610
0.50209
0.73315
0.71691
0.47336
0.18235
-0.00624
-0.07119
-0.07369
-0.06245
-0.05995
-0.05995
-0.05995
-0.06245
-0.06744
-0.06994
-0.06994
-0.06994
-0.07244
-0.07869
-0.08493
-0.08493
-0.08868
-0.10117
-0.10991
-0.11241
-0.11865
-0.13114
-0.14363
-0.15237
-0.15862
-0.17111
-0.18235
-0.18735
-0.19359
-0.20358
-0.21232
-0.21732
-0.22232
-0.22481
-0.22481
-0.22481
-0.22107
-0.21357
-0.20858
-0.19859
-0.18235
-0.16237
-0.14238
-0.11865
-0.08868
-0.05870
-0.03622
-0.02623
-0.01374
-0.00250
0.00000
0.00000
0.00250
0.00749
0.00749
0.00500
0.00749
0.01374
0.01998
0.01998
0.01998
0.01998
0.01998
0.01998
0.01998
0.01749
0.00874
-0.00624
-0.01873
-0.02748
-0.02748
-0.02498
-0.02123
-0.00500
0.02123
0.04371
0.04996
0.04996
0.04996
0.04871
0.04496
0.04496
0.04496
0.04122
0.03372
0.02998
0.02248
-0.00500
-0.05870
-0.11615
-0.07494
0.15362
0.50458
0.79185
0.83181
0.58951
0.24979
0.01998
-0.05870
-0.05995
-0.04871
-0.04496
-0.04746
-0.04996
-0.05246
-0.05495
-0.05371
-0.04996
-0.05371
-0.06245
-0.06495
-0.06869
-0.07869
-0.08743
-0.08993
-0.09242
-0.09742
-0.10491
-0.11865
-0.12864
-0.13988
-0.15362
-0.16362
-0.17236
-0.17860
-0.18984
-0.20233
-0.20483
-0.20733
-0.20983
-0.20983
-0.20983
-0.20983
-0.20983
-0.20858
-0.20108
-0.18984
-0.17486
-0.15737
-0.13489
-0.10616
-0.08243
-0.06495
-0.04996
-0.03497
-0.01998
-0.00874
-0.00500
-0.00375
0.00125
0.00500
0.00500
0.00999
0.01998
0.01998
0.01998
0.01998
0.01998
0.01998
0.01998
0.02123
0.02373
0.01624
0.00624
-0.00125
-0.00624
-0.01499
-0.02998
-0.03997
-0.03622
-0.02498
-0.00624
0.01873
0.03872
0.04371
0.03622
0.02873
0.02498
0.02373
0.01998
0.01998
0.01998
0.01998
0.01873
0.00999
-0.01124
-0.05495
-0.10866
-0.09992
0.06744
0.37719
0.67195
0.75688
0.57702
0.27852
0.04871
-0.05495
-0.06994
-0.05495
-0.04496
-0.04621
-0.04996
-0.04996
-0.04871
-0.04621
-0.05371
-0.05995
-0.05995
-0.06370
-0.07119
-0.07494
-0.07619
-0.08118
-0.08868
-0.09492
-0.09867
-0.10991
-0.12490
-0.13864
-0.14613
-0.15487
-0.16861
-0.17610
-0.18110
-0.18859
-0.19609
-0.20108
-0.20483
-0.20483
-0.20608
-0.20983
-0.20983
-0.20858
-0.20358
-0.19484
-0.17985
-0.16237
-0.13489
-0.10741
-0.08243
-0.05745
-0.03497
-0.02248
-0.00999
0.00125
0.00874
0.01624
0.01998
0.01998
0.01873
0.01374
0.00999
0.01124
0.01624
0.01998
0.01998
0.01998
0.02123
0.02373
0.01998
0.01998
0.01873
0.00999
-0.00250
-0.01499
-0.02748
-0.03497
-0.03372
-0.02373
-0.00125
0.02748
0.04746
0.05495
0.05495
0.05495
0.05495
0.05371
0.04871
0.04496
0.04371
0.03997
0.03997
0.03497
0.00999
-0.04621
-0.10741
-0.09367
0.10741
0.46212
0.78186
0.85679
0.63448
0.29351
0.04871
-0.04621
-0.05620
-0.04371
-0.04122
-0.04496
-0.04496
-0.04621
-0.04996
-0.04996
-0.05121
-0.05620
-0.06120
-0.06495
-0.06620
-0.07119
-0.07744
-0.08618
-0.09117
-0.09742
-0.10741
-0.11615
-0.12240
-0.13489
-0.14988
-0.16237
-0.17236
-0.18235
-0.19234
-0.20233
-0.20983
-0.21108
-0.21732
-0.22481
-0.22481
-0.22481
-0.22481
-0.22357
-0.21607
-0.20108
-0.18485
-0.16362
-0.13614
-0.10866
-0.08618
-0.06994
-0.05121
-0.03497
-0.01749
-0.00874
-0.00375
0.00125
0.00624
0.00999
0.01124
0.01624
0.01998
0.01998
0.01873
0.01499
0.01624
0.01998
0.01998
0.02123
0.02373
0.01624
0.00250
-0.00749
-0.01873
-0.03372
-0.04496
-0.04496
-0.04122
-0.02623
-0.00874
0.01749
0.04122
0.04496
0.04371
0.03872
0.03497
0.03372
0.02998
0.02873
0.02498
0.02498
0.02248
0.01124
-0.00999
-0.05495
-0.10491
-0.08243
0.10491
0.41965
0.69817
0.75188
0.54455
0.24730
0.03497
-0.05870
-0.06744
-0.05620
-0.04496
-0.04496
-0.04496
-0.04621
-0.05246
-0.06120
-0.06620
-0.06994
-0.06869
-0.06620
-0.06994
-0.07119
-0.07744
-0.08743
-0.09492
-0.09617
-0.10242
-0.11241
-0.12240
-0.13364
-0.14613
-0.15237
-0.16362
-0.17610
-0.18110
-0.18859
-0.20108
-0.20483
-0.20483
-0.20483
-0.20608
-0.20858
-0.20358
-0.19859
-0.19234
-0.18110
-0.16611
-0.14863
-0.12490
-0.10491
-0.08368
-0.05870
-0.03622
-0.02123
-0.00749
0.00125
0.00500
0.00500
0.00500
0.00749
0.01499
0.01374
0.01124
0.01624
0.01998
0.01998
0.01998
0.01998
0.01998
0.01998
0.01873
0.01249
0.00375
-0.00250
-0.01374
-0.02748
-0.03497
-0.03497
-0.03247
-0.01873
0.00624
0.03122
0.05121
0.05495
0.05495
0.05246
0.04496
0.04371
0.03997
0.03997
0.03872
0.03497
0.03372
0.02498
-0.00375
-0.06994
-0.11740
-0.04122
0.20858
0.55704
0.80434
0.78186
0.49959
0.18235
-0.00624
-0.06370
-0.05620
-0.04496
-0.04496
-0.04371
-0.04122
-0.04621
-0.05121
-0.05495
-0.05620
-0.06120
-0.06495
-0.06495
-0.06620
-0.07244
-0.08118
-0.08618
-0.09242
-0.10242
-0.11241
-0.12240
-0.13239
-0.14363
-0.15737
-0.16736
-0.17735
-0.18610
-0.19234
-0.20233
-0.20983
-0.21108
-0.21732
-0.22606
-0.22981
-0.22981
-0.22856
-0.22357
-0.21732
-0.20108
-0.18235
-0.16486
-0.13864
-0.10991
-0.08493
-0.05995
-0.03747
-0.02248
-0.00874
-0.00500
-0.00250
0.00624
0.01249
0.01998
0.01998
0.01998
0.01998
0.01998
0.01998
0.01998
0.01998
0.01998
0.01998
0.01998
0.01998
0.01749
0.00749
-0.00125
-0.00749
-0.01749
-0.03122
-0.03497
-0.03372
-0.02373
-0.00999
0.01499
0.03747
0.05121
0.05371
0.04371
0.03997
0.03997
0.03872
0.03622
0.03997
0.03872
0.03372
0.01998
-0.00874
-0.05620
-0.10741
-0.05495
0.19734
0.55829
0.80808
0.77061
0.48085
0.16736
-0.01749
-0.07494
-0.07119
-0.05371
-0.04621
-0.05620
-0.05995
-0.05870
-0.05121
-0.05620
-0.06120
-0.06495
-0.06620
-0.06994
-0.07119
-0.07619
-0.08118
-0.08618
-0.09117
-0.09617
-0.10117
-0.11116
-0.12240
-0.13614
-0.14613
-0.15612
-0.16112
-0.17111
-0.17610
-0.18110
-0.19109
-0.19359
-0.18984
-0.19109
-0.19984
-0.19984
-0.19859
-0.18859
-0.18360
-0.17236
-0.15237
-0.13114
-0.10741
-0.08618
-0.06744
-0.05246
-0.03747
-0.02373
-0.01374
-0.00375
0.00125
0.00500
0.00500
0.00624
0.01374
0.00500
0.00624
0.01124
0.01374
0.00375
0.00125
0.00624
0.00999
0.00874
0.00375
-0.00500
-0.00624
-0.01749
-0.03122
-0.04122
-0.04496
-0.04371
-0.03747
-0.01998
0.00999
0.03622
0.04371
0.03872
0.03372
0.02998
0.02998
0.02998
0.02998
0.02998
0.02873
0.02373
0.01749
-0.00125
-0.04496
-0.10741
-0.10366
0.06869
0.38094
0.68568
0.78935
0.61949
0.30225
0.05371
-0.05246
-0.06744
-0.04871
-0.04496
-0.04496
-0.04496
-0.04621
-0.05121
-0.05995
-0.05995
-0.06120
-0.06994
-0.07119
-0.07494
-0.07119
-0.07619
-0.08618
-0.09492
-0.09617
-0.10616
-0.11615
-0.12615
-0.13614
-0.14613
-0.15737
-0.17111
-0.17610
-0.18610
-0.19609
-0.20108
-0.20483
-0.20608
-0.20983
-0.20983
-0.20983
-0.20983
-0.20983
-0.20858
-0.19734
-0.17735
-0.15737
-0.13739
-0.11241
-0.08743
-0.06370
-0.04746
-0.02873
-0.01374
-0.00500
0.00000
0.00500
0.00500
0.00500
0.00999
0.01499
0.01998
0.01998
0.01499
0.00999
0.01499
0.01998
0.01998
0.01998
0.01873
0.00999
0.00375
-0.00500
-0.01124
-0.02623
-0.03622
-0.04496
-0.04496
-0.03872
-0.02123
0.00749
0.03122
0.04496
0.04371
0.03497
0.02998
0.02998
0.02998
0.02873
0.01998
0.01998
0.01873
0.00749
-0.01499
-0.06744
-0.12739
-0.08243
0.15237
0.50708
0.79434
0.80933
0.54455
0.20233
-0.01249
-0.07993
-0.07369
-0.06370
-0.05495
-0.05495
-0.05995
-0.06495
-0.06495
-0.06495
-0.06495
-0.06994
-0.06994
-0.06620
-0.07619
-0.08493
-0.08993
-0.08993
-0.09617
-0.10991
-0.11615
-0.12615
-0.13614
-0.14613
-0.15612
-0.16611
-0.17486
-0.17985
-0.18485
-0.18610
-0.19484
-0.19984
-0.20483
-0.20483
-0.20983
-0.20983
-0.20983
-0.20358
-0.18859
-0.17860
-0.16362
-0.14238
-0.11241
-0.08868
-0.07369
-0.05371
-0.03872
-0.02873
-0.01998
-0.01374
-0.00500
-0.00500
-0.00500
-0.00500
-0.00500
0.00000
0.00500
0.00500
0.00500
0.00999
0.00500
0.00500
0.00500
0.00999
0.00375
-0.00500
-0.01124
-0.02123
-0.03622
-0.04996
-0.04996
-0.04371
-0.03372
-0.01873
0.00250
0.03122
0.03997
0.03497
0.02998
0.02998
0.02998
0.02498
0.02498
0.02998
0.02998
0.02498
0.01873
0.00749
-0.03372
-0.09742
-0.12240
0.01374
0.31599
0.64447
0.78061
0.62573
0.31349
0.06245
-0.05121
-0.06495
-0.05495
-0.04496
-0.04496
-0.04496
-0.04496
-0.04996
-0.05995
-0.05995
-0.05495
-0.05495
-0.05995
-0.06495
-0.06495
-0.06994
-0.07993
-0.08993
-0.09492
-0.09992
-0.10491
-0.11491
-0.12490
-0.13614
-0.14613
-0.15487
-0.16112
-0.16986
-0.17610
-0.18610
-0.19484
-0.19484
-0.19984
-0.19984
-0.20483
-0.19984
-0.19484
-0.18485
-0.17361
-0.15487
-0.13864
-0.11865
-0.09867
-0.07869
-0.05995
-0.04496
-0.03497
-0.01998
-0.00500
0.00000
0.00500
0.00500
0.00500
0.00999
0.00999
0.00999
0.00999
0.00999
0.00999
0.00999
0.01499
0.01998
0.01998
0.00999
0.00500
0.00500
-0.00500
-0.01998
-0.03497
-0.03497
-0.03497
-0.02498
-0.01873
0.00125
0.02498
0.03997
0.04996
0.05495
0.04996
0.04496
0.03997
0.03497
0.02998
0.01998
0.01998
0.01998
0.01374
-0.01624
-0.08118
-0.12864
-0.05870
0.20358
0.54080
0.77436
0.73814
0.45712
0.14613
-0.03122
-0.06495
-0.05495
-0.04496
-0.04496
-0.04496
-0.04496
-0.04996
-0.04996
-0.04996
-0.05495
-0.05995
-0.06495
-0.06994
-0.06994
-0.07494
-0.08493
-0.08493
-0.08993
-0.09992
-0.10991
-0.11491
-0.12490
-0.13489
-0.14988
-0.15987
-0.16486
-0.17486
-0.18485
-0.18984
-0.19984
-0.19984
-0.20983
-0.20983
-0.20483
-0.20483
-0.20483
-0.20483
-0.19484
-0.18485
-0.17486
-0.15487
-0.12989
-0.10491
-0.07993
-0.06495
-0.03997
-0.02498
-0.01499
-0.00500
-0.00500
0.00000
0.00500
0.00500
0.00500
0.00999
0.00999
0.00999
0.00999
0.01499
0.01998
0.01998
0.01998
0.01998
0.01499
0.00500
0.00500
0.00000
-0.00500
-0.01998
-0.03497
-0.03997
-0.03997
-0.03997
-0.02998
-0.00500
0.02998
0.04496
0.04496
0.03997
0.03997
0.02998
0.02998
0.02998
0.02998
0.02998
0.02498
0.01998
0.00999
-0.02998
-0.09367
-0.13489
-0.01124
0.29601
0.64447
0.83681
0.71691
0.38094
0.07993
-0.06245
-0.08493
-0.06495
-0.05495
-0.05495
-0.05995
-0.06495
-0.06495
-0.06994
-0.06994
-0.06994
-0.06994
-0.07494
-0.07494
-0.07494
-0.07993
-0.08493
-0.08993
-0.09492
-0.10991
-0.11491
-0.12490
-0.13489
-0.14488
-0.15487
-0.16986
-0.17985
-0.18485
-0.19484
-0.20483
-0.20983
-0.20983
-0.20983
-0.20983
-0.20983
-0.20983
-0.20983
-0.20983
-0.20483
-0.18610
-0.16611
-0.14613
-0.12115
-0.09117
-0.07494
-0.05995
-0.04996
-0.03122
-0.01124
-0.00500
0.00000
0.00500
0.00500
0.00999
0.01499
0.00999
0.00999
0.00999
0.01499
0.01998
0.01998
0.01499
0.00999
0.00999
0.00999
0.00500
-0.00500
-0.01873
-0.02998
-0.03997
-0.04496
-0.04496
-0.03997
-0.02623
-0.00125
0.01873
0.02998
0.03497
0.02998
0.02498
0.02498
0.02498
0.01998
0.01998
0.01998
0.01998
0.01499
0.00125
-0.03372
-0.09617
-0.12864
-0.01624
0.25979
0.58202
0.74189
0.62199
0.31724
0.06370
-0.05371
-0.07869
-0.07119
-0.05995
-0.05995
-0.05995
-0.06495
-0.06495
-0.06495
-0.06495
-0.06994
-0.06994
-0.06994
-0.07993
-0.08493
-0.08993
-0.09492
-0.09992
-0.10991
-0.11491
-0.11990
-0.12989
-0.14363
-0.15487
-0.16486
-0.17486
-0.17985
-0.18485
-0.19484
-0.19984
-0.20483
-0.20983
-0.20983
-0.20983
-0.21482
-0.21482
-0.20983
-0.20483
-0.19609
-0.18110
-0.16611
-0.14238
-0.11740
-0.09242
-0.07619
-0.05620
-0.03622
-0.01624
-0.00624
0.00000
0.00500
0.00500
0.00500
0.00500
0.00500
0.00999
0.00500
0.00500
0.00500
0.00500
0.00500
0.00500
0.00500
0.00500
-0.00375
-0.00500
-0.00999
-0.01873
-0.03372
-0.04371
-0.04496
-0.03997
-0.03497
-0.02123
0.00250
0.02748
0.04371
0.03622
0.02998
0.02998
0.02998
0.02998
0.02498
0.02998
0.02998
0.02498
0.01998
0.00125
-0.04122
-0.10366
-0.10491
0.06744
0.37969
0.69068
0.80559
0.62449
0.30100
0.05246
-0.05121
-0.06495
-0.05121
-0.04496
-0.04496
-0.04496
-0.04496
-0.04996
-0.05870
-0.05995
-0.05995
-0.06495
-0.06994
-0.07494
-0.07494
-0.07993
-0.08493
-0.09367
-0.09492
-0.10366
-0.11865
-0.12490
-0.13364
-0.13988
-0.15362
-0.16362
-0.17361
-0.17985
-0.18485
-0.19359
-0.19984
-0.20483
-0.20983
-0.20983
-0.20983
-0.20983
-0.20983
-0.20983
-0.20108
-0.18235
-0.15737
-0.13739
-0.11740
-0.09242
-0.06744
-0.04246
-0.02623
-0.01124
-0.00500
0.00375
0.00500
0.00500
0.01374
0.01499
0.01499
0.01499
0.01998
0.01998
0.01998
0.01998
0.01998
0.01998
0.01998
0.01998
0.01998
0.01998
0.01499
0.00624
-0.00375
-0.01374
-0.01998
-0.02873
-0.02998
-0.01624
0.00250
0.02748
0.04371
0.04996
0.04996
0.04122
0.03622
0.03122
0.02998
0.02623
0.02123
0.01998
0.01624
0.00250
-0.02998
-0.07869
-0.11116
-0.00624
0.26603
0.58702
0.76937
0.66445
0.35845
0.08493
-0.04496
-0.06869
-0.06120
-0.05121
-0.05371
-0.05870
-0.05995
-0.05995
-0.05995
-0.05995
-0.06370
-0.06495
-0.06495
-0.06869
-0.07869
-0.08368
-0.08868
-0.09367
-0.09992
-0.10866
-0.11491
-0.11990
-0.13239
-0.14738
-0.15487
-0.16362
-0.17361
-0.17985
-0.18485
-0.18984
-0.18984
-0.19859
-0.19984
-0.19984
-0.19984
-0.19984
-0.19984
-0.18735
-0.18110
-0.16736
-0.15612
-0.13364
-0.10866
-0.09242
-0.07244
-0.05246
-0.03747
-0.02248
-0.01624
-0.01124
-0.00624
-0.00500
-0.00500
-0.00500
-0.00500
-0.00125
0.00375
0.00500
0.00500
0.00500
0.00500
0.00500
0.00500
0.00500
0.00125
-0.00375
-0.00874
-0.02248
-0.03747
-0.05246
-0.05495
-0.04621
-0.04122
-0.02748
-0.00375
0.02123
0.02873
0.02998
0.02998
0.02998
0.02998
0.02623
0.02498
0.02123
0.01998
0.01998
0.01624
0.00250
-0.04122
-0.11241
-0.13364
0.00250
0.29601
0.62324
0.80059
0.68818
0.38218
0.09742
-0.04871
-0.08243
-0.07244
-0.06120
-0.05995
-0.05620
-0.05870
-0.05995
-0.06370
-0.06495
-0.06495
-0.06869
-0.07369
-0.07869
-0.07993
-0.08368
-0.08868
-0.09367
-0.10366
-0.10866
-0.11865
-0.12864
-0.13864
-0.15237
-0.16362
-0.17361
-0.18360
-0.18859
-0.19859
-0.20858
-0.21357
-0.21482
-0.21857
-0.22357
-0.22481
-0.22107
-0.21982
-0.21607
-0.21108
-0.19359
-0.17735
-0.15862
-0.13489
-0.10991
-0.08493
-0.05995
-0.04246
-0.02748
-0.01749
-0.01124
-0.00624
-0.00125
0.00375
0.00500
0.00500
0.00874
0.00999
0.00999
0.00999
0.01374
0.01873
0.01998
0.01998
0.01998
0.01998
0.01249
0.00624
-0.00250
-0.01749
-0.02748
-0.03747
-0.03997
-0.03622
-0.02248
0.00375
0.02998
0.04746
0.05371
0.05121
0.04621
0.04122
0.03997
0.03622
0.03122
0.02998
0.02998
0.02623
0.00500
-0.03997
-0.09742
-0.09367
0.07619
0.39218
0.71441
0.83181
0.64822
0.31474
0.05870
-0.04871
-0.06495
-0.05745
-0.04746
-0.04496
-0.04871
-0.05371
-0.05121
-0.04996
-0.05745
-0.06370
-0.06869
-0.06994
-0.06994
-0.07744
-0.08368
-0.08868
-0.08993
-0.09367
-0.10616
-0.11366
-0.12240
-0.13614
-0.14738
-0.15737
-0.16736
-0.18110
-0.18859
-0.19359
-0.19859
-0.20733
-0.20983
-0.21357
-0.21857
-0.21982
-0.21982
-0.21607
-0.21108
-0.20233
-0.18485
-0.16486
-0.13739
-0.11491
-0.09492
-0.07119
-0.04996
-0.02998
-0.02123
-0.01249
-0.00624
-0.00125
0.00375
0.00500
0.00500
0.00500
0.00500
0.00874
0.01749
0.01998
0.01998
0.01998
0.01998
0.02373
0.02123
0.01998
0.01249
0.00250
-0.00749
-0.02123
-0.03247
-0.03497
-0.03872
-0.02873
-0.00624
0.02248
0.03747
0.03247
0.02623
0.02498
0.02873
0.02998
0.02998
0.02998
0.02998
0.02248
0.01998
0.01249
-0.00874
-0.05995
-0.11241
-0.06120
0.14863
0.45463
0.69318
0.70317
0.47586
0.18360
-0.00250
-0.06620
-0.06370
-0.05246
-0.04996
-0.05371
-0.05495
-0.05495
-0.05495
-0.05495
-0.05870
-0.06370
-0.06869
-0.06994
-0.06994
-0.07369
-0.07869
-0.08368
-0.09242
-0.09492
-0.10616
-0.11740
-0.12365
-0.12864
-0.13739
-0.15113
-0.15862
-0.16736
-0.17735
-0.18735
-0.19734
-0.19984
-0.19984
-0.20358
-0.20483
-0.20483
-0.20108
-0.19984
-0.19234
-0.18235
-0.16112
-0.14363
-0.12115
-0.09992
-0.07619
-0.05870
-0.04371
-0.02873
-0.00999
0.00250
0.00500
0.00500
0.00500
0.00500
0.00500
0.00500
0.00874
0.00999
0.00624
0.00500
0.00874
0.01749
0.01624
0.01124
0.00999
0.00624
0.00125
-0.00749
-0.01749
-0.02748
-0.03747
-0.03997
-0.03622
-0.01998
0.00250
0.02748
0.04246
0.04871
0.04621
0.04122
0.03622
0.03497
0.03497
0.03122
0.02998
0.02998
0.02998
0.01624
-0.02248
-0.08118
-0.10366
0.01998
0.29101
0.60450
0.78061
0.68319
0.38843
0.11241
-0.02748
-0.05495
-0.04746
-0.04122
-0.03997
-0.03997
-0.04371
-0.04496
-0.04496
-0.04871
-0.05745
-0.05995
-0.06370
-0.06495
-0.06869
-0.07369
-0.07494
-0.07869
-0.08743
-0.09742
-0.10741
-0.11366
-0.12240
-0.13614
-0.14738
-0.15737
-0.16362
-0.17610
-0.18360
-0.18859
-0.19359
-0.19859
-0.20358
-0.20858
-0.20983
-0.20983
-0.20983
-0.20608
-0.19484
-0.18360
-0.16986
-0.15113
-0.12365
-0.09742
-0.07619
-0.05620
-0.03622
-0.02248
-0.01249
-0.00624
-0.00125
0.00375
0.00500
0.00500
0.00874
0.01749
0.01624
0.01499
0.01499
0.01873
0.01998
0.01998
0.01998
0.01998
0.01624
0.00874
0.00500
0.00500
-0.00500
-0.01998
-0.03122
-0.03122
-0.02623
-0.02498
-0.01124
0.01873
0.04371
0.05371
0.05495
0.05121
0.04621
0.03872
0.03497
0.03497
0.03872
0.03622
0.03122
0.02373
0.00000
-0.05371
-0.10491
-0.05246
0.17236
0.49459
0.74688
0.75812
0.51832
0.20608
0.00375
-0.06120
-0.06370
-0.05371
-0.04621
-0.04496
-0.04496
-0.04871
-0.05371
-0.05495
-0.05495
-0.05870
-0.06620
-0.06994
-0.07369
-0.07494
-0.07869
-0.08368
-0.08868
-0.09367
-0.10117
-0.11491
-0.12365
-0.13114
-0.14488
-0.15612
-0.16362
-0.16861
-0.17610
-0.18360
-0.19109
-0.19859
-0.19609
-0.19484
-0.19109
-0.18984
-0.18984
-0.18984
-0.18360
-0.16986
-0.15487
-0.13988
-0.12240
-0.09867
-0.07369
-0.05495
-0.04371
-0.03372
-0.02373
-0.01374
-0.00624
-0.00500
-0.00125
0.00375
0.00500
0.00500
0.00500
0.00500
0.00500
0.00500
0.00874
0.01374
0.00874
0.00500
0.00500
0.00500
-0.00125
-0.00874
-0.01998
-0.03122
-0.03872
-0.03622
-0.02873
-0.01499
0.00250
0.02623
0.04122
0.04496
0.04496
0.04122
0.03622
0.03497
0.03497
0.03122
0.02623
0.02123
0.01998
0.00749
-0.02873
-0.08618
-0.11615
-0.01873
0.23356
0.54830
0.75063
0.69568
0.42590
0.14363
-0.01624
-0.06120
-0.05870
-0.04871
-0.04496
-0.04871
-0.05371
-0.05495
-0.05246
-0.05371
-0.05870
-0.06370
-0.06495
-0.06869
-0.06994
-0.07369
-0.07494
-0.08118
-0.09117
-0.10117
-0.10866
-0.11366
-0.12115
-0.13489
-0.14988
-0.15862
-0.16611
-0.17610
-0.18610
-0.19359
-0.19859
-0.20358
-0.20483
-0.20483
-0.20858
-0.20983
-0.20983
-0.20733
-0.19609
-0.18360
-0.17111
-0.15237
-0.12615
-0.10242
-0.08243
-0.06245
-0.04621
-0.03122
-0.01873
-0.00874
-0.00500
-0.00500
-0.00500
-0.00500
-0.00250
0.00250
0.00500
0.00500
0.00500
0.00500
0.00500
0.00500
0.01124
0.01249
0.00375
-0.00250
-0.00749
-0.01249
-0.02123
-0.03372
-0.04246
-0.04246
-0.03747
-0.02623
0.00125
0.03247
0.05121
0.04871
0.04496
0.04246
0.03997
0.03747
0.03247
0.02998
0.02998
0.02373
0.01749
0.00250
-0.04122
-0.10117
-0.10117
0.06370
0.38218
0.70317
0.82307
0.65821
0.33722
0.06994
-0.05121
-0.06869
-0.05620
-0.04996
-0.05620
-0.05995
-0.05371
-0.04996
-0.05620
-0.06245
-0.06495
-0.06495
-0.06744
-0.07244
-0.07744
-0.08243
-0.08743
-0.09242
-0.10117
-0.10741
-0.11615
-0.12864
-0.13739
-0.14613
-0.15862
-0.17111
-0.18110
-0.18735
-0.19609
-0.20608
-0.21232
-0.21482
-0.21732
-0.22232
-0.22731
-0.22981
-0.22731
-0.22481
-0.21982
-0.20608
-0.18610
-0.16112
-0.13239
-0.10866
-0.08618
-0.06120
-0.04371
-0.03122
-0.01873
-0.00874
-0.00500
0.00125
0.00500
0.00749
0.01249
0.01499
0.01499
0.01249
0.00749
0.00749
0.01249
0.01749
0.01998
0.01749
0.00874
0.00500
-0.00125
-0.01124
-0.02373
-0.03247
-0.03497
-0.03497
-0.03247
-0.01249
0.01374
0.03372
0.04246
0.04496
0.04246
0.03497
0.02998
0.02998
0.02998
0.02998
0.02748
0.02248
0.01499
-0.01499
-0.06620
-0.10117
-0.02873
0.20483
0.52082
0.74813
0.73190
0.47586
0.17236
-0.01374
-0.06994
-0.06994
-0.05995
-0.05495
-0.05495
-0.05745
-0.06245
-0.06495
-0.06245
-0.06245
-0.06744
-0.07244
-0.07494
-0.07744
-0.08243
-0.08993
-0.09492
-0.09492
-0.09992
-0.10741
-0.11491
-0.12864
-0.13988
-0.14988
-0.15987
-0.16736
-0.17236
-0.17985
-0.18984
-0.19484
-0.19484
-0.19734
-0.20233
-0.20233
-0.19984
-0.19984
-0.19984
-0.19484
-0.18235
-0.16362
-0.14113
-0.11615
-0.09367
-0.07369
-0.05745
-0.04246
-0.02998
-0.02248
-0.01998
-0.01499
-0.00749
-0.00500
-0.00500
-0.00500
-0.00250
0.00000
-0.00250
-0.00500
-0.00250
0.00250
0.00250
-0.00250
-0.00500
-0.00500
-0.00749
-0.01499
-0.02498
-0.03497
-0.04746
-0.05495
-0.04996
-0.03997
-0.02498
0.00125
0.02248
0.02998
0.02998
0.02498
0.01998
0.01998
0.01998
0.01998
0.01998
0.01998
0.01749
0.00749
-0.01873
-0.06370
-0.11116
-0.08118
0.10741
0.41341
0.68069
0.73814
0.54455
0.24730
0.02498
-0.06869
-0.07744
-0.06744
-0.06245
-0.05995
-0.06245
-0.06495
-0.06495
-0.06495
-0.06744
-0.06994
-0.07494
-0.08243
-0.08493
-0.08743
-0.08993
-0.09242
-0.09992
-0.10991
-0.11740
-0.12490
-0.13489
-0.14488
-0.15487
-0.16486
-0.17486
-0.18235
-0.18984
-0.19734
-0.20233
-0.20733
-0.20983
-0.20983
-0.21232
-0.21482
-0.21482
-0.21232
-0.20483
-0.19734
-0.18485
-0.16486
-0.14238
-0.11740
-0.09242
-0.06994
-0.05246
-0.03997
-0.02998
-0.01998
-0.00999
-0.00500
-0.00500
-0.00250
0.00000
-0.00250
-0.00500
-0.00500
-0.00250
0.00250
0.00500
0.00500
0.00999
0.01249
0.00749
0.00000
-0.00500
-0.00749
-0.01749
-0.02998
-0.03747
-0.03997
-0.03747
-0.02998
-0.00999
0.01998
0.03997
0.04496
0.04496
0.04496
0.04246
0.03497
0.02998
0.02998
0.02748
0.02248
0.01998
0.01249
-0.01873
-0.07869
-0.11491
-0.02123
0.25104
0.59076
0.80559
0.74938
0.46462
0.15862
-0.01749
-0.06495
-0.05745
-0.04746
-0.04496
-0.04496
-0.04496
-0.04496
-0.04746
-0.05246
-0.05745
-0.05995
-0.06495
-0.06994
-0.07244
-0.07744
-0.08243
-0.08993
-0.09742
-0.10491
-0.11491
-0.12240
-0.13239
-0.14488
-0.15487
-0.16736
-0.17735
-0.18235
-0.18984
-0.20233
-0.21232
-0.21482
-0.21732
-0.22232
-0.22481
-0.22232
-0.22232
-0.22481
-0.21857
-0.20358
-0.18360
-0.16112
-0.13614
-0.10616
-0.08118
-0.06120
-0.04496
-0.03372
-0.01998
-0.00999
-0.00500
0.00000
0.00500
0.00500
0.00749
0.01249
0.01499
0.01499
0.01499
0.01749
0.01998
0.01998
0.01998
0.01998
0.01499
0.00749
0.00000
-0.00749
-0.01499
-0.02623
-0.03747
-0.03997
-0.03747
-0.02623
0.00125
0.03122
0.04996
0.05246
0.04746
0.04246
0.03997
0.03997
0.03497
0.02998
0.02748
0.02248
0.01749
0.00125
-0.04122
-0.09992
-0.09742
0.06869
0.38843
0.70567
0.82307
0.65571
0.33098
0.05870
-0.06245
-0.08118
-0.07119
-0.06245
-0.06245
-0.06495
-0.06495
-0.06744
-0.06994
-0.07244
-0.07744
-0.07744
-0.07494
-0.08118
-0.09492
-0.10242
-0.10741
-0.11241
-0.11740
-0.12490
-0.13239
-0.14113
-0.15612
-0.16986
-0.17985
-0.18984
-0.19984
-0.20733
-0.21232
-0.21732
-0.22232
-0.22731
-0.22981
-0.22981
-0.23231
-0.23231
-0.22731
-0.21857
-0.20608
-0.19109
-0.17111
-0.15113
-0.12989
-0.10616
-0.08618
-0.06869
-0.05371
-0.04246
-0.03747
-0.03122
-0.02248
-0.01998
-0.01998
-0.01749
-0.01124
-0.00500
-0.00500
-0.00500
-0.00250
-0.00250
-0.00500
-0.00500
-0.00500
-0.00749
-0.01374
-0.02248
-0.02873
-0.04122
-0.05371
-0.05745
-0.05121
-0.04122
-0.02873
-0.00999
0.01374
0.02748
0.02998
0.02623
0.01998
0.01998
0.01998
0.01624
0.00749
0.00500
0.00500
0.00125
-0.01124
-0.03872
-0.08868
-0.11491
-0.01499
0.24730
0.56453
0.74938
0.67569
0.40467
0.12365
-0.03497
-0.07993
-0.07369
-0.06245
-0.05995
-0.06370
-0.06994
-0.06994
-0.06994
-0.06994
-0.06994
-0.06994
-0.06994
-0.07369
-0.08243
-0.08743
-0.09242
-0.09867
-0.10741
-0.11241
-0.11865
-0.12864
-0.13864
-0.14863
-0.15862
-0.16861
-0.17860
-0.18859
-0.19734
-0.20358
-0.20983
-0.20983
-0.20983
-0.21232
-0.21482
-0.21482
-0.21108
-0.20108
-0.19109
-0.17860
-0.16362
-0.14488
-0.11990
-0.09492
-0.06994
-0.04871
-0.03372
-0.02123
-0.01124
-0.00500
-0.00125
0.00500
0.00500
0.00500
0.00500
0.00250
0.00000
0.00000
0.00000
0.00250
0.00500
0.00500
0.00250
0.00000
-0.00250
-0.00500
-0.00874
-0.02123
-0.03622
-0.04496
-0.04496
-0.04371
-0.03872
-0.02748
-0.00375
0.02373
0.04246
0.04496
0.04496
0.04371
0.03997
0.03997
0.03997
0.03622
0.02873
0.02498
0.02123
0.00624
-0.03247
-0.09242
-0.10991
0.01749
0.31224
0.64447
0.81433
0.70192
0.39717
0.10991
-0.03497
-0.06620
-0.05495
-0.04496
-0.04496
-0.04496
-0.04496
-0.04496
-0.04496
-0.04496
-0.04496
-0.04871
-0.05620
-0.05995
-0.06370
-0.07119
-0.07619
-0.08118
-0.08868
-0.09867
-0.10866
-0.11615
-0.12490
-0.13864
-0.14988
-0.16237
-0.16861
-0.17860
-0.18859
-0.19734
-0.20233
-0.20733
-0.20983
-0.20983
-0.21232
-0.21482
-0.21482
-0.21108
-0.20108
-0.18984
-0.17361
-0.15362
-0.13114
-0.10491
-0.07619
-0.05371
-0.03497
-0.01998
-0.00874
-0.00125
0.00500
0.00874
0.01374
0.00999
0.00999
0.01374
0.01998
0.01998
0.01998
0.01998
0.01998
0.01998
0.01998
0.02123
0.02373
0.01873
0.01374
0.00624
-0.00500
-0.01998
-0.02998
-0.02873
-0.02498
-0.02373
-0.00999
0.01873
0.03997
0.04871
0.04496
0.04496
0.04496
0.04371
0.03872
0.03497
0.03497
0.03372
0.02873
0.02123
0.00250
-0.04996
-0.10991
-0.07619
0.14863
0.49709
0.77186
0.80059
0.56079
0.23106
0.00999
-0.06620
-0.06370
-0.04871
-0.04496
-0.04871
-0.05620
-0.05995
-0.05995
-0.06120
-0.06495
-0.06620
-0.06994
-0.07119
-0.07369
-0.07119
-0.07869
-0.08868
-0.09492
-0.09617
-0.10366
-0.11491
-0.12989
-0.14363
-0.15113
-0.15612
-0.16362
-0.17111
-0.17860
-0.18485
-0.18610
-0.19109
-0.19609
-0.19984
-0.20108
-0.20483
-0.20233
-0.19359
-0.18859
-0.18360
-0.17236
-0.14738
-0.12365
-0.10242
-0.07869
-0.05995
-0.04746
-0.03497
-0.01998
-0.00874
-0.00250
0.00500
0.00500
0.00500
0.00624
0.00999
0.00999
0.00999
0.00874
0.00500
0.00500
0.00624
0.01124
0.01249
0.00500
0.00500
0.00000
-0.01499
-0.02998
-0.03997
-0.03872
-0.03247
-0.02373
-0.01499
0.00250
0.02498
0.03622
0.03747
0.02998
0.02873
0.02498
0.02623
0.02998
0.02998
0.02998
0.02748
0.01873
0.00874
-0.01998
-0.07369
-0.11615
-0.04746
0.19359
0.52457
0.74813
0.71441
0.45712
0.16362
-0.00874
-0.05495
-0.05246
-0.04496
-0.04496
-0.04621
-0.04996
-0.05121
-0.05620
-0.05995
-0.06120
-0.06620
-0.06994
-0.06994
-0.07119
-0.07744
-0.08493
-0.08618
-0.09242
-0.10242
-0.11116
-0.11615
-0.12240
-0.13489
-0.15237
-0.16112
-0.16736
-0.17610
-0.18110
-0.18610
-0.19109
-0.19609
-0.20108
-0.20483
-0.20483
-0.20483
-0.20358
-0.19734
-0.18735
-0.17610
-0.16112
-0.14363
-0.11865
-0.09367
-0.07119
-0.05620
-0.03997
-0.02373
-0.01749
-0.00874
-0.00250
0.00500
0.00500
0.00500
0.00500
0.00500
0.00500
0.00624
0.01124
0.01499
0.01374
0.00999
0.01124
0.01499
0.01249
0.00375
-0.00125
-0.00749
-0.01998
-0.03622
-0.03872
-0.03247
-0.02373
-0.01749
-0.00250
0.02623
0.04621
0.04871
0.04496
0.04621
0.04871
0.04371
0.03872
0.03497
0.03497
0.03372
0.02873
0.01998
-0.00999
-0.07244
-0.11740
-0.03622
0.22731
0.56828
0.79684
0.75688
0.48085
0.16611
-0.01749
-0.06869
-0.06120
-0.04871
-0.04496
-0.04621
-0.04996
-0.04996
-0.05121
-0.05495
-0.05495
-0.05620
-0.06120
-0.06620
-0.06994
-0.07119
-0.07744
-0.08618
-0.09117
-0.09742
-0.10866
-0.12240
-0.13239
-0.14238
-0.15362
-0.16736
-0.17610
-0.18110
-0.18735
-0.19609
-0.20233
-0.20983
-0.21232
-0.22107
-0.22357
-0.21857
-0.21357
-0.20983
-0.20858
-0.19984
-0.17985
-0.15987
-0.13864
-0.10991
-0.08493
-0.06120
-0.04746
-0.03622
-0.02123
-0.00874
-0.00250
0.00500
0.00624
0.01124
0.01624
0.01998
0.01998
0.01873
0.01499
0.01624
0.02123
0.02373
0.01998
0.01998
0.01998
0.01873
0.01249
0.00250
-0.00749
-0.01749
-0.02748
-0.03497
-0.03497
-0.03122
-0.00999
0.01499
0.03747
0.04746
0.05371
0.04871
0.04496
0.04496
0.04371
0.03747
0.02873
0.02498
0.02498
0.02248
0.00749
-0.03247
-0.08618
-0.08243
0.08993
0.40467
0.70192
0.79060
0.59076
0.26978
0.03372
-0.05371
-0.06245
-0.05246
-0.04371
-0.04122
-0.04496
-0.04621
-0.04996
-0.05246
-0.06120
-0.06620
-0.06994
-0.06994
-0.07119
-0.07619
-0.07993
-0.08118
-0.08743
-0.09742
-0.10741
-0.11615
-0.12240
-0.13239
-0.14238
-0.15237
-0.16112
-0.16736
-0.17610
-0.18110
-0.18610
-0.19109
-0.19609
-0.19984
-0.19984
-0.19984
-0.19984
-0.19859
-0.18859
-0.17735
-0.16237
-0.14613
-0.12490
-0.10242
-0.08618
-0.06620
-0.04871
-0.03872
-0.02873
-0.01998
-0.01749
-0.00375
0.00000
0.00000
0.00000
0.00125
0.00500
0.00500
0.00500
0.00500
0.00500
0.00500
0.00500
0.00500
0.00375
-0.00500
-0.00624
-0.01249
-0.02748
-0.04122
-0.05121
-0.05371
-0.04371
-0.03872
-0.02498
0.00000
0.02123
0.02998
0.03122
0.03372
0.02998
0.02873
0.02498
0.02498
0.02373
0.01998
0.01873
0.01374
-0.00125
-0.04621
-0.10741
-0.11990
0.02373
0.32099
0.62698
0.76687
0.62823
0.32348
0.06620
-0.05371
-0.06744
-0.05371
-0.04621
-0.05121
-0.05495
-0.05620
-0.06120
-0.06495
-0.06495
-0.06620
-0.07119
-0.07619
-0.07869
-0.07619
-0.08118
-0.08618
-0.09492
-0.09742
-0.11116
-0.11615
-0.12115
-0.13114
-0.14238
-0.15612
-0.16611
-0.17610
-0.18110
-0.19109
-0.20108
-0.20483
-0.20608
-0.20983
-0.20983
-0.20983
-0.20983
-0.20983
-0.20983
-0.20233
-0.18735
-0.16736
-0.14738
-0.12615
-0.10117
-0.07619
-0.05246
-0.03747
-0.02373
-0.01374
-0.00375
0.00125
0.00500
0.00500
0.00375
0.00000
0.00000
0.00125
0.00500
0.00500
0.00500
0.00500
0.00500
0.00500
0.00500
0.00500
0.00375
-0.00624
-0.01124
-0.02123
-0.02623
-0.03622
-0.03997
-0.03872
-0.03247
-0.00999
0.02248
0.04122
0.04371
0.03372
0.02998
0.02998
0.02998
0.02873
0.01998
0.01998
0.01873
0.01374
0.00749
-0.01749
-0.07369
-0.13239
-0.08618
0.15737
0.51707
0.80559
0.80434
0.51957
0.18235
-0.01374
-0.07494
-0.07369
-0.05870
-0.05121
-0.05995
-0.05995
-0.05995
-0.05620
-0.06120
-0.06620
-0.07119
-0.07494
-0.07619
-0.08618
-0.08993
-0.08993
-0.09117
-0.09617
-0.10741
-0.12115
-0.13114
-0.14113
-0.15113
-0.16112
-0.17111
-0.18110
-0.19234
-0.20483
-0.20608
-0.20983
-0.20983
-0.21108
-0.21607
-0.22481
-0.22606
-0.22981
-0.22357
-0.20858
-0.19734
-0.17735
-0.15612
-0.12864
-0.11241
-0.09242
-0.07244
-0.05246
-0.03372
-0.02498
-0.01998
-0.01374
-0.00500
0.00000
0.00500
0.00500
0.00500
0.00999
0.00999
0.01499
0.01499
0.01499
0.01998
0.01998
0.01374
0.00500
0.00500
0.00000
-0.00624
-0.01624
-0.03122
-0.03997
-0.04496
-0.04371
-0.03247
-0.01249
0.01249
0.03497
0.03997
0.03497
0.02998
0.02998
0.02498
0.02498
0.02498
0.02498
0.01998
0.01873
0.00874
-0.00999
-0.06120
-0.11990
-0.09867
0.08993
0.41716
0.70192
0.75563
0.53581
0.22481
0.01249
-0.06994
-0.07369
-0.05995
-0.05495
-0.05995
-0.05495
-0.05121
-0.05995
-0.05995
-0.05995
-0.06495
-0.06994
-0.06994
-0.06994
-0.07619
-0.08493
-0.08993
-0.09492
-0.10117
-0.11116
-0.11990
-0.12615
-0.13614
-0.14613
-0.16112
-0.16986
-0.17610
-0.18610
-0.19484
-0.20108
-0.20983
-0.21482
-0.21982
-0.21482
-0.20983
-0.20983
-0.20983
-0.20858
-0.19484
-0.18360
-0.16362
-0.14238
-0.11366
-0.09867
-0.07869
-0.05870
-0.04371
-0.02873
-0.01998
-0.01374
-0.00500
-0.00500
-0.00500
-0.00500
0.00000
0.00000
0.00500
0.00500
0.00500
0.00500
0.00500
0.00000
0.00000
0.00000
-0.00500
-0.00500
-0.00999
-0.01624
-0.03122
-0.04496
-0.04496
-0.04496
-0.03872
-0.02373
0.00125
0.02623
0.03997
0.04496
0.03997
0.03997
0.03997
0.02998
0.02498
0.02498
0.02498
0.02498
0.01873
0.00250
-0.03872
-0.10242
-0.13364
0.00125
0.31349
0.65946
0.82307
0.67819
0.35596
0.07869
-0.05121
-0.06994
-0.05870
-0.04496
-0.04496
-0.04496
-0.04996
-0.05495
-0.05995
-0.06994
-0.06994
-0.06994
-0.06994
-0.07494
-0.07993
-0.07993
-0.08493
-0.09492
-0.09992
-0.10991
-0.11491
-0.12615
-0.13988
-0.14988
-0.15487
-0.16486
-0.17486
-0.18485
-0.19109
-0.20483
-0.20983
-0.20983
-0.20983
-0.21482
-0.21982
-0.21982
-0.21482
-0.20983
-0.20483
-0.19484
-0.17860
-0.15487
-0.13364
-0.10366
-0.07993
-0.05995
-0.03997
-0.02998
-0.01998
-0.00500
0.00000
0.00500
0.00500
0.01499
0.01499
0.01499
0.01499
0.01499
0.01499
0.01499
0.01499
0.01998
0.01998
0.01998
0.01998
0.01998
0.01998
0.01998
0.01499
0.00999
0.00999
0.00000
-0.00999
-0.02498
-0.03497
-0.03497
-0.03497
-0.01499
0.01499
0.03997
0.04496
0.04496
0.04496
0.04496
0.03997
0.03497
0.02998
0.02498
0.01998
0.01998
0.01998
0.00999
-0.03622
-0.10491
-0.12365
0.03372
0.36345
0.70192
0.84305
0.66695
0.31724
0.03872
-0.06495
-0.07494
-0.05995
-0.05995
-0.05995
-0.04996
-0.04996
-0.05995
-0.05995
-0.05995
-0.05995
-0.06495
-0.06994
-0.06994
-0.07494
-0.08493
-0.08993
-0.08993
-0.09492
-0.09992
-0.10991
-0.11491
-0.12490
-0.13988
-0.15487
-0.16486
-0.17486
-0.17985
-0.18485
-0.18984
-0.19484
-0.19984
-0.20483
-0.20483
-0.20483
-0.20983
-0.20983
-0.19984
-0.18984
-0.18485
-0.16986
-0.15487
-0.12989
-0.10491
-0.07993
-0.05495
-0.03997
-0.02998
-0.01998
-0.01998
-0.00999
-0.00500
0.00500
0.00500
0.00500
0.00500
0.00500
0.00500
0.00999
0.01998
0.01499
0.00999
0.00999
0.01499
0.01998
0.01499
0.00500
0.00500
0.00999
0.00500
0.00000
-0.00500
-0.01499
-0.02498
-0.03997
-0.04496
-0.03997
-0.03497
-0.02998
-0.00125
0.03372
0.04496
0.03997
0.02998
0.02498
0.02498
0.01998
0.01998
0.01998
0.01998
0.01499
0.01499
0.00000
-0.03872
-0.10366
-0.12490
0.02998
0.34097
0.66071
0.80059
0.64572
0.31974
0.05371
-0.06120
-0.07494
-0.05995
-0.05495
-0.05495
-0.05495
-0.04996
-0.05995
-0.06495
-0.06994
-0.06994
-0.06994
-0.06994
-0.06994
-0.07494
-0.07993
-0.08493
-0.09492
-0.09492
-0.10491
-0.11491
-0.12989
-0.13489
-0.13988
-0.15487
-0.16486
-0.17486
-0.17985
-0.18485
-0.19984
-0.20483
-0.20483
-0.20983
-0.20983
-0.20983
-0.20983
-0.20983
-0.20983
-0.20483
-0.19109
-0.17610
-0.15612
-0.13114
-0.10616
-0.08118
-0.05620
-0.04122
-0.02623
-0.01499
-0.00500
-0.00500
0.00500
0.00999
0.01499
0.00999
0.00999
0.01499
0.00999
0.00500
0.00500
0.00500
0.01499
0.01998
0.01998
0.01998
0.01998
0.01998
0.01998
0.01499
0.00500
-0.00500
-0.01499
-0.02498
-0.02998
-0.02998
-0.02998
-0.02998
-0.01124
0.02248
0.04371
0.04996
0.04496
0.03997
0.03497
0.03997
0.03997
0.03997
0.03122
0.02498
0.02498
0.01998
-0.00749
-0.06994
-0.13489
-0.08368
0.17985
0.56204
0.85055
0.83806
0.54205
0.19484
-0.01124
-0.06620
-0.06120
-0.05121
-0.04496
-0.04496
-0.04496
-0.04496
-0.04996
-0.04996
-0.05870
-0.06495
-0.06994
-0.06994
-0.06994
-0.07494
-0.08368
-0.08493
-0.09367
-0.10366
-0.11366
-0.11990
-0.12864
-0.13864
-0.14863
-0.15862
-0.16861
-0.18360
-0.19859
-0.20483
-0.20483
-0.20983
-0.21857
-0.21982
-0.22481
-0.22981
-0.22981
-0.22481
-0.21607
-0.20983
-0.20108
-0.18235
-0.15737
-0.13239
-0.10741
-0.08243
-0.06120
-0.04621
-0.03122
-0.02123
-0.01124
-0.00500
0.00375
0.00500
0.00500
0.00500
0.00999
0.00999
0.01499
0.01998
0.01998
0.01499
0.00999
0.01499
0.01998
0.01998
0.01998
0.01998
0.01499
0.00624
0.00000
-0.00874
-0.02373
-0.02998
-0.02998
-0.02498
-0.02498
-0.01624
0.01249
0.03747
0.04496
0.03997
0.03122
0.02998
0.03872
0.03122
0.02498
0.01998
0.01998
0.01998
0.01499
-0.00749
-0.05495
-0.11366
-0.09742
0.09617
0.42715
0.72315
0.77311
0.54830
0.23606
0.02248
-0.05745
-0.06495
-0.05620
-0.04621
-0.04496
-0.04996
-0.04996
-0.04996
-0.05870
-0.05995
-0.06495
-0.06495
-0.06994
-0.07494
-0.07993
-0.07993
-0.08493
-0.08993
-0.09492
-0.09992
-0.11366
-0.12365
-0.13864
-0.14863
-0.15487
-0.16362
-0.17361
-0.18360
-0.18485
-0.19359
-0.19984
-0.20483
-0.20483
-0.20483
-0.20983
-0.20608
-0.20483
-0.20108
-0.19109
-0.18110
-0.15862
-0.14238
-0.11865
-0.09367
-0.06869
-0.04746
-0.03622
-0.02623
-0.01249
-0.00624
0.00375
0.00500
0.00500
0.00500
0.00500
0.00500
0.00500
0.00500
0.00500
0.00500
0.00500
0.00500
0.00500
0.00500
0.00874
0.01374
0.01499
0.00624
-0.00375
-0.00874
-0.01873
-0.02873
-0.03372
-0.03497
-0.03122
-0.02623
-0.00375
0.02123
0.04246
0.04496
0.04496
0.04122
0.03997
0.03122
0.02623
0.02498
0.02498
0.02498
0.02123
0.01124
-0.01499
-0.07993
-0.11990
-0.02248
0.26228
0.60700
0.81308
0.73439
0.43964
0.13988
-0.02748
-0.07119
-0.06245
-0.04746
-0.04496
-0.04496
-0.04871
-0.05371
-0.05870
-0.06370
-0.06495
-0.06495
-0.06869
-0.06994
-0.07369
-0.07869
-0.08368
-0.09367
-0.09492
-0.09867
-0.10866
-0.11865
-0.13239
-0.14738
-0.15362
-0.15862
-0.17236
-0.17860
-0.18859
-0.19859
-0.20358
-0.20483
-0.20858
-0.21357
-0.21857
-0.22357
-0.22107
-0.21607
-0.21108
-0.20108
-0.18735
-0.16362
-0.13864
-0.11366
-0.08868
-0.05995
-0.04246
-0.03122
-0.01749
-0.00624
-0.00125
0.00375
0.00500
0.00874
0.01873
0.01998
0.01998
0.01998
0.01998
0.01998
0.01998
0.01998
0.02373
0.02873
0.02998
0.02623
0.02123
0.01998
0.01998
0.01124
0.00125
-0.01249
-0.02373
-0.02498
-0.02498
-0.02873
-0.02123
0.00874
0.03997
0.05371
0.05121
0.04621
0.04122
0.03997
0.03247
0.02998
0.02623
0.02498
0.02123
0.01624
0.00250
-0.04496
-0.11990
-0.13489
0.05121
0.41466
0.76062
0.86928
0.65821
0.31349
0.05495
-0.05870
-0.07119
-0.05745
-0.04746
-0.04871
-0.04996
-0.04996
-0.05371
-0.05870
-0.06370
-0.06495
-0.06495
-0.06869
-0.06994
-0.07369
-0.07869
-0.08743
-0.09742
-0.10741
-0.10991
-0.11740
-0.12739
-0.14238
-0.15237
-0.15862
-0.17236
-0.17860
-0.18735
-0.20233
-0.20858
-0.20983
-0.20983
-0.20983
-0.20983
-0.20983
-0.20983
-0.20983
-0.20608
-0.20108
-0.18859
-0.17361
-0.14988
-0.12115
-0.09867
-0.07869
-0.05870
-0.04371
-0.03247
-0.02248
-0.01249
-0.00624
-0.00125
0.00375
0.00874
0.00999
0.01374
0.01873
0.01998
0.01998
0.01998
0.01998
0.01998
0.01998
0.01998
0.01998
0.01998
0.01249
0.00624
0.00125
-0.01124
-0.02623
-0.03747
-0.03622
-0.02748
-0.02498
-0.01749
0.00500
0.02998
0.04246
0.04496
0.04496
0.04122
0.03247
0.02998
0.02623
0.02498
0.02498
0.02123
0.01249
-0.00874
-0.05371
-0.10741
-0.08493
0.11366
0.43964
0.72066
0.77561
0.57078
0.26353
0.03247
-0.06120
-0.06744
-0.04996
-0.04496
-0.04871
-0.05371
-0.05121
-0.05745
-0.05995
-0.06370
-0.06120
-0.06370
-0.06869
-0.07369
-0.07869
-0.08368
-0.09242
-0.10242
-0.10866
-0.11366
-0.12240
-0.13614
-0.15113
-0.15862
-0.16362
-0.17236
-0.18235
-0.19234
-0.20233
-0.20858
-0.21357
-0.21857
-0.22357
-0.22481
-0.22856
-0.22606
-0.22481
-0.22107
-0.21232
-0.19859
-0.17610
-0.15862
-0.13614
-0.11116
-0.08243
-0.05995
-0.04371
-0.02873
-0.01374
-0.00624
-0.00500
-0.00500
-0.00500
-0.00500
-0.00500
-0.00500
-0.00125
0.00375
0.00125
0.00000
0.00375
0.00500
0.00500
0.00500
0.00874
0.00999
0.00624
-0.00250
-0.01249
-0.02248
-0.03622
-0.04371
-0.04122
-0.03622
-0.03497
-0.01998
0.00749
0.03372
0.04371
0.04496
0.04496
0.04496
0.03747
0.03122
0.02623
0.02498
0.02498
0.02123
0.01249
-0.01249
-0.06370
-0.11990
-0.06869
0.16736
0.51208
0.78560
0.79559
0.53831
0.21357
0.00500
-0.06495
-0.06370
-0.05246
-0.04621
-0.04871
-0.05371
-0.05495
-0.05495
-0.05870
-0.06370
-0.06495
-0.06869
-0.07369
-0.07869
-0.07993
-0.08368
-0.08868
-0.09367
-0.09867
-0.10741
-0.11740
-0.13114
-0.14238
-0.15237
-0.16237
-0.17610
-0.18360
-0.19234
-0.20233
-0.20858
-0.21732
-0.21982
-0.22357
-0.22856
-0.23356
-0.23106
-0.22606
-0.22481
-0.21732
-0.20108
-0.18110
-0.16112
-0.13739
-0.11241
-0.08368
-0.06120
-0.04496
-0.02998
-0.02123
-0.01249
-0.00624
-0.00500
-0.00125
0.00375
0.00125
0.00000
0.00375
0.00500
0.00500
0.00500
0.00874
0.01374
0.01124
0.00624
0.00874
0.00999
0.00624
0.00125
-0.00749
-0.01998
-0.03247
-0.03497
-0.03497
-0.03497
-0.02748
-0.00375
0.02623
0.04496
0.04996
0.04621
0.04122
0.03997
0.03247
0.02998
0.02998
0.03372
0.03872
0.02998
0.01124
-0.02248
-0.08368
-0.11865
-0.00375
0.29226
0.64572
0.82807
0.70817
0.39842
0.11116
-0.03872
-0.07369
-0.06495
-0.05371
-0.04996
-0.05371
-0.05121
-0.04996
-0.05371
-0.05870
-0.06744
-0.06994
-0.06620
-0.06869
-0.06994
-0.07369
-0.07869
-0.08743
-0.09992
-0.10866
-0.10991
-0.11740
-0.12989
-0.14488
-0.15737
-0.16736
-0.17361
-0.18235
-0.18859
-0.19734
-0.20733
-0.20983
-0.20983
-0.20983
-0.20983
-0.20983
-0.20608
-0.20108
-0.19984
-0.18984
-0.16861
-0.14613
-0.12989
-0.11116
-0.08868
-0.06370
-0.04496
-0.02998
-0.01873
-0.00874
-0.00125
0.00375
0.00500
0.00874
0.01374
0.01873
0.02373
0.02873
0.02998
0.02998
0.02998
0.02998
0.03372
0.03497
0.03497
0.03122
0.02623
0.01499
0.00000
-0.00874
-0.00999
-0.00624
-0.00500
-0.00500
0.00500
0.02998
0.05620
0.06869
0.06994
0.06370
0.05620
0.05495
0.05495
0.05121
0.04621
0.04496
0.04496
0.03872
0.01499
-0.03122
-0.08618
-0.07244
0.10491
0.41840
0.71316
0.79185
0.60575
0.30475
0.07119
-0.03122
-0.04621
-0.03872
-0.03122
-0.02998
-0.03372
-0.03497
-0.03497
-0.03497
-0.03872
-0.04371
-0.04871
-0.04996
-0.05371
-0.06120
-0.06869
-0.06620
-0.06869
-0.07619
-0.08993
-0.10117
-0.11491
-0.12615
-0.13364
-0.14113
-0.15113
-0.16112
-0.17486
-0.18360
-0.18485
-0.19109
-0.19859
-0.20358
-0.20483
-0.20858
-0.20983
-0.20983
-0.20358
-0.19109
-0.17860
-0.16237
-0.13864
-0.11366
-0.08868
-0.06370
-0.04246
-0.02498
-0.01374
-0.00375
0.00375
0.01124
0.01873
0.01624
0.01124
0.01374
0.01499
0.01499
0.01499
0.01873
0.02373
0.02498
0.02248
0.01998
0.01998
0.01749
0.01249
0.00749
-0.00125
-0.01374
-0.02623
-0.02998
-0.02748
-0.02248
-0.01998
-0.00500
0.02373
0.04371
0.05371
0.05495
0.05246
0.04996
0.04746
0.04246
0.03997
0.03997
0.03372
0.02998
0.02373
-0.00749
-0.07119
-0.12490
-0.05121
0.20983
0.57328
0.82682
0.80309
0.52831
0.20358
0.00000
-0.06370
-0.06120
-0.04871
-0.04746
-0.04996
-0.04996
-0.04996
-0.05246
-0.05495
-0.05495
-0.05745
-0.06620
-0.06994
-0.06994
-0.07244
-0.08118
-0.09117
-0.09492
-0.09742
-0.10866
-0.12115
-0.13114
-0.14113
-0.15113
-0.16112
-0.17111
-0.18110
-0.19109
-0.20108
-0.20483
-0.20858
-0.21607
-0.22357
-0.22856
-0.22731
-0.22232
-0.21982
-0.21732
-0.20858
-0.19359
-0.17610
-0.15487
-0.12739
-0.09742
-0.07369
-0.05371
-0.03622
-0.01873
-0.00749
-0.00250
0.00250
0.00749
0.00999
0.01249
0.01749
0.01998
0.01998
0.01998
0.01998
0.02248
0.02248
0.01998
0.01998
0.01998
0.01998
0.01749
0.00874
-0.00375
-0.01873
-0.03122
-0.03497
-0.02873
-0.02748
-0.02748
-0.00500
0.02498
0.04621
0.05246
0.04996
0.04996
0.04746
0.03872
0.03247
0.02998
0.02998
0.02998
0.02748
0.01374
-0.02373
-0.08493
-0.12365
-0.01249
0.29601
0.67819
0.90051
0.80808
0.48460
0.15487
-0.03247
-0.08618
-0.07869
-0.06370
-0.05995
-0.06245
-0.06744
-0.06994
-0.06994
-0.06994
-0.06994
-0.06994
-0.07244
-0.08118
-0.09117
-0.09742
-0.10616
-0.11241
-0.11740
-0.12240
-0.13114
-0.14113
-0.15113
-0.16112
-0.17361
-0.18610
-0.19609
-0.20608
-0.21607
-0.22856
-0.23730
-0.24230
-0.24730
-0.24979
-0.25229
-0.25229
-0.24730
-0.24230
-0.23730
-0.22981
-0.21357
-0.19109
-0.16611
-0.13614
-0.10366
-0.07869
-0.06120
-0.04996
-0.03622
-0.02498
-0.01749
-0.01249
-0.00749
-0.00250
0.00250
0.00500
0.00500
0.00749
0.00999
0.00749
0.00749
0.01499
0.01998
0.01499
0.00749
0.00500
0.00250
-0.00874
-0.02623
-0.03747
-0.03997
-0.04246
-0.04496
-0.03747
-0.00874
0.02623
0.04246
0.04496
0.04496
0.04246
0.03497
0.02998
0.02998
0.02998
0.02998
0.02998
0.02748
0.01749
-0.01124
-0.06495
-0.10866
-0.03997
0.21232
0.56204
0.82057
0.81433
0.54830
0.21732
0.00375
-0.07369
-0.07744
-0.06495
-0.05995
-0.05995
-0.06245
-0.06495
-0.06495
-0.06495
-0.06744
-0.06994
-0.06994
-0.07244
-0.07993
-0.08993
-0.09492
-0.09742
-0.10491
-0.11491
-0.12490
-0.13239
-0.14238
-0.15487
-0.16736
-0.17735
-0.18235
-0.18984
-0.19984
-0.20733
-0.21232
-0.21982
-0.22481
-0.22731
-0.22981
-0.22981
-0.22981
-0.22981
-0.22481
-0.21232
-0.19484
-0.17236
-0.14488
-0.11740
-0.09742
-0.07744
-0.05745
-0.04496
-0.03247
-0.02248
-0.01749
-0.00999
-0.00500
-0.00500
-0.00250
0.00250
0.00500
0.00500
0.00500
0.00749
0.00999
0.00749
0.00500
0.00749
0.00749
0.00000
-0.00999
-0.01998
-0.03247
-0.04246
-0.04496
-0.04246
-0.03747
-0.02498
0.00000
0.02748
0.04246
0.04246
0.03747
0.03747
0.03747
0.03247
0.02748
0.02498
0.02748
0.02748
0.01998
0.00250
-0.03497
-0.09742
-0.13239
-0.02373
0.27602
0.63573
0.83181
0.73439
0.42715
0.12615
-0.03497
-0.07494
-0.06495
-0.04996
-0.04996
-0.05745
-0.05995
-0.05995
-0.06245
-0.06744
-0.06994
-0.07244
-0.07494
-0.07744
-0.08243
-0.08493
-0.08993
-0.09742
-0.10491
-0.11241
-0.11990
-0.13239
-0.14738
-0.15737
-0.16736
-0.17985
-0.18984
-0.19734
-0.20483
-0.21482
-0.22232
-0.22731
-0.22981
-0.23231
-0.23481
-0.23481
-0.23481
-0.22981
-0.22232
-0.21232
-0.19359
-0.16861
-0.14363
-0.11615
-0.08618
-0.05995
-0.04246
-0.02748
-0.01499
-0.00749
-0.00250
0.00000
0.00250
0.00500
0.00500
0.00500
0.00749
0.00999
0.00749
0.00500
0.00749
0.01499
0.01749
0.00999
0.00500
0.00500
0.00000
-0.00999
-0.01998
-0.02998
-0.03497
-0.03747
-0.03997
-0.02623
0.00624
0.03247
0.04246
0.04496
0.04496
0.03997
0.03247
0.02998
0.03247
0.03247
0.02748
0.02248
0.01749
0.00375
-0.03747
-0.09742
-0.10242
0.05745
0.39093
0.73065
0.85554
0.67694
0.34097
0.06370
-0.05995
-0.07869
-0.06744
-0.06245
-0.05995
-0.05995
-0.06495
-0.06994
-0.07244
-0.07244
-0.07244
-0.07744
-0.08243
-0.08493
-0.08993
-0.09742
-0.10242
-0.10741
-0.11241
-0.11740
-0.12615
-0.13739
-0.14613
-0.15987
-0.17111
-0.18235
-0.18735
-0.19609
-0.20733
-0.21232
-0.21732
-0.22232
-0.22981
-0.23481
-0.23231
-0.22731
-0.22481
-0.22232
-0.21607
-0.20358
-0.18610
-0.16237
-0.13239
-0.10366
-0.08368
-0.06620
-0.04871
-0.03622
-0.02623
-0.01998
-0.01624
-0.00749
-0.00500
-0.00500
-0.00250
0.00250
0.00500
0.00500
0.00500
0.00874
0.01749
0.01998
0.01749
0.01124
0.00250
-0.00375
-0.01624
-0.02873
-0.03872
-0.04496
-0.04246
-0.03747
-0.02623
-0.00375
0.02123
0.03872
0.04496
0.04496
0.04496
0.04246
0.03747
0.03247
0.02998
0.02998
0.02748
0.02123
0.00500
-0.03122
-0.08993
-0.12989
-0.03997
0.24605
0.61574
0.84930
0.78186
0.47836
0.16112
-0.02248
-0.07494
-0.06869
-0.05620
-0.05371
-0.06245
-0.06744
-0.06744
-0.06245
-0.06370
-0.06994
-0.07244
-0.07244
-0.07369
-0.08243
-0.08743
-0.08993
-0.09367
-0.10366
-0.11241
-0.11865
-0.12864
-0.13864
-0.15113
-0.16237
-0.16861
-0.18110
-0.19359
-0.20233
-0.20733
-0.21357
-0.22232
-0.22731
-0.22981
-0.22981
-0.22856
-0.22357
-0.21607
-0.20983
-0.20858
-0.19484
-0.16861
-0.13864
-0.11241
-0.08993
-0.06744
-0.04871
-0.03747
-0.03122
-0.02123
-0.01124
-0.00500
-0.00500
-0.00250
0.00250
0.00250
-0.00250
-0.00250
0.00250
0.00500
0.00500
0.00500
0.00250
-0.00250
-0.00500
-0.00749
-0.01624
-0.03122
-0.04371
-0.05246
-0.05246
-0.04746
-0.04246
-0.02998
-0.00125
0.02373
0.02998
0.02998
0.02998
0.02998
0.02748
0.02248
0.01998
0.01749
0.01249
0.00749
0.00125
-0.01998
-0.06994
-0.12739
-0.11491
0.06620
0.39467
0.69568
0.76687
0.57827
0.27352
0.03497
-0.06620
-0.07993
-0.06869
-0.06495
-0.06495
-0.06495
-0.06495
-0.06744
-0.06994
-0.06994
-0.06994
-0.06994
-0.06994
-0.07244
-0.07869
-0.08868
-0.09742
-0.10242
-0.10741
-0.11366
-0.12240
-0.13114
-0.14363
-0.15362
-0.16362
-0.17236
-0.17860
-0.18859
-0.20108
-0.20983
-0.20983
-0.20983
-0.21232
-0.21732
-0.21857
-0.21357
-0.20983
-0.20983
-0.20483
-0.18735
-0.16736
-0.14613
-0.12115
-0.09617
-0.07244
-0.05495
-0.03997
-0.02498
-0.01124
-0.00500
-0.00500
-0.00375
0.00000
-0.00125
-0.00375
0.00000
0.00125
0.00500
0.00500
0.00500
0.00500
0.00500
0.00500
0.00125
-0.00624
-0.01374
-0.02373
-0.03372
-0.04122
-0.04621
-0.04996
-0.04871
-0.03997
-0.01749
0.01249
0.02998
0.04122
0.04371
0.03872
0.03622
0.03997
0.03872
0.03372
0.02873
0.02498
0.02373
0.01374
-0.01998
-0.08743
-0.13988
-0.06994
0.19984
0.58202
0.84056
0.79185
0.49584
0.16986
-0.02248
-0.07494
-0.06994
-0.05620
-0.04871
-0.04871
-0.05620
-0.05995
-0.05870
-0.05495
-0.05620
-0.06120
-0.06620
-0.07119
-0.07869
-0.08493
-0.08618
-0.09117
-0.09867
-0.10991
-0.12115
-0.12864
-0.13988
-0.15487
-0.16611
-0.17361
-0.18360
-0.19484
-0.20608
-0.20983
-0.21108
-0.21857
-0.22606
-0.22856
-0.22481
-0.22481
-0.22606
-0.22731
-0.21482
-0.19984
-0.18360
-0.16362
-0.13988
-0.11366
-0.09367
-0.07244
-0.04871
-0.03122
-0.02373
-0.01624
-0.00874
-0.00500
-0.00500
-0.00500
-0.00375
0.00125
0.00500
0.00500
0.00624
0.01124
0.01374
0.00999
0.01124
0.01374
0.00749
-0.00500
-0.01873
-0.02998
-0.04122
-0.04496
-0.04371
-0.03872
-0.03497
-0.02873
-0.00624
0.01998
0.02998
0.02998
0.02873
0.02623
0.02998
0.02873
0.02373
0.01998
0.01998
0.01873
0.01249
-0.00250
-0.03872
-0.09867
-0.12739
-0.02498
0.25979
0.59326
0.76562
0.66445
0.38343
0.11116
-0.03997
-0.07244
-0.05870
-0.04496
-0.04621
-0.05121
-0.05371
-0.05121
-0.05620
-0.06120
-0.06495
-0.06620
-0.07119
-0.07494
-0.07494
-0.07619
-0.08243
-0.09117
-0.09742
-0.10616
-0.11241
-0.12115
-0.12739
-0.13988
-0.15237
-0.16237
-0.17236
-0.18235
-0.19234
-0.20108
-0.20483
-0.20483
-0.20608
-0.20983
-0.20983
-0.20983
-0.20983
-0.20858
-0.20233
-0.19109
-0.17486
-0.15487
-0.13239
-0.10491
-0.07244
-0.05121
-0.03747
-0.02623
-0.01249
-0.00250
0.00624
0.01124
0.01499
0.01374
0.00874
0.00624
0.01124
0.01499
0.01499
0.01624
0.01998
0.01998
0.01998
0.01749
0.00874
0.00375
-0.00250
-0.01249
-0.02248
-0.03122
-0.03497
-0.03372
-0.02623
-0.00874
0.01749
0.04246
0.05121
0.05246
0.04496
0.04371
0.04122
0.04496
0.04246
0.03247
0.02498
0.02498
0.02248
0.00250
-0.04996
-0.11865
-0.12115
0.06495
0.41840
0.75438
0.83431
0.61200
0.27727
0.03747
-0.05745
-0.06245
-0.05246
-0.04496
-0.04496
-0.04496
-0.04496
-0.04496
-0.04621
-0.05121
-0.05620
-0.06120
-0.06495
-0.06620
-0.07119
-0.07619
-0.08118
-0.08618
-0.09117
-0.09742
-0.10616
-0.11241
-0.12490
-0.14238
-0.15237
-0.16112
-0.16861
-0.18235
-0.19109
-0.19609
-0.20108
-0.20608
-0.20983
-0.20858
-0.20608
-0.20983
-0.20858
-0.20108
-0.18735
-0.17610
-0.15987
-0.13739
-0.10866
-0.08618
-0.06869
-0.04496
-0.02498
-0.00874
-0.00500
-0.00250
0.00624
0.01124
0.01499
0.01624
0.01998
0.01998
0.01998
0.01998
0.01998
0.02123
0.02498
0.02373
0.02123
0.02373
0.01873
0.01249
0.00250
-0.00624
-0.01374
-0.02748
-0.03497
-0.03497
-0.03372
-0.02498
-0.00250
0.02498
0.04122
0.04496
0.04496
0.04496
0.04371
0.03747
0.02998
0.02998
0.02998
0.02873
0.02373
0.01499
-0.01249
-0.07244
-0.12739
-0.07494
0.16112
0.51458
0.76562
0.74688
0.48835
0.18485
-0.00624
-0.06495
-0.06245
-0.05371
-0.05121
-0.05495
-0.05371
-0.05121
-0.05620
-0.05995
-0.06120
-0.06620
-0.06994
-0.06994
-0.07119
-0.07744
-0.08743
-0.09617
-0.09992
-0.10242
-0.11241
-0.12240
-0.13114
-0.13739
-0.14863
-0.16237
-0.17236
-0.18235
-0.19234
-0.20108
-0.20608
-0.20983
-0.21108
-0.21607
-0.21982
-0.21857
-0.21357
-0.20983
-0.20733
-0.19734
-0.18110
-0.16112
-0.13864
-0.10991
-0.08493
-0.06245
-0.04621
-0.02748
-0.01249
-0.00250
0.00500
0.00624
0.01249
0.01873
0.01499
0.01499
0.01499
0.01374
0.00999
0.01124
0.01624
0.01998
0.01998
0.01998
0.01873
0.01374
0.00749
-0.00125
-0.00749
-0.01749
-0.02748
-0.03622
-0.03872
-0.03372
-0.02498
0.00125
0.02873
0.04746
0.05371
0.04371
0.03872
0.03497
0.03372
0.02873
0.02623
0.02998
0.02873
0.01873
0.00375
-0.03747
-0.10117
-0.13489
-0.01249
0.31349
0.68568
0.87053
0.74314
0.40342
0.09867
-0.04621
-0.07244
-0.05745
-0.04496
-0.04621
-0.05620
-0.06120
-0.06495
-0.06495
-0.06495
-0.06620
-0.06994
-0.07119
-0.07619
-0.08618
-0.09117
-0.09617
-0.10117
-0.11116
-0.11491
-0.11615
-0.12739
-0.14113
-0.15113
-0.16112
-0.17111
-0.18110
-0.19109
-0.20108
-0.20608
-0.21108
-0.21482
-0.21607
-0.21982
-0.22107
-0.22357
-0.21857
-0.20858
-0.20358
-0.19609
-0.17610
-0.15113
-0.12615
-0.10117
-0.07744
-0.06120
-0.04371
-0.03372
-0.02248
-0.00874
-0.00375
0.00125
0.00500
0.00500
0.00624
0.01124
0.01499
0.01624
0.01998
0.01998
0.01998
0.01873
0.01374
0.00874
0.00500
0.00375
-0.00125
-0.01249
-0.02623
-0.03622
-0.04496
-0.04371
-0.03872
-0.03247
-0.00999
0.02248
0.04122
0.04496
0.04371
0.03997
0.03872
0.03497
0.03372
0.02998
0.02998
0.02873
0.02373
0.01624
-0.01249
-0.06495
-0.12240
-0.07993
0.15362
0.50958
0.78186
0.78435
0.52207
0.20233
-0.00125
-0.06370
-0.05745
-0.04496
-0.04496
-0.04496
-0.04496
-0.04496
-0.04621
-0.05121
-0.05620
-0.06120
-0.06495
-0.06620
-0.07119
-0.08118
-0.08493
-0.08618
-0.09117
-0.10242
-0.11615
-0.12115
-0.13114
-0.14113
-0.15113
-0.16112
-0.16611
-0.17610
-0.18610
-0.19609
-0.20108
-0.21108
-0.21482
-0.21482
-0.21482
-0.21108
-0.21607
-0.21857
-0.20858
-0.19859
-0.18360
-0.16736
-0.14113
-0.11241
-0.08743
-0.06744
-0.04746
-0.02873
-0.01374
-0.00500
0.00000
0.00500
0.00500
0.00500
0.00624
0.01499
0.01998
0.01998
0.01998
0.01998
0.01998
0.01998
0.01998
0.01998
0.01998
0.01873
0.00999
0.00999
0.00375
-0.00749
-0.02623
-0.03497
-0.03372
-0.02498
-0.02248
-0.00125
0.02748
0.04996
0.05495
0.05495
0.05495
0.05495
0.04996
0.04496
0.03997
0.04371
0.03497
0.02998
0.02123
-0.01124
-0.07244
-0.12240
-0.02998
0.25854
0.60700
0.82432
0.74189
0.42590
0.11740
-0.03872
-0.06869
-0.05371
-0.03997
-0.04496
-0.04496
-0.04496
-0.04496
-0.04996
-0.05495
-0.05495
-0.05995
-0.06495
-0.06994
-0.07494
-0.07993
-0.08618
-0.09492
-0.09492
-0.10117
-0.11116
-0.12615
-0.13489
-0.14113
-0.15113
-0.16112
-0.17486
-0.17985
-0.18610
-0.19484
-0.19984
-0.20483
-0.20483
-0.20983
-0.20983
-0.20983
-0.20983
-0.20483
-0.19859
-0.18360
-0.16736
-0.14238
-0.11865
-0.09867
-0.07869
-0.05870
-0.04371
-0.03372
-0.02373
-0.01374
-0.00500
-0.00375
0.00500
0.00500
0.00500
0.00500
0.01124
0.01998
0.01998
0.01499
0.01499
0.01499
0.01499
0.00999
0.00500
0.00500
0.00000
-0.00624
-0.01624
-0.02623
-0.03497
-0.03997
-0.03872
-0.02873
-0.01374
0.01124
0.03622
0.04496
0.04496
0.03997
0.03997
0.04496
0.03872
0.02998
0.02498
0.02498
0.02498
0.01873
-0.00250
-0.04996
-0.11615
-0.12365
0.04746
0.38968
0.73439
0.84680
0.63697
0.29351
0.04371
-0.05620
-0.06370
-0.04996
-0.03997
-0.04496
-0.04621
-0.05495
-0.05495
-0.05495
-0.05995
-0.05995
-0.05995
-0.06120
-0.06994
-0.06994
-0.07494
-0.08118
-0.08993
-0.09492
-0.09992
-0.10616
-0.11615
-0.13114
-0.14613
-0.15612
-0.16611
-0.17985
-0.18610
-0.19609
-0.20483
-0.21108
-0.21982
-0.21982
-0.21982
-0.22481
-0.22481
-0.21982
-0.20983
-0.20983
-0.19359
-0.17361
-0.15362
-0.12365
-0.09867
-0.07369
-0.04871
-0.02873
-0.01499
-0.00500
0.00500
0.00999
0.01499
0.01499
0.01998
0.02498
0.01998
0.01998
0.01499
0.01998
0.01998
0.01998
0.01998
0.01998
0.01998
0.01998
0.01998
0.01499
0.00500
0.00000
-0.00500
-0.01499
-0.01998
-0.02498
-0.02498
-0.00874
0.02623
0.04996
0.05495
0.05495
0.04996
0.04996
0.04496
0.04496
0.04496
0.04496
0.04496
0.03997
0.03372
0.00874
-0.04246
-0.10991
-0.10366
0.10491
0.46836
0.78560
0.82307
0.57078
0.23356
0.01374
-0.05495
-0.04996
-0.03997
-0.03497
-0.03997
-0.04496
-0.04496
-0.04496
-0.04496
-0.04496
-0.04996
-0.05995
-0.05995
-0.06495
-0.06994
-0.06994
-0.07494
-0.07993
-0.08993
-0.10491
-0.11491
-0.11491
-0.12490
-0.13988
-0.14988
-0.15487
-0.16486
-0.17985
-0.18485
-0.18984
-0.19984
-0.19984
-0.19984
-0.19984
-0.19984
-0.19984
-0.19984
-0.18984
-0.17985
-0.16986
-0.15487
-0.12989
-0.10491
-0.08493
-0.06495
-0.03997
-0.02498
-0.00999
-0.00500
0.00000
0.00999
0.00500
0.00500
0.00500
0.00500
0.00999
0.00999
0.01499
0.01499
0.01998
0.01499
0.00999
0.01499
0.00999
0.00500
-0.00500
-0.00500
-0.01499
-0.02998
-0.03997
-0.04496
-0.03997
-0.03997
-0.03497
-0.00500
0.02498
0.04496
0.04496
0.04496
0.04496
0.03997
0.02998
0.02998
0.02998
0.02998
0.02998
0.02498
0.01499
-0.01998
-0.08868
-0.14988
-0.05121
0.25604
0.63073
0.84305
0.74688
0.42965
0.12365
-0.03747
-0.07494
-0.06495
-0.05995
-0.06495
-0.06994
-0.07494
-0.07494
-0.07494
-0.08493
-0.08493
-0.08493
-0.08993
-0.09492
-0.09992
-0.10491
-0.10991
-0.11990
-0.11990
-0.12989
-0.14488
-0.14988
-0.15987
-0.16486
-0.17985
-0.18984
-0.19984
-0.20983
-0.21982
-0.22481
-0.22981
-0.23481
-0.23980
-0.24979
-0.24979
-0.24480
-0.23980
-0.23481
-0.23481
-0.21982
-0.20483
-0.18110
-0.16112
-0.14113
-0.11116
-0.08618
-0.06620
-0.04996
-0.03997
-0.02998
-0.01998
-0.01998
-0.01499
-0.00500
-0.00500
-0.00500
-0.00500
0.00000
0.00000
-0.00500
-0.00500
0.00000
0.00500
0.00500
0.00500
-0.00500
-0.00999
-0.01499
-0.01998
-0.02998
-0.03997
-0.04996
-0.04996
-0.04996
-0.04496
-0.02623
0.00874
0.03372
0.04496
0.03497
0.02998
0.02998
0.02498
0.01998
0.01998
0.01998
0.01499
0.00500
-0.00500
-0.03372
-0.09242
-0.14738
