0.03031
0.03031
0.03031
0.03031
0.03113
0.03522
0.03522
0.03522
0.03522
0.03522
0.03522
0.03522
0.03359
0.03031
0.02867
0.02539
0.02539
0.02539
0.02539
0.02212
0.01474
0.01393
0.00737
-0.00164
-0.00491
-0.00819
-0.01638
-0.02130
-0.02621
-0.03031
-0.03113
-0.03522
-0.03604
-0.04014
-0.04014
-0.04014
-0.04014
-0.03850
-0.03522
-0.03522
-0.03522
-0.03522
-0.03359
-0.03031
-0.03031
-0.03031
-0.03113
-0.03522
-0.03522
-0.03522
-0.03522
-0.03604
-0.04014
-0.03850
-0.03522
-0.03522
-0.03522
-0.03604
-0.04014
-0.04178
-0.04505
-0.04505
-0.04505
-0.04669
-0.04997
-0.05161
-0.05488
-0.05488
-0.05652
-0.05980
-0.05980
-0.05980
-0.05980
-0.05980
-0.05980
-0.05980
-0.05898
-0.05488
-0.05652
-0.05980
-0.05980
-0.05898
-0.05488
-0.05488
-0.05488
-0.05488
-0.05488
-0.05488
-0.05488
-0.05488
-0.05652
-0.05980
-0.05898
-0.05406
-0.04587
-0.03195
-0.01966
-0.00082
0.01393
0.02867
0.04014
0.04014
0.04014
0.04014
0.04014
0.04014
0.04014
0.03768
0.02457
0.00573
-0.00983
-0.02785
-0.03850
-0.05161
-0.05734
-0.06717
-0.07536
-0.07618
-0.08028
-0.08028
-0.08028
-0.08028
-0.08028
-0.08028
-0.08028
-0.08028
-0.08028
-0.08028
-0.08028
-0.08028
-0.08028
-0.08028
-0.08028
-0.08028
-0.08028
-0.08028
-0.07864
-0.07290
-0.06389
-0.05980
-0.05898
-0.05488
-0.05488
-0.05488
-0.05488
-0.05243
-0.04096
-0.02294
0.00819
0.04751
0.10239
0.17448
0.26049
0.35797
0.41613
0.39565
0.27933
0.10567
-0.07946
-0.25803
-0.40630
-0.50788
-0.57587
-0.61273
-0.61273
-0.57095
-0.48494
-0.37927
-0.27360
-0.18841
-0.12287
-0.07782
-0.04997
-0.03359
-0.02785
-0.01802
-0.00983
-0.00901
-0.00491
-0.00491
-0.00491
-0.00491
-0.00491
-0.00491
-0.00491
-0.00491
-0.00491
-0.00491
-0.00491
-0.00491
-0.00491
-0.00491
-0.00491
-0.00491
-0.00491
-0.00491
-0.00491
-0.00491
-0.00410
0.00000
0.00082
0.00491
0.00491
0.00491
0.00491
0.00573
0.00983
0.01147
0.01474
0.01638
0.01966
0.01966
0.01966
0.01966
0.01966
0.01966
0.01884
0.01474
0.01474
0.01474
0.01393
0.00901
0.00491
0.00410
0.00000
0.00000
0.00000
0.00082
0.00573
0.00983
0.00983
0.00983
0.00983
0.00983
0.00983
0.01065
0.01474
0.01474
0.01474
0.01474
0.01638
0.02130
0.02376
0.01966
0.01966
0.01884
0.01474
0.01474
0.01474
0.01474
0.01474
0.01474
0.01474
0.01474
0.01474
0.01474
0.01474
0.01474
0.01638
0.01966
0.02130
0.02539
0.02376
0.01966
0.01966
0.01966
0.01884
0.01638
0.01966
0.01966
0.01966
0.01966
0.01966
0.01966
0.01966
0.02130
0.02621
0.02867
0.02539
0.02539
0.02376
0.02130
0.02539
0.02621
0.02867
0.02539
0.02376
0.01966
0.01966
0.01884
0.01556
0.01966
0.01966
0.01966
0.01884
0.01474
0.01393
0.00901
0.00328
-0.00491
-0.00573
-0.01147
-0.02130
-0.02621
-0.03113
-0.03604
-0.04096
-0.04505
-0.04505
-0.04505
-0.04587
-0.04997
-0.04997
-0.05079
-0.05488
-0.05488
-0.05488
-0.05488
-0.05488
-0.05488
-0.05488
-0.05488
-0.05570
-0.06062
-0.06471
-0.06389
-0.05980
-0.05980
-0.05980
-0.06062
-0.06471
-0.06471
-0.06471
-0.06471
-0.06471
-0.06389
-0.05980
-0.06062
-0.06553
-0.06963
-0.06963
-0.06963
-0.06963
-0.06963
-0.07045
-0.07536
-0.07536
-0.07536
-0.07618
-0.08028
-0.08028
-0.08028
-0.08110
-0.08519
-0.08437
-0.08028
-0.08028
-0.08028
-0.07946
-0.07536
-0.07536
-0.07536
-0.07536
-0.07454
-0.07045
-0.07618
-0.08028
-0.08028
-0.08028
-0.08028
-0.08028
-0.08028
-0.07946
-0.07372
-0.06307
-0.05243
-0.03768
-0.02212
-0.00164
0.01638
0.02539
0.03113
0.03440
0.03113
0.03604
0.04014
0.04014
0.03850
0.02785
0.01229
-0.00819
-0.02703
-0.04260
-0.05652
-0.06635
-0.07536
-0.08110
-0.09011
-0.09011
-0.09011
-0.09011
-0.09011
-0.09011
-0.09011
-0.09011
-0.09093
-0.09502
-0.09502
-0.09420
-0.09011
-0.08929
-0.08519
-0.08437
-0.08028
-0.08028
-0.08028
-0.08028
-0.08028
-0.08028
-0.08028
-0.08028
-0.08028
-0.08028
-0.08028
-0.07864
-0.06881
-0.05652
-0.03113
0.00000
0.03604
0.08355
0.15072
0.23755
0.33094
0.40630
0.40220
0.29162
0.10813
-0.09912
-0.28507
-0.43333
-0.53409
-0.60044
-0.64140
-0.64549
-0.60617
-0.53163
-0.42596
-0.31292
-0.21626
-0.14909
-0.10649
-0.07700
-0.05406
-0.04342
-0.03440
-0.02949
-0.02457
-0.01966
-0.01966
-0.01474
-0.01474
-0.01474
-0.01474
-0.01556
-0.01966
-0.02048
-0.02539
-0.02539
-0.02539
-0.02457
-0.01966
-0.02048
-0.02539
-0.02539
-0.02457
-0.01966
-0.01966
-0.01966
-0.01966
-0.01474
-0.01474
-0.01474
-0.01474
-0.00983
-0.00491
-0.00491
-0.00491
-0.00491
-0.00410
0.00082
0.00491
0.00491
0.00573
0.00983
0.00983
0.01065
0.01474
0.01474
0.01474
0.01474
0.01474
0.01474
0.01474
0.01065
0.01474
0.01474
0.01474
0.01474
0.01474
0.01474
0.01556
0.01966
0.01966
0.01966
0.01966
0.01966
0.02048
0.02539
0.03031
0.03031
0.03522
0.03522
0.03522
0.04014
0.04014
0.04014
0.04014
0.04014
0.04014
0.04014
0.04014
0.04014
0.04014
0.04014
0.04014
0.04014
0.04014
0.04014
0.04014
0.04014
0.04014
0.04014
0.04014
0.04014
0.04505
0.04505
0.04505
0.04505
0.04505
0.04505
0.04505
0.04423
0.04014
0.04014
0.04014
0.04014
0.04014
0.04014
0.04014
0.04423
0.04014
0.04014
0.04505
0.04423
0.04014
0.04014
0.04014
0.04014
0.04014
0.04014
0.04014
0.03932
0.03440
0.03031
0.02949
0.01966
0.01474
0.01393
0.00491
0.00000
-0.00491
-0.00573
-0.01065
-0.01556
-0.01966
-0.02048
-0.02457
-0.02048
-0.02539
-0.02539
-0.02539
-0.03031
-0.03031
-0.03031
-0.03031
-0.03031
-0.03031
-0.03031
-0.03031
-0.03031
-0.03031
-0.03522
-0.03522
-0.03522
-0.03522
-0.03522
-0.03522
-0.03440
-0.03031
-0.03522
-0.03522
-0.03522
-0.03522
-0.03522
-0.04014
-0.04014
-0.04014
-0.04014
-0.04014
-0.04014
-0.04505
-0.04505
-0.04997
-0.04997
-0.04997
-0.04997
-0.04997
-0.04997
-0.05488
-0.05488
-0.05488
-0.05488
-0.05488
-0.05488
-0.05488
-0.05488
-0.05980
-0.05488
-0.05488
-0.05980
-0.05980
-0.05980
-0.04915
-0.03440
-0.01966
-0.00410
0.01065
0.02048
0.03031
0.03031
0.03031
0.03031
0.03031
0.03522
0.03440
0.02457
0.00901
-0.00573
-0.01556
-0.03031
-0.04587
-0.06062
-0.07536
-0.08028
-0.08519
-0.09011
-0.09502
-0.09502
-0.09502
-0.09994
-0.09994
-0.09994
-0.09994
-0.09994
-0.09994
-0.09994
-0.09994
-0.09994
-0.09994
-0.09994
-0.09994
-0.09994
-0.09502
-0.09502
-0.09011
-0.09011
-0.09011
-0.09011
-0.09011
-0.09011
-0.09011
-0.08519
-0.08028
-0.07946
-0.06963
-0.04915
-0.01393
0.02621
0.08192
0.14663
0.22772
0.33176
0.41531
0.43333
0.34077
0.15564
-0.05406
-0.24820
-0.41203
-0.52672
-0.59553
-0.64058
-0.65942
-0.63403
-0.56358
-0.45791
-0.33831
-0.23919
-0.16383
-0.11468
-0.07946
-0.05980
-0.04997
-0.03522
-0.03031
-0.03031
-0.02539
-0.02457
-0.01966
-0.01474
-0.01474
-0.01966
-0.01966
-0.02457
-0.01966
-0.01966
-0.01966
-0.01474
-0.01474
-0.01474
-0.00983
-0.00983
-0.00983
-0.00983
-0.00983
-0.00983
-0.00983
-0.00983
-0.00983
-0.00491
-0.00491
-0.00491
-0.00491
-0.00491
0.00000
0.00000
0.00000
0.00491
0.00983
0.01474
0.01474
0.01474
0.01474
0.01474
0.01474
0.01474
0.01474
0.01474
0.01474
0.01474
0.01474
0.01474
0.01474
0.00983
0.01474
0.01474
0.01474
0.00983
0.00983
0.00983
0.00491
0.00491
0.00491
0.00491
0.00491
0.00491
0.00983
0.00983
0.01474
0.01474
0.01474
0.01474
0.01474
0.01474
0.01474
0.01474
0.01474
0.01474
0.01474
0.01474
0.01474
0.01966
0.01966
0.01474
0.01474
0.01966
0.01966
0.01966
0.02457
0.02539
0.02539
0.02539
0.02539
0.02539
0.02539
0.02048
0.01966
0.01966
0.01966
0.01474
0.01474
0.01474
0.01474
0.01474
0.01474
0.01474
0.01474
0.01966
0.01966
0.01966
0.01966
0.01966
0.01966
0.01966
0.01966
0.01556
0.01474
0.01474
0.01474
0.01474
0.01474
0.01474
0.01474
0.00983
0.00491
-0.00491
-0.00491
-0.01474
-0.01966
-0.02457
-0.02949
-0.03031
-0.03440
-0.04423
-0.04997
-0.04997
-0.05488
-0.05488
-0.05488
-0.05488
-0.05488
-0.05488
-0.05488
-0.05488
-0.05488
-0.05488
-0.04997
-0.04997
-0.04997
-0.04997
-0.04997
-0.04997
-0.04997
-0.04997
-0.04997
-0.04997
-0.04505
-0.04014
-0.04014
-0.04014
-0.04014
-0.04505
-0.04997
-0.04997
-0.04997
-0.04997
-0.04997
-0.04997
-0.04997
-0.04997
-0.04505
-0.04505
-0.04505
-0.04997
-0.04997
-0.04997
-0.04997
-0.05488
-0.05488
-0.04997
-0.04997
-0.04505
-0.04014
-0.03522
-0.03522
-0.03522
-0.03522
-0.03522
-0.03522
-0.03522
-0.03031
-0.03031
-0.01556
-0.00082
0.01884
0.03440
0.04423
0.05898
0.06963
0.07454
0.07045
0.06963
0.06553
0.06963
0.06963
0.06553
0.04669
0.03113
0.01638
0.00082
-0.00901
-0.02376
-0.03440
-0.04423
-0.04997
-0.05488
-0.05488
-0.05980
-0.05980
-0.06471
-0.06471
-0.06471
-0.06471
-0.06471
-0.06471
-0.06963
-0.07454
-0.07946
-0.08028
-0.08028
-0.07536
-0.07536
-0.07536
-0.07045
-0.06963
-0.06963
-0.06963
-0.06963
-0.06553
-0.06471
-0.06963
-0.06963
-0.06553
-0.05570
-0.05079
-0.02703
0.00737
0.04669
0.10076
0.16465
0.24738
0.33749
0.40876
0.41531
0.32357
0.15072
-0.05243
-0.24329
-0.40139
-0.51525
-0.58897
-0.63566
-0.63976
-0.61273
-0.54638
-0.44480
-0.33012
-0.22936
-0.15646
-0.10485
-0.07290
-0.05161
-0.03604
-0.03031
-0.02539
-0.02539
-0.02048
-0.01966
-0.01966
-0.01556
-0.01474
-0.01474
-0.01966
-0.01966
-0.01966
-0.01966
-0.01966
-0.01966
-0.01966
-0.01966
-0.01966
-0.01556
-0.01474
-0.01474
-0.01474
-0.01065
-0.00983
-0.00983
-0.00983
-0.00573
-0.00491
-0.00491
-0.00082
0.00000
0.00000
0.00000
0.00000
0.00000
0.00410
0.00983
0.00983
0.01474
0.01474
0.01474
0.01065
0.00983
0.01474
0.01474
0.01474
0.01474
0.01474
0.01065
0.01474
0.01474
0.01474
0.01065
0.00983
0.00983
0.00983
0.00983
0.00983
0.01474
0.01474
0.01474
0.01474
0.01065
0.00983
0.00983
0.00983
0.01474
0.01474
0.01474
0.01474
0.01474
0.01474
0.01474
0.01474
0.01474
0.01474
0.01474
0.01474
0.01474
0.01474
0.01966
0.01966
0.01966
0.02457
0.02539
0.02539
0.02539
0.02048
0.01556
0.01474
0.01474
0.01474
0.01474
0.01474
0.01474
0.01474
0.01474
0.01474
0.01474
0.01966
0.01966
0.01966
0.02457
0.02048
0.01966
0.01966
0.01966
0.01966
0.02457
0.02539
0.02539
0.02539
0.02539
0.02539
0.02048
0.01966
0.02457
0.02539
0.02539
0.02048
0.01556
0.01474
0.00655
-0.00328
-0.00491
-0.00901
-0.01393
-0.02376
-0.02949
-0.03031
-0.03440
-0.03522
-0.03932
-0.04014
-0.04014
-0.04423
-0.04915
-0.04997
-0.04997
-0.04997
-0.05406
-0.05488
-0.05488
-0.05488
-0.05488
-0.05488
-0.05488
-0.05488
-0.05488
-0.05488
-0.05488
-0.05488
-0.05488
-0.05488
-0.05488
-0.05898
-0.05980
-0.06389
-0.06471
-0.06471
-0.06471
-0.06471
-0.06471
-0.06471
-0.06062
-0.05570
-0.05488
-0.05488
-0.05488
-0.05488
-0.05488
-0.05898
-0.06389
-0.06471
-0.06881
-0.06963
-0.06963
-0.06963
-0.06963
-0.06963
-0.06963
-0.06963
-0.06963
-0.06963
-0.06963
-0.06553
-0.06471
-0.05652
-0.04669
-0.03277
-0.02130
-0.00737
0.01147
0.01884
0.02867
0.03031
0.03031
0.03031
0.03440
0.03522
0.03522
0.02703
0.00819
-0.00737
-0.02621
-0.04260
-0.05325
-0.06307
-0.07290
-0.07946
-0.08437
-0.08519
-0.08929
-0.09011
-0.09011
-0.09011
-0.09420
-0.09502
-0.09502
-0.09093
-0.09011
-0.09011
-0.09011
-0.09011
-0.09011
-0.09420
-0.09502
-0.09093
-0.08601
-0.08519
-0.08110
-0.08028
-0.08028
-0.08028
-0.08028
-0.08028
-0.08028
-0.07618
-0.07536
-0.07127
-0.06226
-0.04014
-0.01065
0.03113
0.07618
0.14581
0.23264
0.33503
0.40302
0.39483
0.30145
0.14335
-0.05079
-0.23919
-0.39975
-0.51443
-0.58733
-0.63239
-0.63976
-0.60372
-0.52672
-0.43006
-0.32602
-0.23264
-0.15892
-0.10895
-0.07618
-0.05406
-0.03768
-0.03113
-0.02621
-0.02130
-0.01638
-0.01474
-0.01474
-0.01065
-0.00573
-0.00901
-0.01393
-0.01065
-0.00983
-0.00983
-0.00573
-0.00491
-0.00491
-0.00491
-0.00491
-0.00491
-0.00491
-0.00491
-0.00491
-0.00491
-0.00491
-0.00491
-0.00491
-0.00491
-0.00082
0.00410
0.00901
0.01393
0.01474
0.01884
0.02376
0.02539
0.02539
0.02539
0.02539
0.02539
0.02539
0.02539
0.02539
0.02539
0.02867
0.03031
0.03359
0.03850
0.04014
0.04014
0.04014
0.04014
0.04014
0.04014
0.03604
0.03522
0.03113
0.03031
0.02621
0.02539
0.02867
0.03031
0.03359
0.03850
0.04014
0.04014
0.04014
0.04014
0.04014
0.04014
0.04014
0.04014
0.03604
0.03522
0.03522
0.03522
0.03522
0.03522
0.03522
0.03850
0.04014
0.04014
0.04423
0.04505
0.04505
0.04096
0.04014
0.04014
0.04014
0.04014
0.04014
0.03604
0.03522
0.03850
0.04014
0.04014
0.03604
0.03522
0.03522
0.03522
0.03522
0.03850
0.04014
0.04014
0.04014
0.04014
0.04014
0.04014
0.04014
0.04014
0.04014
0.04014
0.04014
0.04014
0.04014
0.04014
0.04014
0.04014
0.03604
0.03850
0.03604
0.03113
0.02212
0.01638
0.01147
0.00655
0.00164
-0.00410
-0.00491
-0.01229
-0.01884
-0.01966
-0.02376
-0.02867
-0.03031
-0.03031
-0.03031
-0.03031
-0.03031
-0.03359
-0.03522
-0.03522
-0.03522
-0.03522
-0.03522
-0.03522
-0.03113
-0.03031
-0.03031
-0.03031
-0.03031
-0.03031
-0.03031
-0.03031
-0.03031
-0.03359
-0.03522
-0.03850
-0.04014
-0.04342
-0.04505
-0.04833
-0.04997
-0.04997
-0.04669
-0.04505
-0.04833
-0.04997
-0.05406
-0.05488
-0.05488
-0.05488
-0.05488
-0.05488
-0.05488
-0.05898
-0.06389
-0.06471
-0.06471
-0.06471
-0.06144
-0.05980
-0.05652
-0.05488
-0.04751
-0.03440
-0.02294
-0.00901
0.00246
0.01229
0.02212
0.02867
0.03031
0.02621
0.02867
0.03359
0.03850
0.04014
0.02949
0.01065
-0.00573
-0.02457
-0.04096
-0.05243
-0.06553
-0.07700
-0.08028
-0.08355
-0.08847
-0.09011
-0.09338
-0.09502
-0.09175
-0.09011
-0.09011
-0.09011
-0.09338
-0.09830
-0.09994
-0.09994
-0.09994
-0.09994
-0.09994
-0.09994
-0.09666
-0.09502
-0.09502
-0.09175
-0.09011
-0.09011
-0.08683
-0.08519
-0.08519
-0.08519
-0.08110
-0.08028
-0.08028
-0.07290
-0.05570
-0.02867
0.00819
0.05898
0.12451
0.20151
0.29162
0.37599
0.41777
0.37272
0.23428
0.04178
-0.15974
-0.33831
-0.47347
-0.56194
-0.62010
-0.64877
-0.64140
-0.58979
-0.50378
-0.39483
-0.28670
-0.19905
-0.14008
-0.09748
-0.06799
-0.05325
-0.03932
-0.03195
-0.03031
-0.02621
-0.02539
-0.02539
-0.02130
-0.01966
-0.01966
-0.01966
-0.01966
-0.02376
-0.02539
-0.02539
-0.02539
-0.02130
-0.01966
-0.01966
-0.01966
-0.01966
-0.01966
-0.01966
-0.01638
-0.01474
-0.01474
-0.01474
-0.01474
-0.01147
-0.00655
-0.00491
-0.00164
0.00000
0.00000
0.00328
0.00491
0.00491
0.00819
0.01311
0.01474
0.01147
0.00983
0.01311
0.01474
0.01147
0.00983
0.00983
0.00983
0.00655
0.00491
0.00491
0.00491
0.00491
0.00491
0.00491
0.00491
0.00491
0.00491
0.00491
0.00491
0.00491
0.00491
0.00491
0.00819
0.01311
0.01474
0.01474
0.01474
0.01474
0.01474
0.01474
0.01474
0.01474
0.01474
0.01474
0.01474
0.01474
0.01474
0.01802
0.01966
0.01966
0.02294
0.02539
0.02539
0.02539
0.02130
0.01966
0.02294
0.02539
0.02539
0.02539
0.02539
0.02539
0.02539
0.02212
0.01966
0.01966
0.01966
0.01966
0.02294
0.02539
0.02539
0.02212
0.01966
0.01966
0.01966
0.01966
0.01966
0.02294
0.02539
0.02539
0.02539
0.02539
0.02785
0.03031
0.03031
0.02703
0.02539
0.02212
0.01966
0.01966
0.01638
0.01147
0.00328
-0.00328
-0.00819
-0.01311
-0.01802
-0.02294
-0.02785
-0.03031
-0.03359
-0.03522
-0.03522
-0.03522
-0.03522
-0.03522
-0.03522
-0.03850
-0.04014
-0.04014
-0.04014
-0.04014
-0.04014
-0.04014
-0.04014
-0.04014
-0.03686
-0.03522
-0.03522
-0.03195
-0.03031
-0.03031
-0.03277
-0.03522
-0.03522
-0.03522
-0.03522
-0.03522
-0.03522
-0.03522
-0.03522
-0.03850
-0.04014
-0.03686
-0.03850
-0.04014
-0.04342
-0.04505
-0.04505
-0.04505
-0.04505
-0.04178
-0.04014
-0.04014
-0.04014
-0.04014
-0.04342
-0.04505
-0.04178
-0.03686
-0.03195
-0.01720
-0.00082
0.01147
0.02703
0.04096
0.05079
0.06144
0.06471
0.06471
0.06471
0.06471
0.06471
0.06226
0.04751
0.02785
0.01065
-0.00410
-0.01884
-0.03113
-0.04096
-0.04833
-0.05325
-0.05488
-0.05816
-0.05980
-0.06307
-0.06799
-0.06963
-0.06963
-0.06963
-0.06717
-0.06799
-0.07290
-0.07536
-0.07536
-0.07536
-0.07536
-0.07209
-0.06963
-0.06717
-0.06471
-0.06471
-0.06471
-0.06799
-0.06963
-0.06963
-0.06963
-0.06963
-0.06963
-0.06963
-0.06717
-0.06471
-0.05898
-0.04014
-0.01474
0.02212
0.06717
0.12123
0.18677
0.27196
0.35797
0.39319
0.34404
0.20888
0.02130
-0.17284
-0.34241
-0.47019
-0.55375
-0.60372
-0.63157
-0.62502
-0.57341
-0.48576
-0.38009
-0.27278
-0.18595
-0.12861
-0.09256
-0.06553
-0.04915
-0.03604
-0.03031
-0.02703
-0.02212
-0.01720
-0.01229
-0.00983
-0.00737
-0.00491
-0.00819
-0.01311
-0.01474
-0.01474
-0.01474
-0.01474
-0.01802
-0.01966
-0.01966
-0.01966
-0.01720
-0.01229
-0.00983
-0.00983
-0.00983
-0.00983
-0.00983
-0.00983
-0.00737
-0.00491
-0.00491
-0.00491
-0.00491
-0.00491
-0.00491
-0.00246
0.00000
0.00000
0.00246
0.00491
0.00491
0.00819
0.00983
0.01311
0.01229
0.00983
0.00737
0.00491
0.00491
0.00491
0.00246
-0.00246
-0.00491
-0.00246
0.00000
-0.00246
-0.00491
-0.00491
-0.00491
-0.00491
-0.00491
-0.00246
0.00000
0.00000
0.00000
0.00000
-0.00246
-0.00246
0.00000
0.00000
0.00000
0.00000
0.00246
0.00819
0.00983
0.01311
0.01474
0.01474
0.01474
0.01474
0.01474
0.01474
0.01474
0.01474
0.01474
0.01474
0.01474
0.01474
0.01474
0.01474
0.01474
0.01474
0.01474
0.01474
0.01474
0.01474
0.01474
0.01474
0.01474
0.01474
0.01474
0.01474
0.01474
0.01474
0.01474
0.01474
0.01474
0.01474
0.01802
0.01966
0.01966
0.01966
0.02294
0.02539
0.02212
0.01966
0.01966
0.01720
0.01474
0.01474
0.01474
0.01229
0.00737
0.00246
-0.00246
-0.00737
-0.01229
-0.01802
-0.02294
-0.02785
-0.03031
-0.03522
-0.04260
-0.04505
-0.04751
-0.04751
-0.04505
-0.04505
-0.04505
-0.04505
-0.04260
-0.04014
-0.04014
-0.04014
-0.04014
-0.04014
-0.04260
-0.04505
-0.04505
-0.04505
-0.04505
-0.04751
-0.04751
-0.04751
-0.05243
-0.05488
-0.05488
-0.05488
-0.05488
-0.05488
-0.05488
-0.05488
-0.05488
-0.05488
-0.05488
-0.05488
-0.05734
-0.05980
-0.05980
-0.06226
-0.06471
-0.06471
-0.06226
-0.05980
-0.05980
-0.05980
-0.05980
-0.05980
-0.05980
-0.05980
-0.05980
-0.05980
-0.05980
-0.05980
-0.05980
-0.05734
-0.05243
-0.04260
-0.02949
-0.01474
0.00246
0.01802
0.03031
0.03768
0.04014
0.04014
0.04014
0.04014
0.04014
0.03768
0.02457
0.00491
-0.01229
-0.02785
-0.04260
-0.05488
-0.06471
-0.07536
-0.08028
-0.08028
-0.08273
-0.08519
-0.08765
-0.09011
-0.09011
-0.09011
-0.09011
-0.09011
-0.09011
-0.09011
-0.09011
-0.09256
-0.09256
-0.09256
-0.09502
-0.09256
-0.09011
-0.08765
-0.08519
-0.08519
-0.08273
-0.08028
-0.08028
-0.08028
-0.08028
-0.08028
-0.07782
-0.07536
-0.07290
-0.06471
-0.04751
-0.02048
0.01474
0.05980
0.12205
0.20643
0.30391
0.38173
0.40057
0.33667
0.19250
0.00246
-0.18759
-0.35306
-0.47839
-0.56194
-0.60945
-0.62256
-0.59798
-0.54146
-0.45873
-0.35961
-0.25885
-0.17858
-0.12369
-0.09011
-0.07045
-0.05488
-0.04260
-0.03277
-0.02785
-0.02294
-0.01966
-0.01966
-0.01966
-0.01966
-0.01966
-0.02212
-0.02539
-0.02539
-0.02539
-0.02539
-0.02703
-0.03031
-0.03031
-0.03031
-0.03031
-0.03031
-0.03031
-0.03031
-0.02785
-0.02539
-0.02539
-0.02539
-0.02294
-0.01966
-0.01802
-0.01474
-0.01229
-0.00983
-0.00737
-0.00491
-0.00491
-0.00491
-0.00491
-0.00491
-0.00491
-0.00491
-0.00246
0.00246
0.00737
0.00737
0.00491
0.00246
0.00000
0.00000
0.00000
0.00000
0.00000
0.00000
0.00000
0.00246
0.00491
0.00737
0.00983
0.00983
0.01229
0.01474
0.01474
0.01474
0.01474
0.01474
0.01474
0.01474
0.01474
0.01474
0.01474
0.01474
0.01720
0.01966
0.01966
0.01966
0.02212
0.02539
0.02703
0.03031
0.03195
0.03522
0.03277
0.02785
0.02539
0.02539
0.02294
0.01966
0.01966
0.01966
0.02212
0.02539
0.02539
0.02539
0.02703
0.03031
0.03031
0.02785
0.02294
0.01966
0.01966
0.02212
0.02539
0.02703
0.03031
0.02785
0.02539
0.02539
0.02294
0.01966
0.01966
0.01966
0.02212
0.02539
0.02294
0.01802
0.01474
0.01474
0.01474
0.01474
0.01474
0.01311
0.00819
0.00246
0.00000
-0.00246
-0.00491
-0.00737
-0.01229
-0.01474
-0.01720
-0.02212
-0.02703
-0.03031
-0.03031
-0.03195
-0.03522
-0.03522
-0.03522
-0.03522
-0.03522
-0.03686
-0.04014
-0.04014
-0.04014
-0.04014
-0.04014
-0.04014
-0.04014
-0.04014
-0.04014
-0.04014
-0.03768
-0.03522
-0.03277
-0.03031
-0.03195
-0.03686
-0.04014
-0.04014
-0.04014
-0.04014
-0.04178
-0.04669
-0.04997
-0.04997
-0.05243
-0.05488
-0.05488
-0.05325
-0.04997
-0.04997
-0.04833
-0.04669
-0.05243
-0.05488
-0.05488
-0.05488
-0.05488
-0.05488
-0.05488
-0.05488
-0.04915
-0.03604
-0.02376
-0.00901
0.00819
0.02621
0.03686
0.03768
0.03522
0.03522
0.03686
0.04014
0.04014
0.03359
0.01720
-0.00082
-0.01802
-0.03440
-0.04587
-0.05734
-0.06389
-0.07372
-0.08028
-0.08192
-0.08519
-0.08683
-0.09011
-0.09011
-0.09011
-0.09011
-0.09011
-0.09011
-0.09011
-0.09011
-0.09011
-0.09175
-0.09502
-0.09502
-0.09338
-0.09011
-0.09011
-0.08765
-0.08519
-0.08519
-0.08519
-0.08519
-0.08519
-0.08519
-0.08519
-0.08273
-0.08028
-0.08028
-0.07782
-0.06881
-0.04833
-0.01802
0.01720
0.07045
0.13926
0.22199
0.31456
0.38500
0.39238
0.31128
0.14991
-0.04669
-0.23674
-0.39647
-0.51443
-0.59307
-0.64140
-0.65205
-0.62092
-0.55784
-0.46692
-0.36125
-0.25803
-0.18267
-0.13025
-0.09584
-0.07209
-0.05816
-0.05325
-0.04833
-0.04342
-0.04014
-0.03850
-0.03522
-0.03522
-0.03522
-0.03522
-0.03522
-0.03522
-0.03522
-0.03522
-0.03522
-0.03686
-0.04014
-0.04014
-0.04014
-0.03850
-0.03277
-0.03031
-0.03031
-0.03031
-0.03031
-0.03031
-0.02785
-0.02539
-0.02539
-0.02539
-0.02539
-0.02294
-0.01966
-0.01966
-0.01966
-0.01802
-0.01474
-0.01311
-0.00983
-0.00819
-0.00491
-0.00491
-0.00491
-0.00491
-0.00491
-0.00491
-0.00491
-0.00491
-0.00491
-0.00491
-0.00491
-0.00655
-0.00983
-0.00983
-0.00983
-0.00983
-0.00983
-0.00983
-0.00983
-0.00983
-0.00983
-0.00983
-0.00983
-0.00819
-0.00491
-0.00491
-0.00491
-0.00491
-0.00491
-0.00491
-0.00491
-0.00491
-0.00491
-0.00491
-0.00328
0.00000
0.00000
0.00000
0.00000
0.00000
0.00000
0.00000
0.00000
0.00000
0.00000
0.00164
0.00491
0.00491
0.00491
0.00491
0.00328
0.00000
0.00000
0.00000
0.00000
0.00000
0.00164
0.00491
0.00328
0.00000
0.00000
-0.00164
-0.00491
-0.00328
0.00000
0.00000
0.00000
0.00000
0.00000
0.00000
0.00000
0.00000
0.00000
0.00000
0.00000
-0.00164
-0.00491
-0.00491
-0.00491
-0.00655
-0.00983
-0.01147
-0.01474
-0.01638
-0.02294
-0.03031
-0.03359
-0.04178
-0.04669
-0.05161
-0.05488
-0.05652
-0.06144
-0.06635
-0.06963
-0.06963
-0.06963
-0.06963
-0.06799
-0.06471
-0.06471
-0.06471
-0.06307
-0.05816
-0.05488
-0.05488
-0.05488
-0.05488
-0.05488
-0.05652
-0.05980
-0.05980
-0.05980
-0.05980
-0.05980
-0.06144
-0.06471
-0.06471
-0.06635
-0.06963
-0.07127
-0.07618
-0.08028
-0.08028
-0.08028
-0.08028
-0.08028
-0.08028
-0.08028
-0.08028
-0.08028
-0.08028
-0.08028
-0.08028
-0.08192
-0.08519
-0.08519
-0.08519
-0.08683
-0.09011
-0.08847
-0.08519
-0.08355
-0.07700
-0.06553
-0.05079
-0.03686
-0.02376
-0.00573
0.00819
0.01638
0.01966
0.01966
0.01966
0.01966
0.02130
0.02212
0.01065
-0.00410
-0.01966
-0.03604
-0.05325
-0.06307
-0.07290
-0.08273
-0.09011
-0.09011
-0.09011
-0.09011
-0.09011
-0.09175
-0.09502
-0.09666
-0.09994
-0.09994
-0.09994
-0.09994
-0.09994
-0.09994
-0.09994
-0.09994
-0.09994
-0.09994
-0.09994
-0.09830
-0.09502
-0.09338
-0.09011
-0.09175
-0.09338
-0.09011
-0.09011
-0.09011
-0.08847
-0.08519
-0.08355
-0.08028
-0.07454
-0.05161
-0.02048
0.01802
0.06717
0.12943
0.20479
0.29490
0.36698
0.36698
0.27687
0.11059
-0.08273
-0.26541
-0.41777
-0.52590
-0.59389
-0.63566
-0.64467
-0.61191
-0.53900
-0.43825
-0.32602
-0.22936
-0.16137
-0.11714
-0.08929
-0.07127
-0.05898
-0.05325
-0.04751
-0.04014
-0.03850
-0.03522
-0.03359
-0.03031
-0.03031
-0.03031
-0.03031
-0.03113
-0.03522
-0.03522
-0.03604
-0.03850
-0.03522
-0.03522
-0.03522
-0.03604
-0.04014
-0.04014
-0.03850
-0.03359
-0.03031
-0.03031
-0.02867
-0.02539
-0.02539
-0.02376
-0.01966
-0.01884
-0.01474
-0.01393
-0.00983
-0.00983
-0.00901
-0.00491
-0.00491
-0.00491
-0.00491
-0.00491
-0.00491
-0.00491
-0.00491
-0.00491
-0.00491
-0.00491
-0.00491
-0.00491
-0.00491
-0.00655
-0.00983
-0.01147
-0.01638
-0.01966
-0.01884
-0.01393
-0.00983
-0.00983
-0.00983
-0.00983
-0.01147
-0.01474
-0.01474
-0.01474
-0.01474
-0.01474
-0.01474
-0.01474
-0.01393
-0.00901
-0.00491
-0.00491
-0.00491
-0.00491
-0.00491
-0.00491
-0.00491
-0.00491
-0.00491
-0.00410
-0.00082
-0.00491
-0.00491
-0.00491
-0.00491
-0.00491
-0.00410
0.00000
0.00082
0.00491
0.00491
0.00491
0.00410
0.00000
0.00000
0.00000
0.00082
0.00410
0.00000
0.00000
0.00000
0.00000
0.00000
-0.00082
-0.00410
0.00000
0.00082
0.00573
0.01147
0.01474
0.01393
0.00983
0.00983
0.00901
0.00410
0.00000
-0.00082
-0.00491
-0.00737
-0.01638
-0.02130
-0.02621
-0.03031
-0.03113
-0.03522
-0.03604
-0.04096
-0.04751
-0.05488
-0.05570
-0.05980
-0.05980
-0.05980
-0.06144
-0.06471
-0.06471
-0.06471
-0.06471
-0.06471
-0.06471
-0.06471
-0.06471
-0.06471
-0.06389
-0.05980
-0.06144
-0.06471
-0.06471
-0.06471
-0.06471
-0.06635
-0.06963
-0.06963
-0.07127
-0.07536
-0.07618
-0.08028
-0.08028
-0.08028
-0.08028
-0.08028
-0.08028
-0.08028
-0.08028
-0.08028
-0.08028
-0.08028
-0.08110
-0.08519
-0.08601
-0.09011
-0.08929
-0.08519
-0.08601
-0.09011
-0.08929
-0.08519
-0.08519
-0.08519
-0.08601
-0.09011
-0.09011
-0.09011
-0.09011
-0.09011
-0.09011
-0.09093
-0.09420
-0.08929
-0.08437
-0.07700
-0.06226
-0.04751
-0.03195
-0.01720
-0.00328
0.00491
0.00491
0.00491
0.00491
0.00573
0.00983
0.00819
-0.00246
-0.01802
-0.03359
-0.05161
-0.06307
-0.07700
-0.08683
-0.09584
-0.09994
-0.09994
-0.10076
-0.10485
-0.10567
-0.11059
-0.11468
-0.11468
-0.11632
-0.11960
-0.11878
-0.11468
-0.11468
-0.11386
-0.10977
-0.10895
-0.10485
-0.10485
-0.10485
-0.10485
-0.10485
-0.10403
-0.09994
-0.09994
-0.09994
-0.09994
-0.10076
-0.10403
-0.09994
-0.09912
-0.09420
-0.08765
-0.06963
-0.03850
0.00246
0.04833
0.10158
0.17612
0.27032
0.35060
0.37108
0.30063
0.14745
-0.04751
-0.23837
-0.39975
-0.51361
-0.58815
-0.63403
-0.65287
-0.63075
-0.57013
-0.47675
-0.36698
-0.26213
-0.18677
-0.13926
-0.10567
-0.08355
-0.07290
-0.05898
-0.05325
-0.04423
-0.04014
-0.03932
-0.03522
-0.03522
-0.03522
-0.03522
-0.03522
-0.03522
-0.03522
-0.03604
-0.04014
-0.04014
-0.04014
-0.04014
-0.04014
-0.04014
-0.04014
-0.04014
-0.04014
-0.04014
-0.04014
-0.03932
-0.03522
-0.03440
-0.03031
-0.03031
-0.02949
-0.02539
-0.02457
-0.01966
-0.01966
-0.01966
-0.01966
-0.01474
-0.01393
-0.00901
-0.00491
-0.00491
-0.00491
-0.00491
-0.00491
-0.00491
-0.00491
-0.00491
-0.00491
-0.00491
-0.00491
-0.00491
-0.00491
-0.00491
-0.00491
-0.00410
0.00000
0.00082
0.00491
0.00573
0.00983
0.00901
0.00491
0.00573
0.01065
0.01393
0.00983
0.00983
0.01065
0.01474
0.01474
0.01556
0.01966
0.01966
0.01966
0.02048
0.02539
0.02539
0.02539
0.02457
0.01966
0.01966
0.01966
0.01966
0.01966
0.01966
0.01966
0.01966
0.01966
0.01966
0.01966
0.01966
0.01966
0.01556
0.01966
0.02048
0.02539
0.02457
0.01966
0.02048
0.02457
0.01966
0.01966
0.01966
0.02048
0.02539
0.02539
0.02539
0.02457
0.01966
0.01966
0.01966
0.01966
0.01966
0.01474
0.01474
0.01474
0.01474
0.01474
0.01474
0.01474
0.00983
0.00410
-0.00082
-0.00491
-0.00573
-0.01065
-0.01638
-0.02539
-0.03031
-0.03031
-0.03522
-0.03522
-0.03522
-0.03522
-0.03522
-0.03522
-0.04014
-0.04505
-0.04587
-0.04997
-0.04915
-0.04505
-0.04505
-0.04505
-0.04587
-0.04915
-0.04587
-0.04997
-0.05079
-0.05488
-0.05488
-0.05488
-0.05488
-0.05488
-0.04997
-0.05079
-0.05488
-0.05488
-0.05488
-0.05488
-0.05488
-0.05570
-0.06062
-0.06471
-0.06471
-0.06553
-0.06963
-0.06963
-0.06963
-0.06471
-0.05980
-0.06062
-0.06471
-0.06471
-0.05980
-0.05488
-0.05570
-0.06062
-0.06553
-0.07045
-0.07536
-0.07536
-0.07536
-0.07536
-0.07536
-0.07536
-0.07372
-0.05898
-0.04833
-0.02949
-0.01802
0.00164
0.01638
0.03031
0.03031
0.02949
0.02539
0.03031
0.03522
0.03440
0.02867
0.01393
-0.00164
-0.02048
-0.03113
-0.04587
-0.05570
-0.06553
-0.07536
-0.08028
-0.08028
-0.08519
-0.08519
-0.09011
-0.09011
-0.09011
-0.09011
-0.09502
-0.09502
-0.09502
-0.09502
-0.09502
-0.09502
-0.09502
-0.09502
-0.09502
-0.09502
-0.09011
-0.08929
-0.08519
-0.08519
-0.09011
-0.09011
-0.09011
-0.09011
-0.09011
-0.09011
-0.08929
-0.08437
-0.08028
-0.07864
-0.05816
-0.02703
0.01311
0.05898
0.12042
0.20069
0.29571
0.37763
0.41203
0.35551
0.19742
-0.00246
-0.20069
-0.37272
-0.49968
-0.57259
-0.62174
-0.64467
-0.63648
-0.57505
-0.48904
-0.37927
-0.27524
-0.19168
-0.13762
-0.09912
-0.07946
-0.06471
-0.05488
-0.04915
-0.04014
-0.03440
-0.03031
-0.03031
-0.03031
-0.03031
-0.03031
-0.03031
-0.03031
-0.03031
-0.03522
-0.03522
-0.03522
-0.03440
-0.03031
-0.03031
-0.03031
-0.03031
-0.03031
-0.03031
-0.02949
-0.02539
-0.02539
-0.02539
-0.02457
-0.01966
-0.01966
-0.01474
-0.01474
-0.00983
-0.00491
-0.00491
-0.00491
-0.00491
-0.00491
0.00000
0.00000
0.00491
0.00491
0.00983
0.00983
0.00983
0.00983
0.00491
0.00491
0.00491
0.00491
0.00491
0.00491
0.00491
0.00000
0.00000
0.00000
0.00000
0.00000
-0.00491
-0.00491
0.00000
0.00000
0.00000
0.00000
0.00000
0.00000
0.00000
0.00000
0.00000
0.00491
0.00491
0.00491
0.00491
0.00491
0.00983
0.00983
0.01474
0.01474
0.01474
0.01474
0.00983
0.00983
0.00983
0.01474
0.01474
0.01474
0.01474
0.01474
0.01474
0.00983
0.00983
0.00983
0.00983
0.01474
0.01474
0.01474
0.01474
0.01474
0.01474
0.01474
0.01474
0.01474
0.01474
0.01474
0.01474
0.01474
0.01474
0.01474
0.01474
0.01474
0.01474
0.01474
0.01474
0.01474
0.01474
0.01474
0.01474
0.01474
0.01474
0.01474
0.00983
0.00491
0.00000
-0.00491
-0.00491
-0.00983
-0.01966
-0.02539
-0.03031
-0.03031
-0.03522
-0.04014
-0.04505
-0.04997
-0.04997
-0.04997
-0.04997
-0.04997
-0.04997
-0.04997
-0.04997
-0.04997
-0.04997
-0.04997
-0.04997
-0.04997
-0.04997
-0.04997
-0.04997
-0.04997
-0.04997
-0.04997
-0.04505
-0.04505
-0.04014
-0.04014
-0.04014
-0.04505
-0.04505
-0.04997
-0.04997
-0.04997
-0.05488
-0.05488
-0.05488
-0.05488
-0.05980
-0.05980
-0.05980
-0.05980
-0.06471
-0.06471
-0.06471
-0.06471
-0.06471
-0.06471
-0.06471
-0.06471
-0.05980
-0.05980
-0.05980
-0.05980
-0.05980
-0.05980
-0.05488
-0.05488
-0.05488
-0.05488
-0.04505
-0.03522
-0.01556
0.00000
0.01474
0.02949
0.04014
0.04505
0.04505
0.04014
0.04014
0.04505
0.04997
0.05488
0.04014
0.02539
0.01065
-0.00491
-0.01966
-0.02949
-0.03932
-0.04997
-0.05488
-0.05488
-0.05488
-0.05488
-0.05488
-0.05980
-0.05980
-0.05980
-0.05980
-0.06471
-0.06963
-0.06963
-0.06963
-0.06963
-0.06553
-0.06471
-0.05980
-0.05980
-0.06471
-0.06471
-0.06471
-0.06471
-0.06471
-0.05980
-0.05980
-0.05980
-0.05980
-0.05488
-0.05488
-0.05488
-0.05488
-0.04997
-0.03113
-0.01065
0.01884
0.06307
0.11304
0.18185
0.27114
0.36534
0.40794
0.37681
0.26049
0.07372
-0.12042
-0.30145
-0.43825
-0.53081
-0.59225
-0.61846
-0.61027
-0.55293
-0.47429
-0.37026
-0.27032
-0.17939
-0.12287
-0.08192
-0.05652
-0.04587
-0.03522
-0.02539
-0.02048
-0.01966
-0.01966
-0.01966
-0.01966
-0.01556
-0.01474
-0.01474
-0.01474
-0.01474
-0.01474
-0.01474
-0.01065
-0.00983
-0.00983
-0.00983
-0.00983
-0.01474
-0.01474
-0.01474
-0.01065
-0.00983
-0.00491
-0.00491
-0.00491
-0.00491
-0.00491
-0.00491
0.00000
0.00491
0.00491
0.00491
0.00491
0.00983
0.00983
0.00983
0.00983
0.01474
0.01474
0.01065
0.00983
0.00983
0.00983
0.01474
0.01065
0.00983
0.00983
0.00983
0.00983
0.00983
0.00983
0.00983
0.00983
0.00983
0.00983
0.00573
0.00491
0.00491
0.00491
0.00983
0.01474
0.01474
0.01474
0.01474
0.01474
0.01474
0.01474
0.01474
0.01474
0.01474
0.01474
0.01966
0.01966
0.01966
0.01556
0.01474
0.01474
0.01474
0.01966
0.02457
0.02949
0.03031
0.02539
0.02539
0.02539
0.02949
0.03031
0.02539
0.02539
0.02539
0.02539
0.02539
0.02048
0.01966
0.01966
0.01966
0.02457
0.02539
0.02539
0.02539
0.02539
0.02539
0.02949
0.03031
0.03031
0.03031
0.02539
0.02539
0.02539
0.02539
0.02539
0.02949
0.03031
0.03440
0.03031
0.03031
0.02539
0.02539
0.02048
0.01556
0.01474
0.01065
0.00573
-0.00410
-0.00491
-0.00983
-0.01474
-0.01966
-0.02457
-0.02539
-0.02539
-0.02539
-0.02539
-0.02949
-0.03031
-0.03031
-0.03440
-0.03522
-0.03932
-0.04014
-0.04014
-0.04014
-0.04014
-0.04423
-0.04505
-0.04096
-0.04014
-0.04014
-0.04014
-0.04014
-0.04423
-0.04505
-0.04505
-0.04505
-0.04505
-0.04915
-0.04997
-0.04997
-0.05406
-0.05488
-0.05488
-0.05488
-0.05488
-0.05488
-0.05488
-0.05488
-0.05488
-0.05488
-0.05488
-0.05488
-0.05488
-0.05488
-0.05488
-0.05488
-0.05898
-0.05980
-0.05980
-0.05980
-0.05980
-0.05980
-0.05980
-0.05980
-0.05980
-0.05980
-0.05980
-0.05980
-0.05980
-0.05570
-0.05488
-0.05488
-0.04669
-0.03195
-0.01720
-0.00655
0.01229
0.03195
0.03932
0.04423
0.04505
0.04505
0.04505
0.04505
0.04915
0.04096
0.02294
0.00737
-0.00819
-0.02294
-0.03359
-0.04833
-0.05406
-0.06389
-0.06963
-0.07454
-0.07536
-0.07536
-0.07536
-0.07536
-0.07946
-0.08028
-0.08028
-0.08028
-0.08028
-0.08028
-0.08028
-0.08028
-0.08028
-0.08028
-0.08028
-0.08028
-0.08028
-0.07536
-0.07045
-0.06553
-0.06471
-0.06062
-0.05980
-0.05980
-0.05980
-0.05980
-0.05980
-0.05980
-0.05570
-0.04260
-0.01884
0.01065
0.05734
0.10731
0.17858
0.27032
0.36125
0.40876
0.38091
0.26541
0.08028
-0.11878
-0.29326
-0.43415
-0.52672
-0.58651
-0.62010
-0.61273
-0.56767
-0.48822
-0.38664
-0.28179
-0.18922
-0.12861
-0.09093
-0.06389
-0.05161
-0.03768
-0.03113
-0.02621
-0.02539
-0.02048
-0.01966
-0.01966
-0.01556
-0.01474
-0.01474
-0.01474
-0.01474
-0.01474
-0.01474
-0.01474
-0.01474
-0.01474
-0.01474
-0.01474
-0.01474
-0.01474
-0.01065
-0.00983
-0.00983
-0.00983
-0.00573
-0.00491
-0.00082
0.00000
0.00410
0.00491
0.00901
0.00983
0.01393
0.01474
0.01474
0.01474
0.01474
0.01474
0.01474
0.01474
0.01474
0.01474
0.01474
0.01474
0.01884
0.01966
0.01966
0.01966
0.01966
0.01966
0.01966
0.01966
0.01966
0.01556
0.01884
0.01966
0.02376
0.02539
0.02539
0.02867
0.03031
0.03031
0.03440
0.03522
0.03932
0.04014
0.04014
0.04014
0.04014
0.04014
0.04423
0.04505
0.04505
0.04915
0.04997
0.04997
0.04997
0.04997
0.04997
0.04997
0.05406
0.05488
0.05488
0.05488
0.05488
0.05079
0.04997
0.04997
0.04997
0.04587
0.04505
0.04505
0.04505
0.04915
0.04997
0.04997
0.04997
0.04587
0.04505
0.04505
0.04096
0.04423
0.04096
0.04014
0.04014
0.04014
0.04014
0.04014
0.04014
0.04014
0.04014
0.04014
0.04423
0.04505
0.04096
0.04014
0.04014
0.04014
0.04014
0.04014
0.03195
0.02621
0.02539
0.02130
0.01638
0.01147
0.00573
0.00082
-0.00410
-0.00901
-0.00983
-0.01393
-0.01474
-0.01884
-0.02376
-0.02539
-0.02130
-0.01966
-0.01966
-0.01966
-0.01638
-0.01474
-0.01474
-0.01474
-0.01474
-0.01474
-0.01474
-0.01884
-0.01966
-0.01966
-0.01966
-0.01966
-0.01966
-0.02376
-0.02539
-0.02867
-0.03031
-0.03031
-0.03031
-0.03031
-0.03031
-0.03031
-0.03031
-0.03031
-0.03031
-0.03031
-0.03031
-0.03031
-0.03031
-0.03359
-0.03850
-0.04014
-0.04014
-0.04014
-0.03604
-0.03522
-0.03850
-0.04014
-0.04014
-0.04014
-0.04014
-0.04014
-0.04014
-0.04014
-0.03604
-0.03113
-0.02621
-0.00983
0.00246
0.01638
0.03522
0.04342
0.04915
0.04997
0.04997
0.04997
0.05406
0.05898
0.05980
0.04833
0.03359
0.01474
-0.00164
-0.01638
-0.02785
-0.04096
-0.04915
-0.05406
-0.05898
-0.05980
-0.06389
-0.06471
-0.06881
-0.06963
-0.06963
-0.07372
-0.07536
-0.07536
-0.07536
-0.07536
-0.07536
-0.07536
-0.07536
-0.07536
-0.07536
-0.07536
-0.07536
-0.07536
-0.07536
-0.07536
-0.07536
-0.07127
-0.06963
-0.07372
-0.07536
-0.07536
-0.07127
-0.06635
-0.05734
-0.04014
-0.01311
0.01720
0.05488
0.10567
0.17939
0.27032
0.35797
0.40548
0.36370
0.23428
0.04751
-0.14499
-0.31292
-0.44316
-0.53737
-0.60044
-0.63321
-0.62174
-0.57505
-0.49067
-0.38418
-0.27769
-0.19168
-0.12943
-0.08929
-0.06144
-0.04423
-0.03277
-0.02621
-0.02130
-0.01638
-0.01147
-0.00655
-0.00491
-0.00491
-0.00491
-0.00491
-0.00491
-0.00491
-0.00491
-0.00491
-0.00491
-0.00491
-0.00901
-0.00983
-0.01393
-0.01474
-0.01147
-0.00983
-0.00983
-0.00983
-0.00655
-0.00491
-0.00164
0.00000
0.00000
0.00328
0.00819
0.00983
0.01393
0.01474
0.01474
0.01474
0.01474
0.01474
0.01474
0.01474
0.01474
0.01474
0.01474
0.01474
0.01474
0.01474
0.01474
0.01474
0.01474
0.01474
0.01147
0.00983
0.00655
0.00491
0.00819
0.01393
0.01474
0.01474
0.01474
0.01474
0.01474
0.01884
0.01966
0.01966
0.02376
0.02539
0.02539
0.02539
0.02539
0.02539
0.02539
0.02539
0.02539
0.02539
0.02539
0.02867
0.03031
0.03359
0.03522
0.03850
0.03686
0.03522
0.03522
0.03522
0.03522
0.03522
0.03522
0.03522
0.03522
0.03522
0.03522
0.03113
0.03031
0.03031
0.03359
0.03522
0.03195
0.03359
0.03522
0.03522
0.03522
0.03195
0.03359
0.03522
0.03522
0.03522
0.03522
0.03522
0.03522
0.03522
0.03522
0.03522
0.03522
0.03850
0.03686
0.03522
0.03522
0.03195
0.03031
0.03031
0.02621
0.02130
0.01638
0.01474
0.01147
0.00655
0.00164
-0.00328
-0.00491
-0.00491
-0.00491
-0.00819
-0.00983
-0.01311
-0.01474
-0.01474
-0.01474
-0.01474
-0.01474
-0.01474
-0.01474
-0.01474
-0.01147
-0.00655
-0.00491
-0.00491
-0.00491
-0.00491
-0.00491
-0.00491
-0.00491
-0.00491
-0.00491
-0.00491
-0.00491
-0.00491
-0.00491
-0.00491
-0.00491
-0.00491
-0.00491
-0.00491
-0.00491
-0.00491
-0.00491
-0.00491
-0.00491
-0.00491
-0.00491
-0.00491
-0.00491
-0.00491
-0.00491
-0.00491
-0.00491
-0.00491
-0.00491
-0.00819
-0.00983
-0.00983
-0.00983
-0.00983
-0.01311
-0.01474
-0.01474
-0.01474
-0.01147
-0.00655
0.00819
0.02457
0.03686
0.05325
0.06963
0.08192
0.08519
0.08519
0.08519
0.08519
0.08519
0.08519
0.07864
0.06553
0.04669
0.02703
0.01065
-0.00491
-0.01966
-0.02785
-0.03932
-0.04833
-0.04997
-0.05325
-0.05488
-0.05816
-0.05980
-0.05980
-0.05980
-0.05980
-0.05980
-0.05652
-0.05488
-0.05488
-0.05816
-0.05652
-0.05488
-0.05816
-0.05980
-0.05652
-0.05488
-0.05488
-0.05161
-0.04997
-0.04997
-0.04669
-0.04505
-0.04505
-0.04505
-0.04178
-0.04014
-0.03686
-0.03195
-0.01393
0.01065
0.04833
0.09338
0.15072
0.22527
0.31537
0.39074
0.39893
0.31783
0.15810
-0.03277
-0.22117
-0.37763
-0.48985
-0.56276
-0.60699
-0.62338
-0.59962
-0.53491
-0.43579
-0.32275
-0.22035
-0.14417
-0.09502
-0.06471
-0.04260
-0.02867
-0.01884
-0.01229
-0.00655
-0.00491
-0.00491
-0.00491
-0.00491
-0.00491
-0.00491
-0.00819
-0.00655
-0.00491
-0.00491
-0.00491
-0.00491
-0.00491
-0.00491
-0.00491
-0.00491
-0.00491
-0.00491
-0.00491
-0.00491
-0.00164
0.00000
0.00328
0.00819
0.00983
0.01311
0.01474
0.01802
0.01966
0.02294
0.02539
0.02539
0.02539
0.02785
0.03604
0.04014
0.03686
0.03522
0.03195
0.03031
0.03031
0.03277
0.03522
0.03522
0.03522
0.03195
0.02703
0.02212
0.01966
0.01966
0.01720
0.01474
0.01802
0.01966
0.02294
0.02212
0.02294
0.02539
0.02785
0.03031
0.03031
0.03031
0.03031
0.03031
0.03031
0.03277
0.03522
0.03522
0.03522
0.03522
0.03522
0.03768
0.04014
0.04014
0.04014
0.04014
0.04014
0.04014
0.04014
0.04014
0.04014
0.04014
0.04260
0.04505
0.04505
0.04505
0.04178
0.04014
0.04014
0.04014
0.04014
0.04014
0.04014
0.04014
0.04014
0.04014
0.04014
0.04260
0.04178
0.04014
0.04260
0.04505
0.04505
0.04505
0.04505
0.04505
0.04751
0.04997
0.04997
0.04997
0.04751
0.04505
0.04505
0.04505
0.04178
0.04014
0.04014
0.04014
0.03440
0.02703
0.02212
0.01720
0.01474
0.00901
0.00246
-0.00246
-0.00819
-0.01311
-0.01474
-0.01802
-0.01966
-0.02294
-0.02539
-0.02539
-0.02539
-0.02539
-0.02539
-0.02539
-0.02539
-0.02539
-0.02539
-0.02539
-0.02785
-0.03031
-0.03031
-0.03031
-0.03031
-0.03031
-0.03031
-0.03031
-0.03031
-0.03031
-0.03031
-0.03031
-0.03031
-0.03277
-0.03522
-0.03768
-0.04014
-0.04014
-0.04014
-0.04014
-0.04014
-0.04014
-0.04014
-0.04014
-0.04014
-0.04014
-0.04014
-0.04014
-0.04014
-0.04014
-0.04014
-0.04014
-0.04014
-0.04014
-0.04014
-0.04014
-0.04014
-0.04014
-0.04014
-0.04014
-0.04014
-0.04014
-0.04260
-0.04505
-0.04751
-0.04997
-0.04997
-0.04997
-0.04751
-0.04260
-0.03440
-0.01884
-0.00491
0.00819
0.02621
0.03768
0.04260
0.04505
0.04505
0.04505
0.04751
0.04997
0.04751
0.03932
0.02457
0.00410
-0.01065
-0.02294
-0.03522
-0.04833
-0.05734
-0.06307
-0.06471
-0.06799
-0.06963
-0.06963
-0.06963
-0.06963
-0.06963
-0.06963
-0.06963
-0.07290
-0.07536
-0.07536
-0.07536
-0.07536
-0.07536
-0.07209
-0.06717
-0.06471
-0.06226
-0.05980
-0.05734
-0.05488
-0.05488
-0.05488
-0.05488
-0.05488
-0.05488
-0.05243
-0.04997
-0.04751
-0.04014
-0.02457
0.00082
0.03604
0.07864
0.13434
0.20970
0.29981
0.38173
0.40712
0.34241
0.20151
0.02621
-0.15318
-0.31537
-0.43907
-0.52344
-0.57587
-0.59471
-0.57423
-0.51361
-0.41859
-0.31128
-0.21380
-0.13680
-0.08192
-0.04751
-0.02457
-0.00983
0.00000
0.00737
0.01229
0.01474
0.01474
0.01720
0.01966
0.01966
0.02294
0.02212
0.01966
0.01966
0.01720
0.01474
0.01474
0.01720
0.01966
0.01966
0.01966
0.01966
0.02212
0.02539
0.02539
0.02539
0.02539
0.02539
0.02785
0.03277
0.03522
0.03522
0.03522
0.03522
0.03522
0.03768
0.04014
0.04014
0.04260
0.04260
0.04014
0.04014
0.04014
0.04014
0.04014
0.04014
0.04014
0.04014
0.04014
0.04014
0.04014
0.04014
0.04014
0.04014
0.04014
0.04014
0.04014
0.04014
0.04014
0.04014
0.04014
0.04014
0.04014
0.04014
0.04014
0.04260
0.04505
0.04751
0.04997
0.04997
0.04997
0.04997
0.05243
0.05488
0.05243
0.04997
0.04997
0.04997
0.05243
0.05488
0.05488
0.05243
0.04997
0.04997
0.04997
0.04997
0.05243
0.05488
0.05488
0.05488
0.05488
0.05488
0.05488
0.05243
0.04751
0.04505
0.04505
0.04505
0.04751
0.05243
0.05488
0.05243
0.04751
0.04505
0.04260
0.04014
0.04014
0.04260
0.04505
0.04751
0.05243
0.05488
0.05734
0.05734
0.05488
0.05488
0.05488
0.05488
0.05488
0.05243
0.04751
0.04505
0.04260
0.04014
0.03768
0.03031
0.02294
0.01802
0.01474
0.01474
0.01065
0.00246
0.00000
-0.00246
-0.00491
-0.00491
-0.00491
-0.00491
-0.00737
-0.00983
-0.00983
-0.00983
-0.00983
-0.00983
-0.00983
-0.00983
-0.00737
-0.00491
-0.00491
-0.00737
-0.01229
-0.01474
-0.01474
-0.01311
-0.00737
-0.00491
-0.00737
-0.00983
-0.01229
-0.01474
-0.01474
-0.01474
-0.01474
-0.01311
-0.00983
-0.00983
-0.01229
-0.01474
-0.01474
-0.01474
-0.01720
-0.02212
-0.02539
-0.02703
-0.03031
-0.03031
-0.03031
-0.03031
-0.03031
-0.03031
-0.03031
-0.03031
-0.03031
-0.02785
-0.02539
-0.02539
-0.02539
-0.02703
-0.03031
-0.03031
-0.03195
-0.03522
-0.03522
-0.03522
-0.03522
-0.03522
-0.03522
-0.03522
-0.03522
-0.03277
-0.03031
-0.03031
-0.03031
-0.03031
-0.03031
-0.03031
-0.03031
-0.03195
-0.03522
-0.03522
-0.03522
-0.03522
-0.03522
-0.03522
-0.03277
-0.02785
-0.01884
-0.00573
0.00655
0.01720
0.02621
0.04178
0.05652
0.06963
0.07700
0.08028
0.08028
0.07618
0.06799
0.06062
0.04833
0.03195
0.01393
0.00082
-0.01147
-0.02457
-0.03440
-0.04423
-0.05243
-0.05488
-0.05734
-0.06226
-0.06471
-0.06717
-0.06963
-0.06963
-0.06963
-0.06799
-0.06717
-0.06963
-0.06799
-0.06471
-0.06471
-0.06471
-0.06471
-0.06471
-0.06471
-0.06471
-0.06471
-0.06471
-0.06471
-0.06471
-0.06471
-0.06471
-0.06307
-0.05980
-0.05980
-0.05980
-0.05816
-0.05079
-0.03522
-0.00573
0.03359
0.08192
0.14499
0.22854
0.32111
0.39074
0.39893
0.32111
0.16137
-0.03359
-0.22035
-0.37681
-0.49067
-0.56686
-0.60781
-0.61191
-0.57832
-0.51115
-0.41859
-0.31128
-0.21298
-0.14089
-0.09093
-0.06226
-0.04178
-0.02621
-0.01802
-0.01311
-0.00819
-0.00491
-0.00491
-0.00491
-0.00491
-0.00491
-0.00491
-0.00491
-0.00491
-0.00491
-0.00491
-0.00491
-0.00491
-0.00491
-0.00491
-0.00491
-0.00491
-0.00491
-0.00491
-0.00491
-0.00491
-0.00491
-0.00491
-0.00491
-0.00491
-0.00491
-0.00328
0.00164
0.00491
0.00655
0.01229
0.01474
0.01474
0.01474
0.01474
0.01474
0.01474
0.01474
0.01474
0.01474
0.01311
0.00983
0.01229
0.01474
0.01474
0.01474
0.01474
0.01474
0.01474
0.01474
0.01474
0.01474
0.01474
0.01474
0.01720
0.01966
0.02212
0.02539
0.02539
0.02539
0.02539
0.02539
0.02703
0.03195
0.03522
0.03686
0.04014
0.04014
0.04014
0.04014
0.04014
0.04014
0.04178
0.04505
0.04505
0.04505
0.04505
0.04505
0.04505
0.04505
0.04505
0.04505
0.04505
0.04669
0.04997
0.04997
0.04997
0.04833
0.04505
0.04505
0.04505
0.04505
0.04505
0.04669
0.04997
0.04833
0.04505
0.04505
0.04669
0.04997
0.04997
0.04997
0.04997
0.04997
0.04997
0.05161
0.05488
0.05652
0.05816
0.05488
0.05325
0.04997
0.04997
0.04997
0.04997
0.04997
0.04997
0.04833
0.04342
0.04014
0.03850
0.03522
0.03195
0.02294
0.01802
0.01474
0.01311
0.00819
0.00491
0.00328
0.00000
0.00000
0.00000
0.00000
0.00164
0.00328
0.00000
0.00000
0.00000
0.00164
0.00491
0.00328
0.00000
0.00000
0.00000
0.00000
0.00164
0.00491
0.00655
0.00983
0.00983
0.00983
0.00819
0.00328
-0.00164
-0.00491
-0.00655
-0.01147
-0.01474
-0.01474
-0.01474
-0.01474
-0.01311
-0.00983
-0.01147
-0.01638
-0.01966
-0.02130
-0.02539
-0.02539
-0.02376
-0.01966
-0.02130
-0.02539
-0.02621
-0.03031
-0.03031
-0.03031
-0.03031
-0.03031
-0.03031
-0.03031
-0.03031
-0.03031
-0.02703
-0.01556
0.00000
0.01311
0.02621
0.04505
0.05816
0.06471
0.06471
0.06471
0.06471
0.06471
0.06635
0.06881
0.06062
0.04505
0.03031
0.01556
0.00164
-0.00819
-0.01802
-0.02621
-0.03277
-0.04178
-0.04669
-0.05161
-0.05488
-0.05488
-0.05488
-0.05652
-0.05980
-0.05816
-0.05488
-0.05488
-0.05488
-0.05652
-0.05980
-0.05816
-0.05488
-0.05652
-0.05980
-0.06144
-0.06389
-0.05980
-0.05980
-0.05980
-0.05816
-0.05652
-0.05816
-0.05488
-0.05488
-0.05488
-0.05325
-0.04833
-0.04014
-0.02376
-0.00246
0.02867
0.07454
0.13106
0.20643
0.29981
0.38582
0.41941
0.37108
0.23674
0.05406
-0.13106
-0.29899
-0.43579
-0.52754
-0.58324
-0.61682
-0.60945
-0.56030
-0.46938
-0.36289
-0.25885
-0.17612
-0.11714
-0.07618
-0.04915
-0.03195
-0.02212
-0.01229
-0.00491
-0.00491
-0.00328
0.00000
0.00000
-0.00164
-0.00491
-0.00491
-0.00491
-0.00491
-0.00491
-0.00491
-0.00491
-0.00491
-0.00491
-0.00491
-0.00491
-0.00491
-0.00328
-0.00164
-0.00491
-0.00491
-0.00491
-0.00328
0.00000
0.00000
0.00000
0.00164
0.00491
0.00655
0.01147
0.01474
0.01474
0.01474
0.01638
0.01966
0.01966
0.01884
0.01474
0.01474
0.01474
0.01474
0.01474
0.01474
0.01474
0.01474
0.01474
0.01474
0.01474
0.01474
0.01474
0.01474
0.01474
0.01474
0.01474
0.01393
0.01147
0.01474
0.01474
0.01474
0.01474
0.01474
0.01474
0.01474
0.01474
0.01474
0.01638
0.01966
0.01966
0.02130
0.02539
0.02539
0.02539
0.02376
0.01966
0.02130
0.02539
0.02539
0.02621
0.03031
0.03031
0.03113
0.03522
0.03359
0.03031
0.03031
0.03031
0.02867
0.02539
0.02539
0.02539
0.02539
0.02539
0.02539
0.02539
0.02539
0.02539
0.02539
0.02539
0.02539
0.02539
0.02376
0.01966
0.01884
0.01474
0.01474
0.01474
0.01474
0.01474
0.01474
0.01474
0.01474
0.01474
0.01474
0.01474
0.01474
0.01474
0.01474
0.01393
0.00901
0.00410
-0.00082
-0.00491
-0.00737
-0.01638
-0.02130
-0.02621
-0.03031
-0.03113
-0.03522
-0.03604
-0.04014
-0.04096
-0.04505
-0.04423
-0.04014
-0.04014
-0.04014
-0.04014
-0.04014
-0.04014
-0.04014
-0.03850
-0.03522
-0.03522
-0.03522
-0.03604
-0.04014
-0.04014
-0.03850
-0.03522
-0.03604
-0.04014
-0.04014
-0.04014
-0.04014
-0.04014
-0.04096
-0.04505
-0.04587
-0.04997
-0.05079
-0.05488
-0.05488
-0.05488
-0.05488
-0.05488
-0.05488
-0.05488
-0.05488
-0.05488
-0.05488
-0.05488
-0.05488
-0.05488
-0.05570
-0.05980
-0.05980
-0.06144
-0.06471
-0.06471
-0.06389
-0.05980
-0.05980
-0.05898
-0.05488
-0.05488
-0.05488
-0.05325
-0.04178
-0.02703
-0.01311
-0.00164
0.01311
0.02703
0.03604
0.04014
0.04014
0.03932
0.03604
0.04014
0.04014
0.03604
0.01720
0.00164
-0.01311
-0.02703
-0.03768
-0.05079
-0.05734
-0.06635
-0.07127
-0.07618
-0.08028
-0.08028
-0.08028
-0.08028
-0.08028
-0.08028
-0.08028
-0.08028
-0.08028
-0.08028
-0.07864
-0.07536
-0.07536
-0.07536
-0.07372
-0.06881
-0.06389
-0.05980
-0.05980
-0.05898
-0.05488
-0.05488
-0.05488
-0.05406
-0.04997
-0.04997
-0.04997
-0.04833
-0.03850
-0.02539
0.00000
0.02785
0.06963
0.12287
0.19578
0.28179
0.36452
0.39729
0.33913
0.19250
0.01802
-0.15564
-0.31456
-0.44234
-0.53081
-0.58570
-0.60699
-0.58570
-0.52835
-0.43497
-0.32684
-0.23018
-0.15400
-0.09912
-0.06553
-0.04260
-0.02785
-0.01802
-0.00901
-0.00491
-0.00410
0.00082
0.00491
0.00491
0.00410
-0.00082
-0.00491
-0.00491
-0.00573
-0.00983
-0.00983
-0.00983
-0.00901
-0.00491
-0.00491
-0.00573
-0.00983
-0.00983
-0.00901
-0.00491
-0.00491
-0.00491
-0.00491
-0.00410
0.00000
0.00082
0.00491
0.00573
0.01065
0.01474
0.01474
0.01474
0.01474
0.01474
0.01556
0.01966
0.01966
0.01966
0.02048
0.02539
0.02457
0.01966
0.01884
0.01474
0.01474
0.01474
0.01474
0.01474
0.01474
0.01474
0.01474
0.01393
0.01065
0.01474
0.01474
0.01474
0.01474
0.01474
0.01474
0.01556
0.01966
0.01884
0.01474
0.01474
0.01474
0.01474
0.01474
0.01474
0.01474
0.01474
0.01474
0.01556
0.01966
0.01966
0.01966
0.02048
0.02539
0.02539
0.03031
0.03031
0.03031
0.03031
0.03031
0.03031
0.03031
0.03031
0.03031
0.03031
0.03031
0.03031
0.03031
0.03031
0.03031
0.03031
0.03031
0.02949
0.02539
0.02539
0.02539
0.02539
0.02539
0.02539
0.02539
0.02539
0.03031
0.03031
0.03522
0.03522
0.03522
0.03604
0.03932
0.03440
0.03031
0.02949
0.02539
0.02376
0.01474
0.01474
0.01393
0.00410
-0.00082
-0.00491
-0.00573
-0.01065
-0.01638
-0.02539
-0.03031
-0.03031
-0.03031
-0.03031
-0.03522
-0.03522
-0.03522
-0.03522
-0.03522
-0.03522
-0.03522
-0.03522
-0.03522
-0.03522
-0.03522
-0.03522
-0.04014
-0.04096
-0.04505
-0.04505
-0.04505
-0.04505
-0.04505
-0.04505
-0.04505
-0.04505
-0.04587
-0.04997
-0.04997
-0.04915
-0.04505
-0.04505
-0.04505
-0.04505
-0.04505
-0.04505
-0.04505
-0.04587
-0.04997
-0.04997
-0.04997
-0.05079
-0.05488
-0.05488
-0.05488
-0.05488
-0.05488
-0.05488
-0.05488
-0.05488
-0.05488
-0.05488
-0.05488
-0.05488
-0.05488
-0.05488
-0.05488
-0.05570
-0.05980
-0.05980
-0.05980
-0.05488
-0.05488
-0.04833
-0.03359
-0.01884
-0.00328
0.01720
0.03604
0.04505
0.04505
0.04505
0.04505
0.04505
0.04587
0.04915
0.04423
0.03277
0.01393
-0.00082
-0.01147
-0.02539
-0.03113
-0.04178
-0.05570
-0.06062
-0.06553
-0.06963
-0.07045
-0.07536
-0.08028
-0.08028
-0.08028
-0.08028
-0.08028
-0.08028
-0.08028
-0.08519
-0.08437
-0.08028
-0.08028
-0.08028
-0.07946
-0.07536
-0.07536
-0.07536
-0.07536
-0.07454
-0.06963
-0.06963
-0.06963
-0.06963
-0.06963
-0.06471
-0.06471
-0.05980
-0.05325
-0.03277
-0.00246
0.03359
0.08519
0.15154
0.23346
0.33503
0.39893
0.38336
0.28834
0.13025
-0.05898
-0.24165
-0.39319
-0.50542
-0.57341
-0.61519
-0.61682
-0.57423
-0.49805
-0.40302
-0.30391
-0.21544
-0.14663
-0.10321
-0.07372
-0.05406
-0.03932
-0.03031
-0.02949
-0.02457
-0.01966
-0.01966
-0.01966
-0.01474
-0.01474
-0.01556
-0.01966
-0.01966
-0.01966
-0.02048
-0.02539
-0.02539
-0.02539
-0.02457
-0.01966
-0.01966
-0.01966
-0.01966
-0.01474
-0.01474
-0.00983
-0.00491
-0.00491
-0.00983
-0.00983
-0.00983
-0.00983
-0.00491
-0.00491
-0.00491
-0.00491
0.00000
0.00000
0.00000
0.00491
0.00491
0.00491
0.00491
0.00491
0.00491
0.00491
0.00491
0.00491
0.00491
0.00491
0.00491
0.00491
0.00491
0.00491
0.00491
0.00491
0.00491
0.00491
0.00983
0.00983
0.00983
0.00983
0.00983
0.00983
0.00983
0.00983
0.00983
0.01474
0.01474
0.01474
0.01556
0.01966
0.01966
0.02048
0.02539
0.02539
0.03031
0.03522
0.03440
0.03031
0.03031
0.03031
0.03031
0.03522
0.03031
0.02949
0.02539
0.02539
0.02539
0.03031
0.03522
0.03522
0.03522
0.03522
0.03522
0.04014
0.03522
0.03031
0.02949
0.02539
0.02457
0.02048
0.02457
0.01966
0.02048
0.02539
0.02539
0.03031
0.03031
0.03031
0.03522
0.03522
0.03031
0.03031
0.03031
0.03031
0.03031
0.03031
0.03031
0.02949
0.02539
0.02457
0.01966
0.01474
0.01474
0.00983
0.00491
0.00000
-0.00491
-0.00983
-0.01474
-0.02048
-0.02539
-0.02539
-0.02539
-0.02539
-0.02539
-0.02539
-0.02539
-0.03031
-0.03031
-0.02457
-0.01966
-0.01966
-0.01474
-0.01474
-0.01474
-0.01966
-0.02539
-0.02539
-0.02539
-0.02539
-0.02539
-0.02539
-0.02539
-0.02539
-0.02539
-0.02539
-0.02539
-0.03031
-0.03031
-0.03031
-0.03522
-0.03522
-0.03522
-0.04014
-0.04014
-0.04014
-0.03522
-0.03522
-0.03031
-0.03522
-0.03522
-0.04014
-0.04014
-0.04014
-0.04014
-0.04014
-0.04014
-0.04014
-0.04505
-0.04997
-0.05488
-0.05488
-0.05488
-0.05488
-0.05488
-0.05488
-0.04997
-0.04997
-0.04997
-0.04997
-0.05488
-0.05488
-0.04997
-0.04505
-0.03522
-0.02048
-0.00491
0.00983
0.02457
0.04014
0.04014
0.04014
0.04014
0.04014
0.04014
0.04014
0.04014
0.03031
0.01556
0.00000
-0.00983
-0.02949
-0.04014
-0.05488
-0.05980
-0.06963
-0.07454
-0.07536
-0.07536
-0.07536
-0.07536
-0.07536
-0.07536
-0.07536
-0.08028
-0.08028
-0.08028
-0.08028
-0.08519
-0.08519
-0.08519
-0.08519
-0.08519
-0.08028
-0.08028
-0.08028
-0.08028
-0.08028
-0.07536
-0.07536
-0.07946
-0.08028
-0.08028
-0.07536
-0.07045
-0.06553
-0.05980
-0.04997
-0.02130
0.01393
0.05898
0.11796
0.18759
0.27196
0.36698
0.40876
0.36616
0.23018
0.03195
-0.16301
-0.33913
-0.47019
-0.55703
-0.61273
-0.64386
-0.64058
-0.58733
-0.49805
-0.38910
-0.27442
-0.18841
-0.12779
-0.08683
-0.05652
-0.04505
-0.03031
-0.03031
-0.02539
-0.02539
-0.02048
-0.01966
-0.01966
-0.01556
-0.01474
-0.01966
-0.01966
-0.01966
-0.01966
-0.01966
-0.01966
-0.01966
-0.01966
-0.01966
-0.01966
-0.01556
-0.01474
-0.01474
-0.01474
-0.01474
-0.01065
-0.00491
-0.00491
-0.00491
-0.00491
0.00000
0.00000
0.00491
0.00491
0.00983
0.00983
0.00983
0.01474
0.01474
0.01474
0.01474
0.01474
0.01474
0.01065
0.00983
0.00983
0.00983
0.00491
0.00491
0.00983
0.00983
0.00983
0.00983
0.00491
0.00491
0.00491
0.00491
0.00491
0.00491
0.00491
0.00491
0.00491
0.00491
0.00491
0.00983
0.01474
0.01474
0.01474
0.01474
0.01474
0.01474
0.01474
0.01474
0.01474
0.01474
0.01474
0.01474
0.01474
0.01474
0.01474
0.01474
0.01966
0.01966
0.01966
0.01966
0.01966
0.01966
0.01966
0.01556
0.01474
0.01474
0.01474
0.01474
0.01065
0.01474
0.01474
0.01474
0.01474
0.01474
0.01474
0.01474
0.01966
0.01966
0.01966
0.01966
0.01966
0.01556
0.01474
0.01474
0.01474
0.01474
0.01474
0.01474
0.01474
0.01966
0.01966
0.01966
0.01966
0.01966
0.01966
0.01966
0.01556
0.01065
0.00573
0.00082
-0.00491
-0.00491
-0.00983
-0.01474
-0.01966
-0.02457
-0.02949
-0.03031
-0.03031
-0.03031
-0.03440
-0.03522
-0.03522
-0.03522
-0.03522
-0.03522
-0.03522
-0.03522
-0.03522
-0.03522
-0.03522
-0.03522
-0.03522
-0.03031
-0.03031
-0.03031
-0.02539
-0.02539
-0.02539
-0.02539
-0.02539
-0.02949
-0.03031
-0.03031
-0.03031
-0.03031
-0.03031
-0.03031
-0.03440
-0.03932
-0.04014
-0.04423
-0.04505
-0.04505
-0.04014
-0.04014
-0.03522
-0.03522
-0.03522
-0.03522
-0.03522
-0.03522
-0.03522
-0.03522
-0.03522
-0.03522
-0.03522
-0.03031
-0.03031
-0.03031
-0.03031
-0.03031
-0.03031
-0.03031
-0.03031
-0.03440
-0.03522
-0.03031
-0.03031
-0.03031
-0.03031
-0.03440
-0.03031
-0.02130
-0.00655
0.00819
0.01884
0.03768
0.04915
0.05898
0.05980
0.05570
0.05079
0.05406
0.05898
0.05980
0.05161
0.03686
0.01720
0.00164
-0.01311
-0.02785
-0.03440
-0.04342
-0.05406
-0.05488
-0.06389
-0.06963
-0.06963
-0.06963
-0.06963
-0.07454
-0.07536
-0.07536
-0.07536
-0.07536
-0.07045
-0.06553
-0.06963
-0.07454
-0.07536
-0.07536
-0.07045
-0.06963
-0.06963
-0.06553
-0.06471
-0.06471
-0.06471
-0.06471
-0.06471
-0.06471
-0.06062
-0.05980
-0.05570
-0.05488
-0.04178
-0.02294
0.00983
0.04505
0.09748
0.16957
0.26131
0.35224
0.39893
0.36207
0.24411
0.07946
-0.10731
-0.28425
-0.42514
-0.52180
-0.58651
-0.62502
-0.62174
-0.57750
-0.48904
-0.38582
-0.28097
-0.19742
-0.13434
-0.09502
-0.06881
-0.04833
-0.03686
-0.03113
-0.02539
-0.02048
-0.01966
-0.01556
-0.01065
-0.00983
-0.00983
-0.00983
-0.01393
-0.01884
-0.01966
-0.02457
-0.02539
-0.02539
-0.02048
-0.01556
-0.01474
-0.01474
-0.01065
-0.00983
-0.00983
-0.00983
-0.00983
-0.00573
-0.00491
-0.00491
-0.00491
-0.00491
-0.00491
-0.00491
-0.00082
0.00000
0.00410
0.00901
0.01393
0.01474
0.01474
0.01474
0.01474
0.01474
0.01065
0.00983
0.00983
0.00983
0.00983
0.00983
0.00983
0.00983
0.00983
0.01393
0.01474
0.01474
0.01474
0.01474
0.01474
0.01474
0.01474
0.01474
0.01474
0.01474
0.01474
0.01474
0.01474
0.01474
0.01065
0.00983
0.00983
0.01393
0.01474
0.01474
0.01474
0.01884
0.01966
0.01966
0.01966
0.02376
0.02539
0.02539
0.02539
0.02539
0.02539
0.02539
0.02539
0.02130
0.02376
0.02539
0.02867
0.03031
0.02621
0.02539
0.02539
0.02539
0.02539
0.02539
0.02539
0.02539
0.02539
0.02539
0.02539
0.02867
0.03031
0.03031
0.03440
0.03522
0.03522
0.03522
0.03522
0.03113
0.03031
0.03440
0.03522
0.03113
0.03031
0.03031
0.03031
0.03031
0.03031
0.02621
0.02539
0.02539
0.02130
0.01638
0.01474
0.01065
0.00573
0.00082
-0.00410
-0.00901
-0.01802
-0.02376
-0.02539
-0.02867
-0.03031
-0.03031
-0.03031
-0.03031
-0.03031
-0.03031
-0.03031
-0.03031
-0.03359
-0.03522
-0.03522
-0.03522
-0.03522
-0.03522
-0.03932
-0.04014
-0.04014
-0.04014
-0.04014
-0.03604
-0.03522
-0.03522
-0.03522
-0.03522
-0.03932
-0.04014
-0.04014
-0.04014
-0.04423
-0.04505
-0.04505
-0.04505
-0.04505
-0.04505
-0.04505
-0.04505
-0.04505
-0.04505
-0.04505
-0.04505
-0.04505
-0.04915
-0.04587
-0.04505
-0.04505
-0.04915
-0.04997
-0.04997
-0.04997
-0.04587
-0.04505
-0.04915
-0.04997
-0.04997
-0.04997
-0.04997
-0.05406
-0.05488
-0.05488
-0.05488
-0.05079
-0.03850
-0.02376
-0.00819
0.00655
0.02130
0.03686
0.04423
0.04915
0.04587
0.04505
0.04505
0.04505
0.04505
0.03359
0.01884
0.00000
-0.01229
-0.02621
-0.03768
-0.05161
-0.06226
-0.06881
-0.07782
-0.08028
-0.08028
-0.08028
-0.08028
-0.08028
-0.08028
-0.08028
-0.08028
-0.08028
-0.08355
-0.08519
-0.08519
-0.08847
-0.09011
-0.09011
-0.09011
-0.09011
-0.08601
-0.08519
-0.08110
-0.08028
-0.08028
-0.07618
-0.07536
-0.07536
-0.07864
-0.08028
-0.07618
-0.07536
-0.06717
-0.05406
-0.02785
0.00655
0.04833
0.10813
0.18431
0.27196
0.35469
0.38992
0.33913
0.20479
0.01966
-0.16793
-0.33422
-0.45709
-0.54474
-0.60208
-0.62993
-0.61682
-0.56194
-0.47429
-0.36452
-0.26131
-0.17939
-0.11960
-0.08273
-0.06062
-0.04423
-0.03277
-0.03031
-0.02621
-0.02130
-0.01966
-0.01966
-0.01966
-0.01966
-0.01966
-0.01966
-0.01966
-0.01966
-0.01966
-0.01966
-0.01966
-0.01966
-0.01966
-0.01638
-0.01474
-0.01474
-0.01474
-0.01474
-0.01474
-0.01474
-0.01474
-0.01474
-0.01147
-0.00655
-0.00491
-0.00491
-0.00491
-0.00491
-0.00164
0.00000
0.00328
0.00491
0.00491
0.00901
0.00983
0.01393
0.01474
0.01474
0.01474
0.01474
0.01474
0.01147
0.00983
0.00983
0.00983
0.01393
0.01474
0.01474
0.01474
0.01474
0.01474
0.01474
0.01147
0.00983
0.01393
0.01474
0.01884
0.02376
0.02867
0.03031
0.03359
0.03522
0.03522
0.03850
0.04014
0.04014
0.04014
0.04014
0.03686
0.03522
0.03522
0.03522
0.03522
0.03522
0.03522
0.03850
0.03686
0.03850
0.04014
0.04014
0.04014
0.04014
0.04014
0.04014
0.03686
0.03522
0.03113
0.03031
0.03031
0.03031
0.03359
0.03522
0.03113
0.03031
0.03359
0.03522
0.03522
0.03522
0.03113
0.02621
0.02130
0.01966
0.02376
0.02539
0.02539
0.02539
0.02867
0.03031
0.03031
0.03031
0.03031
0.02621
0.02539
0.02539
0.02130
0.01638
0.01474
0.01147
0.00328
-0.00328
-0.00819
-0.01311
-0.01474
-0.01884
-0.01966
-0.02376
-0.02867
-0.03031
-0.03031
-0.03031
-0.03359
-0.03522
-0.03195
-0.03031
-0.03031
-0.03031
-0.03031
-0.03031
-0.03031
-0.03031
-0.03031
-0.03031
-0.03031
-0.03031
-0.03031
-0.03031
-0.03031
-0.03031
-0.03031
-0.03031
-0.03031
-0.03359
-0.03850
-0.04342
-0.04505
-0.04505
-0.04505
-0.04505
-0.04178
-0.03686
-0.03522
-0.03850
-0.04342
-0.04505
-0.04505
-0.04833
-0.04997
-0.05325
-0.05488
-0.05488
-0.05488
-0.05488
-0.05488
-0.05161
-0.04997
-0.04997
-0.04997
-0.04997
-0.04997
-0.04997
-0.05325
-0.05488
-0.05488
-0.05488
-0.05488
-0.05488
-0.05161
-0.04014
-0.02867
-0.01147
0.00819
0.02785
0.03850
0.04014
0.04014
0.04014
0.04014
0.04014
0.04014
0.03686
0.02539
0.00655
-0.00655
-0.01966
-0.03195
-0.04505
-0.05325
-0.06144
-0.06799
-0.07290
-0.07536
-0.07536
-0.07536
-0.07536
-0.07536
-0.07536
-0.07864
-0.08028
-0.08028
-0.08028
-0.08028
-0.08028
-0.08028
-0.08028
-0.07700
-0.07536
-0.07536
-0.07536
-0.07782
-0.08028
-0.08028
-0.08028
-0.08028
-0.08028
-0.08028
-0.08028
-0.07700
-0.07536
-0.07209
-0.06062
-0.03932
-0.01065
0.02539
0.07536
0.14253
0.22117
0.31046
0.38664
0.40057
0.32520
0.16711
-0.02703
-0.21708
-0.37681
-0.49313
-0.57095
-0.62010
-0.63812
-0.61437
-0.55293
-0.45873
-0.34732
-0.24493
-0.16875
-0.11632
-0.08110
-0.06062
-0.04833
-0.03850
-0.03195
-0.02703
-0.02212
-0.01966
-0.01720
-0.01474
-0.01474
-0.01474
-0.01474
-0.01474
-0.01474
-0.01474
-0.01474
-0.01229
-0.00983
-0.00983
-0.00983
-0.00983
-0.00983
-0.00983
-0.00655
-0.00491
-0.00491
-0.00491
-0.00164
0.00328
0.00491
0.00491
0.00491
0.00491
0.00491
0.00819
0.01311
0.01474
0.01474
0.01474
0.01474
0.01474
0.01474
0.01474
0.01474
0.01474
0.01474
0.01474
0.01474
0.01474
0.01474
0.01474
0.01229
0.00983
0.00655
0.00491
0.00491
0.00819
0.00983
0.00983
0.00983
0.00983
0.00983
0.01311
0.01474
0.01474
0.01474
0.01474
0.01474
0.01474
0.01474
0.01474
0.01474
0.01474
0.01474
0.01474
0.01474
0.01474
0.01474
0.01474
0.01474
0.01474
0.01802
0.01966
0.01966
0.02294
0.02539
0.02539
0.02212
0.01966
0.01966
0.01966
0.01966
0.01966
0.01966
0.01720
0.01474
0.01474
0.01474
0.01474
0.01474
0.01802
0.01966
0.01966
0.01966
0.01720
0.01802
0.01966
0.01966
0.01966
0.01966
0.02294
0.02539
0.02539
0.02212
0.01966
0.02294
0.02539
0.02539
0.02539
0.02212
0.01720
0.01474
0.01229
0.00737
0.00246
-0.00328
-0.00491
-0.00491
-0.00819
-0.01311
-0.01802
-0.02294
-0.02539
-0.02785
-0.03031
-0.03031
-0.03031
-0.03277
-0.03522
-0.03522
-0.03522
-0.03522
-0.03195
-0.03031
-0.03031
-0.03031
-0.03031
-0.03031
-0.03031
-0.03031
-0.03031
-0.03031
-0.03031
-0.03031
-0.03031
-0.03031
-0.03031
-0.03031
-0.03031
-0.03277
-0.03522
-0.03768
-0.04014
-0.04260
-0.04505
-0.04178
-0.04014
-0.04260
-0.04505
-0.04505
-0.04505
-0.04505
-0.04505
-0.04505
-0.04505
-0.04505
-0.04505
-0.04260
-0.04014
-0.03686
-0.03195
-0.03031
-0.03277
-0.03522
-0.03522
-0.03522
-0.03522
-0.03195
-0.03031
-0.02130
-0.00655
0.00819
0.02294
0.03850
0.05325
0.06307
0.06471
0.06226
0.05980
0.06307
0.06471
0.06471
0.05980
0.04669
0.02621
0.00655
-0.00573
-0.01802
-0.02785
-0.03522
-0.04260
-0.04751
-0.05243
-0.05488
-0.05488
-0.05488
-0.05734
-0.05980
-0.06307
-0.06471
-0.06471
-0.06799
-0.06963
-0.06963
-0.06963
-0.07290
-0.07209
-0.07290
-0.07209
-0.06717
-0.06226
-0.05980
-0.05980
-0.05980
-0.05980
-0.05980
-0.05734
-0.05488
-0.05488
-0.05488
-0.05488
-0.05243
-0.04178
-0.01884
0.01065
0.04587
0.09420
0.15728
0.23510
0.32520
0.38336
0.37353
0.28916
0.12943
-0.06062
-0.24247
-0.39647
-0.50706
-0.58160
-0.62583
-0.63239
-0.59634
-0.52262
-0.42760
-0.32275
-0.22527
-0.15400
-0.10649
-0.07700
-0.05980
-0.04751
-0.03440
-0.02703
-0.02212
-0.01966
-0.01720
-0.01474
-0.01474
-0.01229
-0.00983
-0.00983
-0.00983
-0.01229
-0.01229
-0.00983
-0.00983
-0.00983
-0.00983
-0.00983
-0.00983
-0.00983
-0.00983
-0.00983
-0.00983
-0.00983
-0.00737
-0.00491
-0.00491
-0.00246
0.00000
0.00246
0.00737
0.00983
0.00983
0.01229
0.01474
0.01474
0.01474
0.01474
0.01720
0.01966
0.01966
0.01966
0.01966
0.01966
0.01966
0.01966
0.01966
0.01966
0.01720
0.01474
0.01474
0.01474
0.01474
0.01474
0.01474
0.01474
0.01474
0.01474
0.01474
0.01474
0.01474
0.01474
0.01474
0.01474
0.01474
0.01474
0.01474
0.01474
0.01474
0.01720
0.01966
0.01966
0.01966
0.01720
0.01474
0.01720
0.01966
0.02212
0.02539
0.02539
0.02539
0.02294
0.01966
0.01966
0.01966
0.01966
0.01966
0.01966
0.01966
0.02212
0.02539
0.02539
0.02539
0.02539
0.02539
0.02539
0.02294
0.01966
0.02212
0.02539
0.02539
0.02539
0.02539
0.02539
0.02539
0.02539
0.02703
0.03031
0.03031
0.03031
0.03277
0.03522
0.03277
0.03031
0.03031
0.03031
0.02785
0.02539
0.02539
0.02539
0.02294
0.01802
0.01229
0.00737
0.00246
-0.00246
-0.00737
-0.01229
-0.01966
-0.02703
-0.03031
-0.03031
-0.03031
-0.03031
-0.03031
-0.03031
-0.03195
-0.03522
-0.03522
-0.03522
-0.03522
-0.03522
-0.03522
-0.03522
-0.03522
-0.03522
-0.03522
-0.03768
-0.04260
-0.04505
-0.04505
-0.04505
-0.04505
-0.04505
-0.04505
-0.04751
-0.04997
-0.05243
-0.05488
-0.05488
-0.05488
-0.05488
-0.05488
-0.05488
-0.05488
-0.05488
-0.05488
-0.05488
-0.05488
-0.05488
-0.05488
-0.05488
-0.05488
-0.05488
-0.05488
-0.05488
-0.05488
-0.05488
-0.05488
-0.05734
-0.05980
-0.06226
-0.06471
-0.06471
-0.06471
-0.06471
-0.06471
-0.06471
-0.06471
-0.06307
-0.05816
-0.04833
-0.03522
-0.02130
-0.00573
0.00655
0.01966
0.02539
0.02539
0.02539
0.02539
0.02949
0.03686
0.03768
0.02867
0.01311
-0.00164
-0.01884
-0.03440
-0.04669
-0.05898
-0.06963
-0.07700
-0.08028
-0.08028
-0.08192
-0.08519
-0.08519
-0.08519
-0.08519
-0.08519
-0.08519
-0.08519
-0.08683
-0.09011
-0.09011
-0.09011
-0.09011
-0.09011
-0.09011
-0.09011
-0.09011
-0.09011
-0.09011
-0.09011
-0.08765
-0.08519
-0.08519
-0.08519
-0.08519
-0.08519
-0.08273
-0.08028
-0.07536
-0.06144
-0.03768
-0.00491
0.03604
0.09420
0.17284
0.26704
0.35469
0.39483
0.35961
0.23674
0.05161
-0.14663
-0.32520
-0.46118
-0.55457
-0.61355
-0.64222
-0.62829
-0.57423
-0.49067
-0.39156
-0.28834
-0.20069
-0.14171
-0.10076
-0.07372
-0.06062
-0.05079
-0.04096
-0.03277
-0.03031
-0.03031
-0.02785
-0.02539
-0.02539
-0.02539
-0.02539
-0.02539
-0.02703
-0.03031
-0.03031
-0.03031
-0.03031
-0.03031
-0.03031
-0.03031
-0.03031
-0.03031
-0.03031
-0.02785
-0.02539
-0.02294
-0.01802
-0.01474
-0.01474
-0.01311
-0.00819
-0.00491
-0.00491
-0.00491
-0.00328
0.00164
0.00491
0.00737
0.01229
0.01474
0.01474
0.01474
0.01311
0.00983
0.01229
0.01474
0.01474
0.01474
0.01474
0.01474
0.01474
0.01474
0.01474
0.01474
0.01474
0.01474
0.01474
0.01474
0.01474
0.01474
0.01474
0.01474
0.01720
0.02212
0.02703
0.03195
0.03522
0.03522
0.03522
0.03277
0.03195
0.03522
0.03522
0.03522
0.03277
0.03195
0.03522
0.03686
0.04014
0.04014
0.04014
0.04014
0.04178
0.04342
0.04014
0.04014
0.04014
0.04014
0.04014
0.04014
0.04014
0.03850
0.03522
0.03522
0.03686
0.03850
0.03522
0.03277
0.03195
0.03522
0.03522
0.03686
0.04014
0.04014
0.04014
0.04014
0.04014
0.04014
0.04014
0.04014
0.04014
0.04014
0.04014
0.04014
0.04014
0.04014
0.04014
0.03850
0.03522
0.03522
0.03359
0.02785
0.02294
0.01802
0.01474
0.01311
0.00819
0.00164
-0.00491
-0.00491
-0.00655
-0.00983
-0.00983
-0.01147
-0.01474
-0.01474
-0.01638
-0.01966
-0.02212
-0.02539
-0.02539
-0.02294
-0.01966
-0.01802
-0.01474
-0.01638
-0.01966
-0.01802
-0.01474
-0.01311
-0.00983
-0.00983
-0.00983
-0.00983
-0.00983
-0.01147
-0.01474
-0.01638
-0.02212
-0.02539
-0.02539
-0.02539
-0.02539
-0.02703
-0.03031
-0.03031
-0.03031
-0.03031
-0.03195
-0.03522
-0.03522
-0.03522
-0.03522
-0.03522
-0.03522
-0.03522
-0.03522
-0.03686
-0.04178
-0.04505
-0.04342
-0.04014
-0.04014
-0.04014
-0.04178
-0.04669
-0.04833
-0.04505
-0.04342
-0.03850
-0.03195
-0.01802
-0.00164
0.00983
0.02703
0.04178
0.04505
0.04669
0.04997
0.04997
0.05161
0.05652
0.05652
0.04505
0.02867
0.00819
-0.00983
-0.02294
-0.03686
-0.05161
-0.05816
-0.06635
-0.07127
-0.07536
-0.07700
-0.08028
-0.08028
-0.08192
-0.08519
-0.08519
-0.08355
-0.08028
-0.08028
-0.08028
-0.08028
-0.08028
-0.08028
-0.08028
-0.08028
-0.08028
-0.08028
-0.08028
-0.08028
-0.08028
-0.08028
-0.08028
-0.08028
-0.08028
-0.07864
-0.07536
-0.07536
-0.07372
-0.06717
-0.05652
-0.04096
-0.00901
0.03031
0.08683
0.15810
0.24165
0.33503
0.39483
0.37845
0.27032
0.10239
-0.08273
-0.26131
-0.41367
-0.52344
-0.59061
-0.63157
-0.63730
-0.59962
-0.52754
-0.43251
-0.32766
-0.23018
-0.15974
-0.11304
-0.07864
-0.06062
-0.04669
-0.03850
-0.03359
-0.03031
-0.03031
-0.03031
-0.03031
-0.03031
-0.02867
-0.02539
-0.02539
-0.02539
-0.02539
-0.02539
-0.02539
-0.02539
-0.02539
-0.02376
-0.02130
-0.02539
-0.02539
-0.02539
-0.02539
-0.02539
-0.02376
-0.01966
-0.01966
-0.01884
-0.01474
-0.01393
-0.00819
-0.00491
-0.00328
0.00000
0.00000
0.00000
0.00000
0.00000
0.00000
0.00000
0.00164
0.00491
0.00491
0.00655
0.00983
0.00819
0.00491
0.00328
0.00000
0.00000
-0.00164
-0.00491
-0.00491
-0.00491
-0.00491
-0.00491
-0.00491
-0.00491
-0.00328
0.00000
0.00000
0.00000
0.00000
0.00000
0.00000
0.00000
0.00164
0.00491
0.00491
0.00491
0.00328
0.00000
0.00164
0.00491
0.00491
0.00491
0.00655
0.01147
0.01393
0.00983
0.00983
0.01147
0.01393
0.00983
0.00983
0.01147
0.01474
0.01474
0.01393
0.00983
0.00983
0.00901
0.00491
0.00328
0.00000
0.00164
0.00491
0.00655
0.00983
0.00983
0.00983
0.00983
0.00983
0.00983
0.00983
0.00983
0.00983
0.00983
0.00983
0.01147
0.01474
0.01474
0.01474
0.01638
0.01966
0.01966
0.01884
0.01474
0.01474
0.01474
0.01393
0.00983
0.00901
0.00410
0.00000
-0.00164
-0.00491
-0.00655
-0.00983
-0.00983
-0.01229
-0.02130
-0.02539
-0.02376
-0.01966
-0.01966
-0.01966
-0.01884
-0.01393
-0.00983
-0.00901
-0.00491
-0.00491
-0.00491
-0.00491
-0.00410
0.00164
0.00655
0.00983
0.00983
0.01147
0.01393
0.00983
0.00983
0.00901
0.00491
0.00491
0.00491
0.00410
0.00000
0.00082
0.00491
0.00491
0.00491
0.00491
0.00246
-0.00491
-0.00655
-0.00983
-0.01147
-0.01474
-0.01638
-0.02130
-0.02539
-0.02621
-0.03031
-0.03031
-0.03031
-0.03031
-0.03031
-0.03031
-0.03031
-0.03031
-0.03031
-0.03031
-0.03031
-0.03031
-0.03031
-0.03031
-0.03031
-0.03031
-0.02785
-0.01638
-0.00246
0.00819
0.02457
0.04342
0.05734
0.06471
0.06471
0.06389
0.05980
0.06144
0.06471
0.06307
0.05161
0.03440
0.01147
-0.00246
-0.01474
-0.03113
-0.03686
-0.04587
-0.05079
-0.05488
-0.05570
-0.06144
-0.06471
-0.06635
-0.06881
-0.06635
-0.06963
-0.06881
-0.06471
-0.06471
-0.06471
-0.06471
-0.06471
-0.06471
-0.06389
-0.05980
-0.05980
-0.05980
-0.05980
-0.05980
-0.06144
-0.06471
-0.06471
-0.06471
-0.06635
-0.06963
-0.06881
-0.06471
-0.06389
-0.05898
-0.04997
-0.02457
0.00410
0.04915
0.09912
0.17202
0.25967
0.34814
0.39893
0.37681
0.27032
0.09502
-0.10239
-0.28097
-0.42678
-0.52835
-0.58815
-0.62174
-0.62338
-0.58078
-0.50624
-0.40958
-0.30391
-0.20643
-0.14089
-0.09994
-0.07536
-0.05243
-0.03768
-0.02867
-0.02376
-0.01884
-0.01474
-0.01393
-0.00983
-0.00983
-0.00901
-0.00491
-0.00573
-0.01065
-0.01393
-0.00983
-0.00983
-0.01065
-0.01393
-0.00983
-0.00983
-0.00983
-0.00983
-0.00901
-0.00491
-0.00491
-0.00491
-0.00491
-0.00410
0.00000
0.00082
0.00491
0.00573
0.01065
0.01474
0.01474
0.01474
0.01474
0.01474
0.01556
0.01966
0.01966
0.01966
0.02130
0.02539
0.02539
0.02539
0.02539
0.02539
0.02376
0.01884
0.01474
0.01474
0.01474
0.01474
0.01393
0.00983
0.00983
0.00983
0.00983
0.01065
0.01474
0.01474
0.01474
0.01474
0.01474
0.01474
0.01474
0.01474
0.01474
0.01474
0.01556
0.01966
0.02048
0.02539
0.02621
0.03031
0.03031
0.03031
0.03031
0.03031
0.03031
0.03031
0.03031
0.03031
0.03031
0.03031
0.03031
0.03031
0.03031
0.03031
0.03031
0.03113
0.03522
0.03440
0.03031
0.03031
0.03031
0.02949
0.02539
0.02539
0.02539
0.02539
0.02539
0.02539
0.03031
0.03031
0.03031
0.03031
0.03031
0.03031
0.03031
0.03031
0.02949
0.02539
0.02539
0.02539
0.02539
0.02539
0.02539
0.02457
0.01966
0.01966
0.01474
0.01393
0.00901
0.00410
-0.00082
-0.00573
-0.01065
-0.01556
-0.02048
-0.02539
-0.03031
-0.03031
-0.03031
-0.03604
-0.04014
-0.04014
-0.04014
-0.04096
-0.04505
-0.04587
-0.04915
-0.04505
-0.04505
-0.04505
-0.04505
-0.04587
-0.04997
-0.04997
-0.04997
-0.04997
-0.04997
-0.04997
-0.04915
-0.04505
-0.04505
-0.04505
-0.04423
-0.04014
-0.04014
-0.04014
-0.04014
-0.04014
-0.04014
-0.04096
-0.04587
-0.05079
-0.05488
-0.05488
-0.05488
-0.05488
-0.05488
-0.05488
-0.05488
-0.05488
-0.05488
-0.05570
-0.05980
-0.05980
-0.05980
-0.05980
-0.06062
-0.06471
-0.06471
-0.06471
-0.06389
-0.05406
-0.04833
-0.03359
-0.02294
-0.00819
0.00655
0.02048
0.02539
0.02539
0.02539
0.02539
0.02539
0.03031
0.03359
0.02294
0.00819
-0.00737
-0.02703
-0.04178
-0.05570
-0.06144
-0.07536
-0.08028
-0.08601
-0.09502
-0.09584
-0.09994
-0.09994
-0.09994
-0.09994
-0.10076
-0.10485
-0.10485
-0.10485
-0.10485
-0.10485
-0.09994
-0.09994
-0.09994
-0.09994
-0.09994
-0.09994
-0.09994
-0.09994
-0.09912
-0.09502
-0.09502
-0.09502
-0.09420
-0.09011
-0.08929
-0.08437
-0.07946
-0.07372
-0.06389
-0.04751
-0.02130
0.01393
0.05570
0.11796
0.19905
0.29244
0.36616
0.36698
0.28015
0.11714
-0.06635
-0.23346
-0.37517
-0.48166
-0.54883
-0.59061
-0.59716
-0.56358
-0.49149
-0.39565
-0.29080
-0.19332
-0.12615
-0.08765
-0.05898
-0.04342
-0.02949
-0.02376
-0.01393
-0.00491
-0.00491
0.00082
0.00491
0.00491
0.00491
0.00491
0.00491
0.00491
0.00491
-0.00082
-0.00491
-0.00491
-0.00491
-0.00491
-0.00491
-0.00491
-0.00491
-0.00491
-0.00491
-0.00491
-0.00491
-0.00491
-0.00491
-0.00491
-0.00491
0.00000
0.00000
0.00000
0.00491
0.00573
0.00983
0.01065
0.01474
0.01474
0.01474
0.01474
0.01474
0.01474
0.01474
0.01474
0.01474
0.01474
0.01474
0.01474
0.01474
0.01474
0.01474
0.01474
0.01474
0.01474
0.01474
0.01474
0.01474
0.01474
0.01474
0.01474
0.01474
0.01474
0.01474
0.01474
0.01474
0.01474
0.01556
0.02048
0.02539
0.02539
0.03031
0.03522
0.03440
0.03031
0.03031
0.03440
0.03031
0.02949
0.02539
0.02539
0.02539
0.03031
0.03522
0.03522
0.03522
0.03522
0.03440
0.03031
0.03031
0.03522
0.03522
0.03522
0.03440
0.03031
0.03031
0.03031
0.03440
0.02949
0.02539
0.02457
0.01966
0.01966
0.02048
0.02539
0.02539
0.03031
0.03031
0.03031
0.03522
0.03440
0.03031
0.03031
0.03031
0.03031
0.03031
0.03031
0.02949
0.02539
0.02539
0.02457
0.01966
0.01474
0.01474
0.01474
0.00983
0.00000
-0.00491
-0.00983
-0.01556
-0.01966
-0.02048
-0.02539
-0.02539
-0.03031
-0.03031
-0.03031
-0.03031
-0.03031
-0.03031
-0.03031
-0.03031
-0.03031
-0.03031
-0.02949
-0.02539
-0.02539
-0.03031
-0.03031
-0.03031
-0.03031
-0.03031
-0.02949
-0.02539
-0.03031
-0.03031
-0.03031
-0.03031
-0.03522
-0.03522
-0.04014
-0.04014
-0.04505
-0.04505
-0.04505
-0.04505
-0.04505
-0.04505
-0.04505
-0.04997
-0.04997
-0.04997
-0.04997
-0.05488
-0.05488
-0.04997
-0.05488
-0.05488
-0.05488
-0.05488
-0.05488
-0.05488
-0.05488
-0.05488
-0.05488
-0.05488
-0.04505
-0.02949
-0.01474
-0.00491
0.00983
0.02539
0.03522
0.03522
0.04014
0.03522
0.03522
0.04014
0.04014
0.04014
0.02457
0.00983
-0.00491
-0.02539
-0.03522
-0.04997
-0.05488
-0.06471
-0.06963
-0.07536
-0.08028
-0.08028
-0.08028
-0.08028
-0.08519
-0.09011
-0.09011
-0.09011
-0.09011
-0.09011
-0.08519
-0.08519
-0.08519
-0.09011
-0.09011
-0.09011
-0.09011
-0.09011
-0.09011
-0.08519
-0.08519
-0.08519
-0.08028
-0.08028
-0.08028
-0.08028
-0.07536
-0.06963
-0.06471
-0.05488
-0.04505
-0.01556
0.01474
0.06471
0.11960
0.19905
0.29408
0.38418
0.41941
0.38009
0.25148
0.05734
-0.13762
-0.31292
-0.44808
-0.53409
-0.59389
-0.61437
-0.61027
-0.56604
-0.48166
-0.37681
-0.26704
-0.18595
-0.13106
-0.09584
-0.07045
-0.05488
-0.04505
-0.03522
-0.03031
-0.03031
-0.02539
-0.02539
-0.02048
-0.01966
-0.01966
-0.01966
-0.01966
-0.01966
-0.01966
-0.01966
-0.02457
-0.02539
-0.02539
-0.02539
-0.02048
-0.01966
-0.01474
-0.01474
-0.01966
-0.01966
-0.01966
-0.01966
-0.01966
-0.01474
-0.01474
-0.01474
-0.01474
-0.01474
-0.00983
-0.00983
-0.00491
-0.00491
-0.00491
0.00000
0.00000
0.00000
0.00491
0.00491
0.00000
0.00000
-0.00491
-0.00491
-0.00491
-0.00491
-0.00983
-0.00983
-0.00983
-0.00983
-0.00983
-0.01474
-0.01474
-0.01474
-0.01474
-0.01474
-0.01474
-0.01474
-0.01474
-0.01474
-0.01474
-0.01474
-0.01474
-0.01474
-0.01474
-0.00983
-0.00983
-0.00983
-0.00983
-0.00491
-0.00491
-0.00491
-0.00491
-0.00491
-0.00491
-0.00491
0.00000
0.00000
0.00000
0.00000
0.00000
0.00000
0.00000
0.00000
0.00000
0.00000
0.00000
0.00000
-0.00491
-0.00491
-0.00491
0.00000
0.00000
0.00000
-0.00491
-0.00491
0.00000
0.00000
0.00000
0.00000
0.00000
0.00000
0.00000
0.00491
0.00491
0.00491
0.00491
0.00491
0.00983
0.00983
0.00983
0.00983
0.00983
0.00491
0.00491
0.00491
0.00491
0.00000
0.00000
-0.00491
-0.00491
-0.00491
-0.00983
-0.01474
-0.01966
-0.02457
-0.02949
-0.03031
-0.03440
-0.03932
-0.04014
-0.04423
-0.04014
-0.04014
-0.04014
-0.04014
-0.03522
-0.03031
-0.03031
-0.03031
-0.03031
-0.03031
-0.03031
-0.03031
-0.03031
-0.03031
-0.03031
-0.03031
-0.02539
-0.02539
-0.02539
-0.02539
-0.02048
-0.02457
-0.02539
-0.02539
-0.02539
-0.02539
-0.02539
-0.02949
-0.03031
-0.03031
-0.03440
-0.03522
-0.03932
-0.04014
-0.04423
-0.04505
-0.04014
-0.04014
-0.04014
-0.04014
-0.04014
-0.04014
-0.04014
-0.04423
-0.04505
-0.04505
-0.04505
-0.04505
-0.04014
-0.03113
-0.02130
-0.00655
0.00901
0.02376
0.03850
0.05325
0.06389
0.06471
0.06062
0.05980
0.05980
0.06471
0.06062
0.04178
0.02621
0.01147
-0.00328
-0.01884
-0.02867
-0.04342
-0.05406
-0.05488
-0.05980
-0.06471
-0.06963
-0.06963
-0.07454
-0.07536
-0.07946
-0.08028
-0.08028
-0.08028
-0.08028
-0.08028
-0.08028
-0.08028
-0.08028
-0.07536
-0.07536
-0.07536
-0.07045
-0.06963
-0.06553
-0.06471
-0.06471
-0.06471
-0.06963
-0.06963
-0.06963
-0.06553
-0.06471
-0.06062
-0.05570
-0.04178
-0.01311
0.01638
0.05079
0.09912
0.15810
0.24001
0.33422
0.40220
0.38828
0.27442
0.09256
-0.10158
-0.28343
-0.42432
-0.51525
-0.57750
-0.61109
-0.60617
-0.55703
-0.47101
-0.36780
-0.25885
-0.17448
-0.11222
-0.07454
-0.04833
-0.03195
-0.02130
-0.01556
-0.00655
-0.00491
-0.00491
-0.00082
0.00000
0.00000
0.00000
0.00000
-0.00410
-0.00491
-0.00491
-0.00491
-0.00491
-0.00491
-0.00491
-0.00491
-0.00491
-0.00491
-0.00491
-0.00491
-0.00491
-0.00491
-0.00491
-0.00491
-0.00491
-0.00491
-0.00082
0.00410
0.00491
0.00901
0.00983
0.00983
0.00983
0.00983
0.01393
0.01474
0.01474
0.01474
0.01474
0.01474
0.01474
0.01474
0.01474
0.01474
0.01474
0.01474
0.01474
0.01474
0.01474
0.01474
0.01474
0.01474
0.01474
0.01966
0.01966
0.01966
0.01966
0.02457
0.02048
0.01966
0.01966
0.01966
0.01966
0.01966
0.02457
0.02539
0.02949
0.03031
0.03031
0.03031
0.03031
0.03031
0.03440
0.03522
0.03932
0.04014
0.04014
0.04014
0.04014
0.03604
0.03522
0.03522
0.03522
0.03522
0.03522
0.03522
0.03522
0.03522
0.03522
0.03113
0.03031
0.03031
0.03031
0.03031
0.03031
0.03440
0.03522
0.03522
0.03113
0.03031
0.03031
0.03440
0.03932
0.04423
0.04505
0.04505
0.04096
0.04423
0.04096
0.04014
0.04014
0.04014
0.03604
0.03522
0.03113
0.03031
0.02621
0.02539
0.02048
0.01556
0.01474
0.01474
0.01065
0.00573
0.00082
0.00000
-0.00410
-0.00491
-0.00491
-0.00491
-0.00901
-0.00983
-0.00983
-0.00983
-0.00983
-0.00983
-0.00983
-0.00983
-0.00983
-0.00983
-0.00983
-0.00983
-0.00983
-0.00983
-0.01393
-0.01474
-0.01065
-0.01393
-0.01474
-0.01474
-0.01474
-0.01474
-0.01884
-0.02376
-0.02867
-0.03440
-0.03932
-0.04014
-0.04014
-0.04014
-0.04014
-0.04014
-0.04423
-0.04915
-0.04997
-0.04997
-0.04997
-0.04587
-0.04505
-0.04096
-0.04014
-0.04014
-0.04014
-0.04014
-0.04014
-0.04014
-0.04014
-0.04014
-0.04014
-0.04423
-0.04915
-0.04997
-0.04997
-0.04997
-0.04997
-0.04997
-0.04997
-0.05406
-0.05488
-0.05488
-0.05488
-0.05488
-0.05079
-0.03768
-0.02703
-0.01311
0.00164
0.01720
0.03195
0.03932
0.04014
0.04014
0.04014
0.04014
0.04014
0.04014
0.02376
0.00410
-0.01147
-0.02703
-0.04178
-0.05325
-0.06717
-0.07782
-0.08028
-0.08355
-0.08519
-0.08929
-0.09011
-0.09011
-0.09420
-0.09502
-0.09502
-0.09093
-0.09011
-0.08601
-0.08110
-0.08028
-0.07618
-0.07127
-0.07372
-0.07864
-0.08028
-0.08028
-0.08028
-0.08355
-0.08519
-0.08519
-0.08519
-0.08519
-0.08110
-0.08028
-0.08028
-0.08028
-0.07618
-0.06717
-0.05734
-0.03932
-0.01147
0.02621
0.07372
0.13926
0.22445
0.32275
0.39565
0.39483
0.31701
0.16793
-0.01638
-0.20233
-0.36452
-0.48084
-0.55866
-0.60945
-0.62420
-0.59798
-0.53245
-0.43825
-0.33422
-0.24083
-0.16629
-0.11550
-0.08601
-0.06471
-0.05243
-0.04260
-0.03604
-0.03113
-0.03031
-0.03031
-0.03031
-0.03031
-0.03031
-0.03031
-0.03031
-0.03031
-0.03031
-0.03031
-0.03031
-0.02621
-0.02539
-0.02130
-0.01638
-0.01147
-0.00983
-0.00983
-0.00983
-0.01393
-0.01147
-0.00983
-0.00655
-0.00491
-0.00491
-0.00491
-0.00491
-0.00491
-0.00164
0.00410
0.00901
0.00983
0.00983
0.00655
0.00491
0.00491
0.00491
0.00491
0.00491
0.00491
0.00491
0.00491
0.00491
0.00491
0.00491
0.00491
0.00491
0.00491
0.00491
0.00491
0.00491
0.00491
0.00491
0.00491
0.00491
0.00491
0.00491
0.00491
0.00491
0.00491
0.00491
0.00491
0.00491
0.00491
0.00164
0.00000
0.00000
0.00000
0.00000
0.00000
0.00328
0.00491
0.00491
0.00491
0.00491
0.00491
0.00491
0.00491
0.00491
0.00491
0.00901
0.00983
0.00983
0.00983
0.00983
0.00655
0.00491
0.00164
0.00000
0.00000
0.00000
0.00000
0.00000
-0.00328
-0.00491
-0.00491
-0.00491
-0.00901
-0.00983
-0.01393
-0.01474
-0.01884
-0.02376
-0.02867
-0.03031
-0.03031
-0.03031
-0.03031
-0.03031
-0.03031
-0.03031
-0.02621
-0.02539
-0.02539
-0.02867
-0.03359
-0.03850
-0.04014
-0.03604
-0.03522
-0.03850
-0.04342
-0.05243
-0.05488
-0.06226
-0.06471
-0.06471
-0.06881
-0.07372
-0.07864
-0.08028
-0.08683
-0.09338
-0.09830
-0.10321
-0.10895
-0.11386
-0.12205
-0.12533
-0.12861
-0.13352
-0.14171
-0.14499
-0.14827
-0.14991
-0.14991
-0.14991
-0.14991
-0.14991
-0.14991
-0.14991
-0.14991
-0.14991
-0.14991
-0.14991
-0.14991
-0.14663
-0.14171
-0.13680
-0.13516
-0.13188
-0.12615
-0.12533
-0.12533
-0.12533
-0.12123
-0.11960
-0.11632
-0.11141
-0.10649
-0.10485
-0.10158
-0.09994
-0.09994
-0.09666
-0.09502
-0.09175
-0.08683
-0.08192
-0.08028
-0.07618
-0.07127
-0.06963
-0.06963
-0.06635
-0.06471
-0.05816
-0.04833
-0.03440
-0.01638
-0.00328
0.01393
0.03359
0.04342
0.04833
0.04669
0.04505
0.04505
0.05161
0.05488
0.04833
0.03440
0.01966
0.00164
-0.00819
-0.02048
-0.03195
-0.04178
-0.05161
-0.05488
-0.05488
-0.05488
-0.05816
-0.05980
-0.06307
-0.06799
-0.07372
-0.07536
-0.07536
-0.07127
-0.06963
-0.06963
-0.06963
-0.06963
-0.06963
-0.06963
-0.06635
-0.06471
-0.06144
-0.05980
-0.05652
-0.05488
-0.05488
-0.05161
-0.04997
-0.04669
-0.04178
-0.03686
-0.03195
-0.02703
-0.01147
0.00819
0.03850
0.07372
0.11796
0.17858
0.25640
0.35142
0.42186
0.42023
0.33340
0.18267
-0.00410
-0.18267
-0.33585
-0.44480
-0.51443
-0.55457
-0.55539
-0.51033
-0.43088
-0.32766
-0.22772
-0.13926
-0.07372
-0.02867
0.00164
0.01966
0.03522
0.04014
0.04669
0.05325
0.06144
0.06471
0.06799
0.07290
0.07536
0.07536
0.07536
0.07536
0.07536
0.07536
0.07536
0.07536
0.07536
0.07536
0.07536
0.07536
0.07864
0.08028
0.08028
0.08028
0.08355
0.08519
0.08847
0.09011
0.09011
0.09338
0.09830
0.10649
0.10977
0.10977
0.10977
0.10977
0.10977
0.10977
0.10977
0.10977
0.10977
0.10977
0.10977
0.10977
0.10977
0.10649
0.10485
0.10158
0.09666
0.09502
0.09175
0.08683
0.08519
0.08519
0.08519
0.08192
0.07700
0.07209
0.06963
0.06717
0.06471
0.06144
0.05652
0.05488
0.05488
0.05488
0.05161
0.04997
0.04997
0.04997
0.04997
0.05325
0.05488
0.05161
0.04669
0.04178
0.04014
0.04014
0.04014
0.04014
0.04014
0.03686
0.03522
0.03522
0.03522
0.03195
0.03031
0.02703
0.02212
0.01966
0.02294
0.02212
0.01966
0.01720
0.01474
0.01474
0.01474
0.01802
0.02294
0.02539
0.02785
0.03031
0.03031
0.03031
0.03031
0.03031
0.03031
0.03031
0.02703
0.02539
0.02212
0.01966
0.01966
0.01966
0.01966
0.01966
0.01720
0.01474
0.01474
0.01229
0.00983
0.00655
0.00164
-0.00328
-0.00491
-0.00819
-0.01638
-0.02294
-0.02785
-0.03277
-0.03768
-0.04342
-0.04505
-0.04505
-0.04178
-0.04014
-0.04014
-0.04014
-0.04014
-0.04014
-0.04014
-0.04014
-0.03686
-0.03522
-0.03522
-0.03768
-0.04014
-0.04260
-0.04505
-0.04833
-0.04997
-0.04669
-0.04505
-0.04178
-0.04260
-0.04505
-0.04833
-0.05325
-0.05488
-0.05488
-0.05488
-0.05816
-0.05980
-0.05980
-0.06307
-0.06471
-0.06799
-0.06963
-0.06963
-0.06717
-0.06471
-0.06471
-0.06799
-0.06963
-0.06963
-0.06963
-0.06963
-0.07290
-0.07536
-0.07209
-0.06389
-0.05734
-0.04587
-0.03440
-0.01802
-0.00164
0.01065
0.01802
0.01966
0.01720
0.01474
0.01802
0.02294
0.01884
0.00655
-0.01147
-0.02867
-0.04669
-0.06389
-0.07536
-0.08847
-0.09748
-0.09994
-0.10321
-0.10485
-0.10485
-0.10485
-0.10485
-0.10485
-0.10813
-0.10977
-0.10977
-0.10977
-0.10977
-0.10977
-0.10977
-0.10977
-0.10731
-0.10485
-0.10485
-0.10485
-0.10485
-0.10485
-0.10239
-0.09994
-0.09994
-0.09994
-0.09994
-0.09994
-0.09994
-0.09994
-0.09994
-0.09748
-0.09256
-0.08192
-0.05816
-0.02212
0.02048
0.07946
0.15482
0.24329
0.33258
0.38091
0.34486
0.22363
0.05488
-0.12533
-0.29981
-0.44480
-0.54146
-0.60863
-0.65205
-0.65696
-0.61682
-0.54310
-0.44972
-0.34650
-0.25558
-0.19250
-0.14827
-0.11878
-0.10158
-0.08683
-0.08028
-0.07700
-0.07536
-0.07536
-0.07782
-0.07700
-0.07209
-0.07290
-0.07209
-0.06963
-0.07290
-0.07536
-0.07536
-0.07536
-0.07209
-0.07290
-0.07536
-0.07782
-0.08028
-0.08028
-0.08028
-0.08028
-0.08028
-0.08273
-0.08519
-0.08519
-0.08765
-0.09011
-0.08765
-0.08519
-0.08519
-0.08519
-0.08519
-0.08519
-0.08192
-0.08028
-0.08028
-0.08028
-0.08028
-0.08028
-0.07700
-0.07536
-0.07209
-0.06717
-0.06226
-0.05980
-0.05734
-0.05488
-0.05488
-0.05243
-0.04997
-0.04751
-0.04505
-0.04260
-0.04014
-0.03768
-0.03522
-0.03277
-0.03031
-0.02703
-0.01966
-0.01474
-0.01229
-0.00737
-0.00491
-0.00246
0.00000
0.00246
0.00491
0.00737
0.01229
0.01474
0.01802
0.02294
0.02539
0.02785
0.03031
0.03031
0.03031
0.03277
0.03522
0.03277
0.03031
0.03031
0.03031
0.03031
0.03277
0.03522
0.03522
0.03522
0.03522
0.03522
0.03522
0.03768
0.04014
0.04014
0.03768
0.03522
0.03277
0.03277
0.03522
0.03522
0.03522
0.03522
0.03522
0.03522
0.03768
0.03768
0.03522
0.03522
0.03522
0.03522
0.03522
0.03522
0.03522
0.03522
0.03522
0.03277
0.03031
0.02785
0.02539
0.02212
0.01720
0.01474
0.01474
0.01474
0.01474
0.01474
0.01474
0.01474
0.01474
0.01474
0.01474
0.01474
0.01474
0.01474
0.01474
0.01474
0.01720
0.02212
0.02539
0.02785
0.03277
0.03768
0.04014
0.04014
0.04014
0.04014
0.04014
0.04014
0.04014
0.04260
0.04505
0.04505
0.04505
0.04260
0.04014
0.04014
0.04014
0.04260
0.04260
0.04014
0.04014
0.04014
0.04014
0.04014
0.04014
0.04014
0.04014
0.04014
0.04014
0.04014
0.04014
0.04014
0.04014
0.04014
0.04014
0.04260
0.04505
0.05243
0.06717
0.07946
0.09256
0.10731
0.12451
0.13762
0.14253
0.14253
0.14008
0.14008
0.14253
0.14499
0.14008
0.12533
0.10567
0.08519
0.06799
0.05079
0.03522
0.02294
0.01229
0.00737
0.00246
-0.00246
-0.00491
-0.00491
-0.00491
-0.00737
-0.01229
-0.01474
-0.01720
-0.01966
-0.02212
-0.02539
-0.02539
-0.02539
-0.02539
-0.02703
-0.03031
-0.03031
-0.03031
-0.03031
-0.03031
-0.03031
-0.03031
-0.03031
-0.03031
-0.03031
-0.03195
-0.03277
-0.03031
-0.02785
-0.02048
-0.00573
0.01884
0.05079
0.09093
0.14499
0.21626
0.30063
0.36862
0.37845
0.31537
0.17776
-0.00082
-0.18185
-0.33831
-0.45791
-0.53737
-0.58815
-0.60781
-0.58488
-0.52426
-0.43743
-0.33585
-0.23428
-0.15564
-0.10239
-0.06635
-0.04096
-0.02294
-0.01065
-0.00491
-0.00246
-0.00246
-0.00491
-0.00491
-0.00737
-0.00983
-0.01229
-0.01474
-0.01474
-0.01311
-0.00983
-0.00819
-0.00491
-0.00491
-0.00491
-0.00491
-0.00491
-0.00491
-0.00737
-0.00983
-0.00983
-0.00983
-0.00819
-0.00491
-0.00491
-0.00491
-0.00491
-0.00491
-0.00246
0.00000
0.00246
0.00491
0.00737
0.01229
0.01474
0.01311
0.00983
0.00819
0.00491
0.00491
0.00246
0.00000
0.00000
-0.00246
-0.00491
-0.00491
-0.00491
-0.00491
-0.00491
-0.00491
-0.00491
-0.00491
-0.00491
-0.00491
-0.00491
-0.00491
-0.00491
-0.00328
0.00000
0.00246
0.00491
0.00491
0.00737
0.01229
0.01474
0.01474
0.01474
0.01311
0.00819
0.00491
0.00737
0.00983
0.00983
0.00983
0.00983
0.01229
0.01474
0.01474
0.01474
0.01474
0.01474
0.01474
0.01474
0.01474
0.01474
0.01474
0.01474
0.01474
0.01311
0.00983
0.00983
0.01229
0.01474
0.01474
0.01474
0.01474
0.01474
0.01720
0.01966
0.01966
0.02212
0.02539
0.02539
0.02294
0.01966
0.01966
0.01966
0.01802
0.01474
0.01474
0.01474
0.01474
0.01474
0.01474
0.01474
0.01474
0.01474
0.01311
0.00819
0.00328
-0.00164
-0.00491
-0.00737
-0.01229
-0.01720
-0.02212
-0.02703
-0.03031
-0.03195
-0.03522
-0.03522
-0.03522
-0.03686
-0.04014
-0.04014
-0.03768
-0.03522
-0.03522
-0.03522
-0.03522
-0.03686
-0.04014
-0.04014
-0.04014
-0.04014
-0.04014
-0.04014
-0.04014
-0.04014
-0.04178
-0.04505
-0.04505
-0.04669
-0.04997
-0.05161
-0.05488
-0.05488
-0.05652
-0.05980
-0.05980
-0.05980
-0.05980
-0.05980
-0.05980
-0.05980
-0.06226
-0.06471
-0.06471
-0.06717
-0.07209
-0.07536
-0.07536
-0.07536
-0.07536
-0.07127
-0.06144
-0.04751
-0.03113
-0.01720
-0.00164
0.00901
0.01474
0.01474
0.01474
0.01474
0.01720
0.02212
0.02294
0.01638
0.00246
-0.01720
-0.03522
-0.04833
-0.06062
-0.07372
-0.08192
-0.08683
-0.09011
-0.09011
-0.09175
-0.09502
-0.09502
-0.09338
-0.09011
-0.09011
-0.09011
-0.09011
-0.09011
-0.09011
-0.09011
-0.09011
-0.09011
-0.08847
-0.08519
-0.08355
-0.08028
-0.08028
-0.08028
-0.07782
-0.07536
-0.07536
-0.07536
-0.07536
-0.07536
-0.07536
-0.07536
-0.07290
-0.06799
-0.06144
-0.04587
-0.01720
0.01720
0.05734
0.11468
0.19168
0.28343
0.36452
0.38746
0.31783
0.16875
-0.00819
-0.18595
-0.34896
-0.47347
-0.55621
-0.60699
-0.62665
-0.60290
-0.53900
-0.44152
-0.33340
-0.23592
-0.16137
-0.10977
-0.07127
-0.04997
-0.03686
-0.02621
-0.01802
-0.01311
-0.00819
-0.00491
-0.00491
-0.00328
0.00000
0.00000
0.00164
0.00491
0.00491
0.00491
0.00491
0.00491
0.00491
0.00328
0.00000
0.00000
0.00000
0.00000
0.00164
0.00491
0.00491
0.00491
0.00655
0.01147
0.01474
0.01474
0.01474
0.01474
0.01474
0.01474
0.01638
0.01966
0.01966
0.02130
0.02376
0.01966
0.01966
0.01966
0.02130
0.02539
0.02376
0.01966
0.02130
0.02376
0.01966
0.01966
0.01966
0.01966
0.01966
0.01966
0.01966
0.01966
0.01966
0.01966
0.01966
0.02130
0.02376
0.01966
0.02130
0.02539
0.02621
0.03031
0.03031
0.03031
0.03031
0.03031
0.03031
0.03031
0.03031
0.03195
0.03522
0.03522
0.03686
0.03850
0.03686
0.04014
0.04014
0.04014
0.04014
0.04014
0.04014
0.04014
0.04014
0.04014
0.04014
0.04014
0.04014
0.04014
0.04014
0.04014
0.03850
0.03522
0.03522
0.03522
0.03522
0.03522
0.03522
0.03522
0.03686
0.04014
0.04014
0.04014
0.04014
0.04014
0.04014
0.04014
0.04014
0.04014
0.04014
0.03850
0.03522
0.03359
0.03031
0.02867
0.02539
0.02376
0.01884
0.01474
0.01393
0.00983
0.00983
0.00819
0.00328
0.00000
-0.00164
-0.00491
-0.00491
-0.00491
-0.00491
-0.00491
-0.00328
0.00000
0.00000
0.00164
0.00491
0.00655
0.00983
0.00983
0.00983
0.01147
0.01474
0.01474
0.01474
0.01474
0.01474
0.01474
0.01474
0.01474
0.01474
0.01474
0.01474
0.01393
0.00983
0.00983
0.00819
0.00328
0.00000
-0.00164
-0.00491
-0.00491
-0.00491
-0.00655
-0.01147
-0.01638
-0.02130
-0.02539
-0.02539
-0.02539
-0.02621
-0.02867
-0.02212
-0.01065
0.00410
0.01802
0.02949
0.04423
0.05734
0.06635
0.06963
0.06963
0.06963
0.06963
0.07127
0.07209
0.06062
0.04423
0.02457
0.00573
-0.00901
-0.02294
-0.03359
-0.04751
-0.05488
-0.05652
-0.05980
-0.06144
-0.06471
-0.06635
-0.06963
-0.06963
-0.07127
-0.07618
-0.07864
-0.07536
-0.07536
-0.07372
-0.06963
-0.06963
-0.06963
-0.06963
-0.06963
-0.06963
-0.06963
-0.07127
-0.07536
-0.07372
-0.07127
-0.07536
-0.07536
-0.07536
-0.07536
-0.07536
-0.07209
-0.06389
-0.05734
-0.04342
-0.01720
0.01393
0.05161
0.09912
0.15892
0.23510
0.30718
0.33913
0.29244
0.16793
-0.00246
-0.16957
-0.32111
-0.43497
-0.50706
-0.55375
-0.57996
-0.57013
-0.52180
-0.43907
-0.33585
-0.23837
-0.15564
-0.10158
-0.06881
-0.04669
-0.03359
-0.02867
-0.02376
-0.01884
-0.01229
-0.00491
-0.00491
-0.00491
-0.00655
-0.00983
-0.00983
-0.00983
-0.00983
-0.00983
-0.00983
-0.00983
-0.00901
-0.00491
-0.00491
-0.00655
-0.00983
-0.00901
-0.00491
-0.00491
-0.00491
-0.00491
-0.00410
0.00082
0.00491
0.00491
0.00655
0.00983
0.00983
0.01147
0.01474
0.01474
0.01474
0.01638
0.01966
0.01966
0.01966
0.01966
0.01966
0.01966
0.01884
0.01474
0.01474
0.01474
0.01474
0.01474
0.01474
0.01474
0.01393
0.00983
0.00901
0.00491
0.00491
0.00491
0.00573
0.01147
0.01474
0.01474
0.01474
0.01474
0.01474
0.01474
0.01474
0.01474
0.01474
0.01474
0.01638
0.01966
0.01966
0.01966
0.01966
0.01966
0.01966
0.01966
0.01966
0.01884
0.01474
0.01474
0.01474
0.01474
0.01474
0.01474
0.01474
0.01638
0.01966
0.02130
0.02376
0.01966
0.01966
0.01884
0.01474
0.01474
0.01474
0.01474
0.01474
0.01474
0.01474
0.01474
0.01474
0.01474
0.01474
0.01638
0.01966
0.01966
0.01966
0.01966
0.01966
0.01966
0.01884
0.01474
0.01474
0.01474
0.01474
0.01393
0.00819
-0.00082
-0.00491
-0.00573
-0.01065
-0.01556
-0.02130
-0.02621
-0.03031
-0.03113
-0.03604
-0.04096
-0.04587
-0.04997
-0.04997
-0.04997
-0.04997
-0.04997
-0.04997
-0.04915
-0.04505
-0.04423
-0.04014
-0.04014
-0.04014
-0.04014
-0.04096
-0.04505
-0.04505
-0.04505
-0.04505
-0.04505
-0.04505
-0.04505
-0.04505
-0.04505
-0.04587
-0.04997
-0.04997
-0.05079
-0.05488
-0.05488
-0.05488
-0.05570
-0.05980
-0.06062
-0.06471
-0.06471
-0.06471
-0.06471
-0.06471
-0.06553
-0.06963
-0.06963
-0.06963
-0.06963
-0.06963
-0.07127
-0.07536
-0.07536
-0.07290
-0.06307
-0.05161
-0.03359
-0.02130
-0.00246
0.01065
0.01556
0.01966
0.01966
0.01966
0.02048
0.02621
0.02867
0.01802
0.00655
-0.01311
-0.03277
-0.04669
-0.05734
-0.07127
-0.08110
-0.08601
-0.09093
-0.09584
-0.09994
-0.09994
-0.09994
-0.09994
-0.09994
-0.09994
-0.09994
-0.09994
-0.10076
-0.10485
-0.10485
-0.10485
-0.10485
-0.10485
-0.10403
-0.09994
-0.09994
-0.09994
-0.09912
-0.09502
-0.09502
-0.09502
-0.09502
-0.09502
-0.09502
-0.09502
-0.09420
-0.08929
-0.08437
-0.07864
-0.06635
-0.04014
-0.00410
0.03850
0.09502
0.16793
0.25640
0.33176
0.36452
0.31619
0.17858
-0.00655
-0.18841
-0.34896
-0.47183
-0.55293
-0.60454
-0.62993
-0.62338
-0.57341
-0.48985
-0.38500
-0.27851
-0.19742
-0.14417
-0.10649
-0.08273
-0.06881
-0.05898
-0.05406
-0.04997
-0.04915
-0.04423
-0.03932
-0.03522
-0.03440
-0.03031
-0.03031
-0.03031
-0.03031
-0.03031
-0.03031
-0.03031
-0.03031
-0.03031
-0.03031
-0.03031
-0.03031
-0.03031
-0.03031
-0.03031
-0.02949
-0.02457
-0.01966
-0.01966
-0.01474
-0.00901
-0.00491
-0.00491
-0.00410
0.00082
0.00491
0.00573
0.00983
0.01065
0.01474
0.01474
0.01556
0.01966
0.01966
0.01966
0.01966
0.01966
0.01966
0.01966
0.01966
0.01966
0.02048
0.02539
0.02539
0.03031
0.03031
0.02949
0.02539
0.02539
0.03031
0.03031
0.03522
0.03440
0.03031
0.02949
0.02539
0.02539
0.02539
0.02539
0.02539
0.02539
0.03031
0.03031
0.03031
0.03031
0.03031
0.03031
0.03031
0.02949
0.02539
0.02539
0.02539
0.02539
0.03031
0.02949
0.02539
0.02539
0.02949
0.02539
0.02457
0.01966
0.02048
0.02539
0.02539
0.02539
0.02539
0.02539
0.02539
0.02539
0.02457
0.02048
0.02539
0.02539
0.02457
0.01966
0.01966
0.01966
0.01966
0.01966
0.02048
0.02539
0.02539
0.03031
0.03031
0.03031
0.03031
0.03031
0.03031
0.02949
0.02376
0.01474
0.01393
0.00410
-0.00491
-0.00573
-0.01065
-0.01556
-0.02048
-0.02539
-0.02539
-0.03031
-0.03031
-0.03031
-0.03031
-0.03031
-0.03031
-0.03031
-0.03031
-0.03031
-0.03031
-0.02949
-0.02539
-0.02457
-0.01966
-0.01966
-0.01966
-0.01966
-0.01966
-0.02048
-0.02539
-0.02539
-0.02539
-0.02539
-0.03031
-0.03031
-0.03031
-0.03031
-0.03031
-0.03031
-0.03031
-0.03522
-0.03522
-0.03522
-0.03440
-0.03031
-0.03522
-0.03522
-0.04014
-0.04505
-0.04505
-0.04997
-0.04997
-0.04997
-0.04997
-0.04915
-0.03440
-0.02376
-0.00410
0.00573
0.01638
0.03031
0.04014
0.04014
0.04014
0.04014
0.04014
0.04505
0.04505
0.03850
0.01884
-0.00082
-0.01556
-0.03113
-0.04587
-0.05570
-0.06553
-0.07536
-0.08028
-0.08519
-0.08519
-0.08519
-0.09011
-0.09502
-0.09502
-0.09502
-0.09502
-0.09502
-0.09502
-0.09502
-0.09502
-0.09011
-0.09011
-0.08519
-0.08519
-0.08519
-0.08519
-0.08437
-0.08028
-0.08028
-0.08028
-0.08028
-0.08028
-0.08028
-0.08028
-0.08028
-0.08028
-0.08028
-0.07946
-0.07454
-0.05898
-0.03359
-0.00328
0.03277
0.08765
0.15400
0.23919
0.33176
0.37353
0.33995
0.21216
0.03277
-0.14171
-0.30063
-0.43415
-0.52754
-0.58160
-0.61519
-0.61355
-0.57668
-0.49559
-0.39074
-0.28670
-0.19824
-0.14335
-0.10403
-0.07946
-0.06963
-0.05488
-0.04997
-0.04505
-0.04505
-0.04014
-0.03522
-0.03031
-0.03031
-0.03031
-0.03031
-0.03031
-0.03522
-0.03522
-0.04014
-0.04014
-0.04014
-0.03522
-0.03522
-0.04014
-0.04014
-0.03522
-0.03522
-0.03031
-0.03031
-0.03031
-0.03031
-0.03031
-0.03031
-0.03031
-0.02949
-0.02539
-0.02457
-0.01966
-0.01474
-0.00983
-0.00491
-0.00491
-0.00491
-0.00491
-0.00491
-0.00491
0.00000
0.00000
0.00000
-0.00491
-0.00491
-0.00491
-0.00491
-0.00491
-0.00491
-0.00491
-0.00491
-0.00491
-0.00491
-0.00491
-0.00491
-0.00491
-0.00491
-0.00491
-0.00491
-0.00491
-0.00491
-0.00491
0.00000
0.00000
0.00000
0.00000
0.00000
0.00000
0.00000
0.00000
0.00491
0.00491
0.00491
0.00491
0.00491
0.00491
0.00491
0.00491
0.00491
0.00491
0.00983
0.01474
0.01474
0.01474
0.01474
0.01474
0.00983
0.00983
0.00983
0.01474
0.01474
0.01474
0.01474
0.01474
0.01474
0.01474
0.01474
0.00983
0.00983
0.00983
0.00983
0.00983
0.00983
0.00983
0.00983
0.01474
0.01474
0.01474
0.01474
0.01474
0.01474
0.01474
0.01474
0.01474
0.00983
0.00983
0.00983
0.00983
0.00491
0.00000
-0.00491
-0.00491
-0.00491
-0.00983
-0.01474
-0.01966
-0.02457
-0.03031
-0.03031
-0.03031
-0.03522
-0.03522
-0.03522
-0.03522
-0.03522
-0.03031
-0.03031
-0.03031
-0.03031
-0.02539
-0.02539
-0.02539
-0.02539
-0.02048
-0.01966
-0.01966
-0.01966
-0.01966
-0.01966
-0.01966
-0.01474
-0.01474
-0.01474
-0.01474
-0.01966
-0.01966
-0.01966
-0.01966
-0.01966
-0.01966
-0.01966
-0.02457
-0.02539
-0.02539
-0.02949
-0.03031
-0.03031
-0.03031
-0.03031
-0.03031
-0.03031
-0.03031
-0.03031
-0.03031
-0.03031
-0.03031
-0.03031
-0.02048
-0.01065
0.00000
0.01474
0.02949
0.03932
0.05406
0.05980
0.05980
0.05980
0.05980
0.06471
0.06471
0.06471
0.05079
0.03522
0.01556
0.00082
-0.01474
-0.02949
-0.03932
-0.04915
-0.05488
-0.06471
-0.06963
-0.07454
-0.07946
-0.08028
-0.07536
-0.07536
-0.07536
-0.07536
-0.07536
-0.07536
-0.07536
-0.07536
-0.07536
-0.07536
-0.07536
-0.07536
-0.07536
-0.07946
-0.07536
-0.07536
-0.07536
-0.07045
-0.06963
-0.06963
-0.06553
-0.06471
-0.06471
-0.06471
-0.06471
-0.06062
-0.05488
-0.04096
-0.01638
0.01311
0.04833
0.09666
0.16137
0.24493
0.33913
0.37353
0.33258
0.20807
0.02621
-0.15400
-0.31046
-0.43743
-0.52016
-0.57668
-0.61273
-0.61027
-0.56358
-0.48084
-0.37681
-0.27196
-0.18103
-0.12861
-0.08765
-0.06635
-0.05079
-0.04505
-0.04014
-0.03522
-0.03031
-0.03031
-0.03031
-0.03031
-0.03031
-0.03031
-0.03031
-0.03031
-0.03031
-0.03031
-0.03031
-0.03031
-0.03031
-0.03031
-0.03031
-0.03031
-0.03031
-0.03031
-0.03031
-0.03031
-0.03031
-0.03031
-0.03031
-0.03031
-0.02539
-0.02539
-0.02048
-0.01556
-0.01065
-0.00573
-0.00491
-0.00491
-0.00082
0.00000
0.00000
0.00491
0.00491
0.00491
0.00491
0.00491
0.00082
0.00000
0.00000
0.00000
0.00000
0.00000
-0.00491
-0.00491
-0.00491
-0.00491
-0.00491
-0.00491
-0.00491
-0.00491
-0.00491
-0.00491
-0.00491
-0.00491
-0.00082
0.00000
0.00491
0.00491
0.00983
0.00983
0.00983
0.00573
0.00491
0.00491
0.00491
0.00491
0.00491
0.00983
0.00983
0.01474
0.01474
0.01474
0.01474
0.01474
0.01474
0.01474
0.01474
0.01474
0.01474
0.01065
0.00983
0.00983
0.00983
0.00983
0.00983
0.00573
0.00491
0.00491
0.00491
0.00491
0.00491
0.00491
0.00491
0.00491
0.00491
0.00491
0.00491
0.00491
0.00082
0.00000
0.00000
0.00000
0.00000
0.00000
0.00000
0.00410
0.00491
0.00983
0.00983
0.00573
0.00491
0.00082
0.00000
-0.00410
-0.00901
-0.01474
-0.01966
-0.02457
-0.02949
-0.03031
-0.03440
-0.03932
-0.04014
-0.04423
-0.04915
-0.04997
-0.04997
-0.04997
-0.04587
-0.04505
-0.04915
-0.04997
-0.04587
-0.04505
-0.04505
-0.04505
-0.04505
-0.04505
-0.04505
-0.04096
-0.04014
-0.04014
-0.04014
-0.04014
-0.04423
-0.04505
-0.04505
-0.04505
-0.04505
-0.04915
-0.04997
-0.04997
-0.04997
-0.04997
-0.04997
-0.05406
-0.05488
-0.05488
-0.05488
-0.05488
-0.05488
-0.05488
-0.05488
-0.05488
-0.05488
-0.05488
-0.05488
-0.05488
-0.05898
-0.05980
-0.05980
-0.05980
-0.05980
-0.05980
-0.05980
-0.05570
-0.05079
-0.03686
-0.02621
-0.01229
0.00246
0.01393
0.02785
0.03440
0.03932
0.04014
0.03604
0.03932
0.04014
0.04014
0.02703
0.01229
-0.00246
-0.01802
-0.03277
-0.04751
-0.05406
-0.06389
-0.07372
-0.07536
-0.07946
-0.08028
-0.08028
-0.08028
-0.08028
-0.08028
-0.08028
-0.08028
-0.08028
-0.08028
-0.08028
-0.08028
-0.08028
-0.08028
-0.08028
-0.08028
-0.08028
-0.07618
-0.07045
-0.06963
-0.06553
-0.06471
-0.06471
-0.06471
-0.06471
-0.06471
-0.06471
-0.06062
-0.05980
-0.05980
-0.05570
-0.03850
-0.00983
0.01966
0.05816
0.11059
0.18267
0.27032
0.35551
0.39074
0.34896
0.22363
0.04587
-0.13844
-0.29490
-0.41941
-0.50624
-0.56112
-0.59061
-0.57423
-0.52835
-0.44562
-0.34323
-0.24247
-0.16301
-0.10895
-0.07536
-0.05325
-0.03359
-0.02212
-0.01147
-0.00573
-0.00491
-0.00491
-0.00491
-0.00082
0.00410
0.00491
0.00491
0.00082
0.00000
0.00000
0.00410
0.00491
0.00082
-0.00410
-0.00491
-0.00491
-0.00491
-0.00901
-0.00983
-0.00983
-0.00983
-0.00983
-0.00983
-0.00573
-0.00491
0.00328
0.00901
0.01393
0.01474
0.01474
0.01474
0.01474
0.01474
0.01474
0.01884
0.01966
0.01966
0.01966
0.01966
0.01556
0.01474
0.01474
0.01474
0.01474
0.01474
0.01474
0.01065
0.00983
0.00983
0.01393
0.01474
0.01474
0.01474
0.01474
0.01474
0.01474
0.01474
0.01474
0.01474
0.01474
0.01474
0.01474
0.01474
0.01474
0.01474
0.01474
0.01474
0.01474
0.01474
0.01474
0.01474
0.01474
0.01474
0.01474
0.01474
0.01474
0.01474
0.01474
0.01474
0.01474
0.01884
0.01966
0.01966
0.01638
0.01474
0.01474
0.01884
0.01966
0.01966
0.01966
0.01638
0.01474
0.01474
0.01474
0.01474
0.01474
0.01474
0.01474
0.01474
0.01474
0.01474
0.01474
0.01474
0.01474
0.01474
0.01474
0.01474
0.01474
0.01474
0.01474
0.01474
0.01474
0.01474
0.01474
0.01147
0.00573
0.00082
0.00000
-0.00410
-0.00901
-0.01393
-0.02294
-0.02867
-0.03359
-0.03850
-0.04423
-0.04505
-0.04915
-0.04997
-0.04997
-0.04997
-0.04997
-0.04587
-0.04505
-0.04096
-0.04014
-0.03604
-0.03522
-0.03522
-0.03522
-0.03522
-0.03522
-0.03522
-0.03522
-0.03522
-0.03522
-0.03522
-0.03850
-0.04014
-0.04342
-0.04915
-0.04997
-0.05406
-0.05488
-0.05488
-0.05488
-0.05488
-0.05488
-0.05488
-0.05488
-0.05488
-0.05488
-0.05488
-0.05488
-0.05488
-0.05488
-0.05488
-0.05488
-0.05488
-0.05488
-0.05898
-0.05980
-0.06389
-0.06471
-0.06471
-0.06471
-0.06144
-0.05652
-0.04342
-0.02867
-0.01393
0.00164
0.01229
0.02212
0.02539
0.02539
0.02539
0.02539
0.02867
0.03359
0.03113
0.01884
0.00000
-0.01638
-0.03113
-0.04587
-0.05734
-0.06717
-0.07782
-0.08028
-0.08355
-0.08847
-0.09011
-0.09338
-0.09502
-0.09502
-0.09502
-0.09502
-0.09502
-0.09502
-0.09502
-0.09502
-0.09093
-0.09011
-0.09011
-0.09011
-0.09011
-0.09011
-0.09011
-0.09011
-0.09011
-0.09011
-0.09011
-0.09011
-0.09011
-0.09011
-0.09011
-0.08601
-0.08519
-0.08110
-0.08028
-0.07290
-0.05570
-0.02785
0.00573
0.04751
0.10403
0.17120
0.25230
0.33667
0.36698
0.31537
0.18267
-0.00164
-0.18595
-0.34404
-0.46856
-0.55047
-0.60290
-0.62583
-0.60863
-0.54965
-0.45791
-0.35060
-0.24820
-0.16957
-0.11796
-0.08683
-0.06226
-0.04423
-0.03277
-0.02621
-0.02130
-0.01638
-0.01147
-0.00983
-0.00655
-0.00491
-0.00491
-0.00491
-0.00819
-0.00983
-0.01393
-0.01474
-0.01884
-0.01966
-0.01638
-0.01474
-0.01474
-0.01474
-0.01474
-0.01474
-0.01474
-0.01147
-0.00655
-0.00491
-0.00491
-0.00164
0.00328
0.00819
0.01393
0.01474
0.01474
0.01474
0.01884
0.02376
0.02867
0.03031
0.03031
0.03031
0.03031
0.03031
0.03031
0.03031
0.03031
0.03031
0.03031
0.03031
0.02621
0.02539
0.02867
0.03031
0.03686
0.04014
0.04014
0.04014
0.04342
0.04505
0.04833
0.04997
0.04997
0.04997
0.04997
0.04997
0.04669
0.04505
0.04505
0.04505
0.04833
0.04997
0.04997
0.04997
0.04997
0.04997
0.04997
0.04997
0.04997
0.04997
0.04997
0.04997
0.05325
0.05488
0.05488
0.05488
0.05488
0.05488
0.05488
0.05161
0.04997
0.04997
0.04997
0.04997
0.04669
0.04178
0.04014
0.04014
0.04014
0.04014
0.04014
0.04014
0.03686
0.03522
0.03522
0.03522
0.03522
0.03522
0.03522
0.03522
0.03522
0.03522
0.03522
0.03522
0.03522
0.03522
0.03522
0.03522
0.03195
0.02703
0.02130
0.01638
0.01474
0.01474
0.00819
0.00164
-0.00328
-0.00819
-0.01311
-0.01802
-0.02294
-0.02867
-0.03031
-0.03031
-0.03031
-0.03031
-0.03031
-0.03031
-0.03031
-0.03031
-0.03031
-0.03031
-0.02703
-0.02539
-0.02539
-0.02539
-0.02539
-0.02539
-0.02867
-0.03031
-0.03031
-0.03031
-0.03031
-0.03031
-0.03031
-0.03031
-0.03359
-0.03522
-0.03850
-0.04014
-0.04014
-0.04014
-0.04014
-0.04342
-0.04505
-0.04505
-0.04505
-0.04505
-0.04505
-0.04833
-0.04997
-0.04997
-0.04997
-0.05325
-0.05488
-0.05488
-0.05488
-0.05488
-0.05488
-0.05488
-0.05488
-0.05488
-0.05488
-0.05816
-0.05980
-0.05652
-0.05161
-0.04342
-0.03359
-0.01720
0.00000
0.01474
0.02949
0.03850
0.04014
0.03686
0.03850
0.04014
0.04014
0.04014
0.02703
0.00737
-0.01311
-0.02949
-0.04423
-0.05652
-0.06635
-0.07618
-0.08028
-0.08028
-0.08355
-0.08519
-0.08519
-0.08847
-0.09011
-0.09011
-0.09011
-0.09338
-0.09175
-0.09011
-0.08683
-0.08519
-0.08847
-0.09011
-0.09011
-0.09011
-0.09011
-0.09011
-0.09011
-0.09011
-0.09011
-0.09011
-0.09011
-0.09011
-0.08683
-0.08519
-0.08519
-0.08192
-0.08028
-0.08028
-0.07045
-0.05243
-0.02621
0.00655
0.05079
0.11386
0.19250
0.28425
0.35142
0.34814
0.26704
0.12615
-0.05243
-0.23018
-0.38173
-0.49395
-0.57013
-0.61682
-0.62993
-0.60536
-0.53737
-0.44316
-0.34650
-0.25476
-0.17694
-0.12205
-0.08929
-0.06799
-0.05079
-0.03850
-0.03195
-0.03031
-0.03031
-0.02703
-0.02539
-0.02539
-0.02539
-0.02539
-0.02539
-0.02785
-0.03031
-0.03031
-0.03031
-0.03031
-0.03031
-0.03031
-0.03031
-0.03031
-0.03031
-0.03031
-0.03031
-0.02703
-0.02539
-0.02212
-0.01966
-0.01720
-0.01229
-0.00983
-0.00983
-0.00983
-0.00737
-0.00491
-0.00491
-0.00491
-0.00491
-0.00491
-0.00164
0.00000
0.00000
0.00000
0.00000
0.00000
0.00000
0.00000
0.00000
0.00328
0.00491
0.00491
0.00491
0.00491
0.00819
0.00983
0.00983
0.00983
0.00983
0.00983
0.00983
0.00983
0.00983
0.00983
0.00983
0.00983
0.00983
0.00983
0.00983
0.00983
0.00983
0.00983
0.01311
0.01474
0.01474
0.01474
0.01474
0.01474
0.01474
0.01802
0.01966
0.02294
0.02539
0.02539
0.02539
0.02539
0.02539
0.02212
0.01966
0.01966
0.01966
0.01966
0.01720
0.01474
0.01474
0.01474
0.01474
0.01474
0.01474
0.01474
0.01474
0.01474
0.01474
0.01474
0.01474
0.01474
0.01474
0.01474
0.01474
0.01474
0.01474
0.01474
0.01474
0.01802
0.01966
0.01966
0.02294
0.02212
0.01966
0.01720
0.01474
0.01474
0.01229
0.00737
0.00246
-0.00246
-0.00491
-0.00819
-0.01311
-0.01802
-0.01966
-0.02294
-0.02539
-0.02539
-0.02539
-0.02212
-0.01966
-0.01966
-0.01966
-0.01966
-0.01966
-0.02294
-0.02539
-0.02212
-0.02294
-0.02539
-0.02539
-0.02539
-0.02212
-0.01966
-0.01966
-0.01966
-0.01966
-0.01966
-0.01966
-0.02294
-0.02539
-0.02539
-0.02785
-0.03031
-0.03031
-0.03031
-0.03031
-0.03031
-0.03277
-0.03522
-0.03768
-0.04260
-0.04505
-0.04505
-0.04505
-0.04505
-0.04505
-0.04505
-0.04505
-0.04505
-0.04505
-0.04505
-0.04505
-0.04505
-0.04260
-0.04014
-0.04014
-0.04014
-0.04014
-0.04014
-0.04014
-0.04014
-0.04014
-0.04014
-0.03768
-0.03195
-0.02703
-0.01393
0.00000
0.01065
0.02539
0.04014
0.04997
0.05488
0.05243
0.04997
0.04997
0.05243
0.05488
0.04997
0.03440
0.01720
0.00164
-0.01556
-0.03031
-0.04260
-0.05243
-0.06062
-0.06799
-0.06963
-0.06963
-0.06963
-0.06963
-0.07290
-0.07536
-0.07536
-0.07536
-0.07536
-0.07536
-0.07536
-0.07536
-0.07536
-0.07536
-0.07782
-0.08028
-0.08028
-0.08028
-0.08028
-0.08028
-0.07700
-0.07536
-0.07536
-0.07209
-0.06717
-0.06471
-0.06471
-0.06226
-0.05734
-0.04997
-0.04014
-0.02457
0.00082
0.02785
0.06307
0.11059
0.17120
0.25148
0.33340
0.37026
0.32111
0.19578
0.03031
-0.14171
-0.30145
-0.43088
-0.51852
-0.57259
-0.59471
-0.57505
-0.51443
-0.42186
-0.31456
-0.21216
-0.13188
-0.07700
-0.04014
-0.01474
0.00000
0.00983
0.01474
0.01720
0.01966
0.01966
0.01966
0.01966
0.01966
0.01966
0.01966
0.01720
0.01474
0.01474
0.01474
0.01474
0.01474
0.01474
0.01474
0.01474
0.01474
0.01229
0.01229
0.01474
0.01474
0.01474
0.01474
0.01474
0.01474
0.01720
0.01966
0.02212
0.02294
0.01966
0.01966
0.01966
0.01720
0.01474
0.01474
0.01474
0.01474
0.01474
0.01474
0.01474
0.01720
0.01966
0.01966
0.02212
0.02294
0.01966
0.01720
0.01474
0.01474
0.01474
0.01474
0.01474
0.01474
0.01474
0.01474
0.01474
0.01474
0.01474
0.01474
0.01720
0.02212
0.02539
0.02294
0.01966
0.02212
0.02703
0.02785
0.02539
0.02539
0.02539
0.02539
0.02539
0.02703
0.03031
0.03277
0.03768
0.04014
0.04014
0.04014
0.04014
0.04014
0.04014
0.04014
0.03768
0.03277
0.02785
0.02539
0.02294
0.02212
0.02539
0.02539
0.02539
0.02539
0.02539
0.02539
0.02539
0.02703
0.03031
0.03031
0.03031
0.03031
0.02785
0.02539
0.02539
0.02703
0.03031
0.03195
0.03277
0.03031
0.03031
0.02785
0.02539
0.02539
0.02294
0.01802
0.01311
0.00737
0.00246
-0.00246
-0.00491
-0.00737
-0.01229
-0.01720
-0.02212
-0.02539
-0.02539
-0.02539
-0.02539
-0.02703
-0.03031
-0.03031
-0.03195
-0.03686
-0.04260
-0.04505
-0.04260
-0.04014
-0.04014
-0.04014
-0.04260
-0.04505
-0.04505
-0.04505
-0.04505
-0.04505
-0.04505
-0.04505
-0.04505
-0.04505
-0.04751
-0.04997
-0.04997
-0.04997
-0.05243
-0.05488
-0.05488
-0.05488
-0.05488
-0.05488
-0.05488
-0.05488
-0.05488
-0.05734
-0.05980
-0.06226
-0.06471
-0.06717
-0.06963
-0.06963
-0.06963
-0.06963
-0.06963
-0.06963
-0.06963
-0.06799
-0.06307
-0.05816
-0.05734
-0.05980
-0.06226
-0.06471
-0.06717
-0.07209
-0.07536
-0.07700
-0.08028
-0.08028
-0.08028
-0.07536
-0.06389
-0.04833
-0.03604
-0.01966
0.00164
0.01229
0.01720
0.01802
0.01474
0.01720
0.02212
0.02703
0.02539
0.01393
-0.00328
-0.02130
-0.03850
-0.05406
-0.06635
-0.07700
-0.08437
-0.09175
-0.09748
-0.09994
-0.09994
-0.10239
-0.10321
-0.09994
-0.09994
-0.09994
-0.09994
-0.09994
-0.10239
-0.10485
-0.10321
-0.09994
-0.09994
-0.09994
-0.09830
-0.09502
-0.09502
-0.09502
-0.09502
-0.09502
-0.09502
-0.09502
-0.09502
-0.09256
-0.08765
-0.08519
-0.08273
-0.08028
-0.07618
-0.06226
-0.03604
-0.00082
0.04260
0.10321
0.17939
0.26623
0.33831
0.34896
0.28097
0.14827
-0.02457
-0.20561
-0.36780
-0.49149
-0.56931
-0.61928
-0.63812
-0.61682
-0.55621
-0.46528
-0.36534
-0.26950
-0.18922
-0.13188
-0.09502
-0.07372
-0.06144
-0.05079
-0.04342
-0.03768
-0.03277
-0.03031
-0.02785
-0.02539
-0.02539
-0.02539
-0.02539
-0.02703
-0.03031
-0.03031
-0.03031
-0.03031
-0.03031
-0.03031
-0.03031
-0.03031
-0.03031
-0.03031
-0.02785
-0.02539
-0.02539
-0.02539
-0.02539
-0.02539
-0.02294
-0.01966
-0.01802
-0.01474
-0.01474
-0.01311
-0.00819
-0.00491
-0.00491
-0.00491
-0.00328
0.00164
0.00491
0.00328
0.00000
0.00000
-0.00164
-0.00491
-0.00491
-0.00491
-0.00491
-0.00491
-0.00491
-0.00491
-0.00491
-0.00491
-0.00491
-0.00491
-0.00328
0.00164
0.00491
0.00655
0.01147
0.01474
0.01474
0.01474
0.01474
0.01474
0.01474
0.01474
0.01474
0.01474
0.01474
0.01474
0.01474
0.01474
0.01474
0.01720
0.01966
0.01966
0.01966
0.01966
0.01966
0.02212
0.02539
0.02539
0.02294
0.01966
0.01966
0.01966
0.01966
0.01966
0.01966
0.01966
0.01966
0.01966
0.01966
0.01802
0.01474
0.01474
0.01474
0.01474
0.01474
0.01474
0.01474
0.01474
0.01474
0.01474
0.01638
0.01966
0.02212
0.02539
0.02539
0.02703
0.03031
0.03031
0.03031
0.03031
0.03031
0.02785
0.02294
0.01802
0.01474
0.01311
0.00819
0.00328
0.00000
-0.00164
-0.00491
-0.00491
-0.00655
-0.01147
-0.01474
-0.01638
-0.02212
-0.02539
-0.02539
-0.02539
-0.02539
-0.02539
-0.02539
-0.02539
-0.02539
-0.02294
-0.01966
-0.01966
-0.01966
-0.01966
-0.01966
-0.01802
-0.01474
-0.01638
-0.01966
-0.02130
-0.02539
-0.02539
-0.02539
-0.02539
-0.02539
-0.02539
-0.02539
-0.02539
-0.02539
-0.02703
-0.03031
-0.03031
-0.03031
-0.03031
-0.03031
-0.03195
-0.03686
-0.04014
-0.04178
-0.04505
-0.04342
-0.04014
-0.04014
-0.04014
-0.04014
-0.04014
-0.03850
-0.03522
-0.03522
-0.03522
-0.03522
-0.03522
-0.03522
-0.03522
-0.03359
-0.03031
-0.02539
-0.01147
0.00164
0.01966
0.03440
0.04997
0.06144
0.06635
0.06963
0.06881
0.06635
0.07127
0.07618
0.07700
0.06553
0.04997
0.03359
0.01720
0.00491
-0.00655
-0.01474
-0.02621
-0.03195
-0.03686
-0.04014
-0.04178
-0.04669
-0.04997
-0.04997
-0.05161
-0.05488
-0.05488
-0.05488
-0.05325
-0.04997
-0.05161
-0.05488
-0.05488
-0.05488
-0.05488
-0.05488
-0.05488
-0.05652
-0.05980
-0.05816
-0.05488
-0.05488
-0.05488
-0.05488
-0.05488
-0.05488
-0.05488
-0.05325
-0.04587
-0.03031
-0.01065
0.01884
0.05161
0.09666
0.15728
0.23674
0.32111
0.37026
0.34323
0.23100
0.06226
-0.11468
-0.27933
-0.41695
-0.51525
-0.57832
-0.61273
-0.61273
-0.57423
-0.49477
-0.38828
-0.28425
-0.19987
-0.13516
-0.09093
-0.06389
-0.04587
-0.03359
-0.02703
-0.01884
-0.01393
-0.00983
-0.00819
-0.00491
-0.00491
-0.00491
-0.00655
-0.00983
-0.00983
-0.00983
-0.00983
-0.00983
-0.00983
-0.00819
-0.00491
-0.00491
-0.00491
-0.00491
-0.00328
-0.00164
-0.00491
-0.00491
-0.00328
0.00000
0.00164
0.00655
0.01147
0.01474
0.01474
0.01474
0.01474
0.01474
0.01474
0.01474
0.01638
0.01966
0.01966
0.02130
0.02376
0.01966
0.01966
0.01966
0.01966
0.01966
0.01966
0.01966
0.01884
0.01638
0.01966
0.01966
0.02130
0.02376
0.01966
0.01966
0.01884
0.01474
0.01474
0.01474
0.01474
0.01474
0.01474
0.01474
0.01474
0.01474
0.01474
0.01638
0.01966
0.02130
0.02539
0.02376
0.01966
0.01966
0.01966
0.01966
0.01966
0.01966
0.02130
0.02539
0.02539
0.02539
0.02539
0.02539
0.02621
0.03031
0.03031
0.03031
0.03031
0.02867
0.02539
0.02376
0.02130
0.02539
0.02621
0.03031
0.03031
0.02867
0.02539
0.02539
0.02539
0.02539
0.02539
0.02539
0.02539
0.02539
0.02621
0.03031
0.03031
0.03031
0.03031
0.03031
0.02867
0.02539
0.02539
0.02539
0.02539
0.02376
0.01884
0.01474
0.01474
0.01393
0.00901
0.00410
-0.00082
-0.00655
-0.01147
-0.01638
-0.02130
-0.02621
-0.03031
-0.03113
-0.03522
-0.03522
-0.03359
-0.03031
-0.03031
-0.03031
-0.03031
-0.03031
-0.03031
-0.03031
-0.03031
-0.03031
-0.03113
-0.03522
-0.03604
-0.04014
-0.04096
-0.04505
-0.04505
-0.04505
-0.04505
-0.04505
-0.04505
-0.04505
-0.04587
-0.04997
-0.05079
-0.05488
-0.05488
-0.05488
-0.05488
-0.05488
-0.05488
-0.05570
-0.05980
-0.05980
-0.05980
-0.05980
-0.05980
-0.05980
-0.05898
-0.05488
-0.05570
-0.05980
-0.05980
-0.05980
-0.06144
-0.06471
-0.06471
-0.06471
-0.06471
-0.06471
-0.06471
-0.06635
-0.06963
-0.06963
-0.06963
-0.06963
-0.06881
-0.06307
-0.05079
-0.03277
-0.02048
-0.00164
0.01229
0.02130
0.02539
0.02376
0.01966
0.02130
0.02621
0.03113
0.03195
0.01720
0.00164
-0.01393
-0.03195
-0.04342
-0.05570
-0.06226
-0.07209
-0.08028
-0.08028
-0.08110
-0.08519
-0.08519
-0.08519
-0.08519
-0.08519
-0.08601
-0.09011
-0.09011
-0.09011
-0.09011
-0.09011
-0.09011
-0.08929
-0.08519
-0.08519
-0.08519
-0.08437
-0.08028
-0.08028
-0.08028
-0.08028
-0.08028
-0.08028
-0.08028
-0.07864
-0.07536
-0.07372
-0.06881
-0.06307
-0.04997
-0.02457
0.00737
0.04997
0.10813
0.18267
0.27606
0.35142
0.36862
0.29408
0.14827
-0.02294
-0.20151
-0.36370
-0.48576
-0.56604
-0.61928
-0.63566
-0.60372
-0.53900
-0.44562
-0.34159
-0.24493
-0.16629
-0.11796
-0.08028
-0.05816
-0.04751
-0.03440
-0.02949
-0.02376
-0.01884
-0.01474
-0.01393
-0.00983
-0.00983
-0.01065
-0.01474
-0.01393
-0.00983
-0.01065
-0.01474
-0.01474
-0.01474
-0.01474
-0.01393
-0.00983
-0.00983
-0.00901
-0.00491
-0.00491
-0.00491
-0.00410
0.00000
0.00082
0.00491
0.00573
0.01065
0.01474
0.01474
0.01474
0.01474
0.01474
0.01474
0.01474
0.01474
0.01474
0.01474
0.01474
0.01474
0.01474
0.01474
0.01474
0.01474
0.01474
0.01474
0.01474
0.01474
0.01474
0.01474
0.01474
0.01474
0.01474
0.01393
0.00983
0.01065
0.01474
0.01474
0.01474
0.01474
0.01474
0.01474
0.01474
0.01474
0.01556
0.01966
0.01966
0.01966
0.01966
0.01966
0.01966
0.02048
0.02457
0.01966
0.02048
0.02539
0.02539
0.02539
0.02539
0.02539
0.02539
0.02539
0.02539
0.02539
0.02457
0.01966
0.01474
0.01474
0.01474
0.01474
0.01474
0.01474
0.01474
0.01556
0.01966
0.02048
0.02539
0.02539
0.02539
0.02539
0.02539
0.02539
0.02539
0.02457
0.01966
0.01966
0.01966
0.01966
0.01966
0.01966
0.01966
0.01966
0.01966
0.01966
0.01966
0.01966
0.01966
0.01474
0.01393
0.00410
-0.00082
-0.00491
-0.00573
-0.01065
-0.01556
-0.01966
-0.02048
-0.02457
-0.01966
-0.01966
-0.01966
-0.01966
-0.01966
-0.02048
-0.02539
-0.02539
-0.02539
-0.02457
-0.01966
-0.01966
-0.01966
-0.01474
-0.00983
-0.00901
-0.00491
-0.00491
-0.00491
-0.00491
-0.00491
-0.00491
-0.00491
-0.00491
-0.00491
-0.00491
-0.00491
-0.00491
-0.00491
-0.00410
-0.00082
-0.00491
-0.00573
-0.00983
-0.00983
-0.00983
-0.00983
-0.00983
-0.01065
-0.01474
-0.01474
-0.01474
-0.01474
-0.00983
-0.01065
-0.01474
-0.01474
-0.00983
-0.00983
-0.00983
-0.00983
-0.00983
-0.01065
-0.01474
-0.01474
-0.01556
-0.02048
-0.02539
-0.03031
-0.03031
-0.02949
-0.02376
-0.00819
0.00573
0.01638
0.03113
0.04587
0.05570
0.05980
0.05980
0.05980
0.05980
0.05980
0.05980
0.05816
0.04260
0.01802
-0.00164
-0.01638
-0.03113
-0.04096
-0.05079
-0.05570
-0.06553
-0.07045
-0.07536
-0.07536
-0.07536
-0.08028
-0.08028
-0.08028
-0.08028
-0.08028
-0.08028
-0.08028
-0.08028
-0.08028
-0.08028
-0.08028
-0.07946
-0.07536
-0.07536
-0.07536
-0.07536
-0.07536
-0.07536
-0.07536
-0.07536
-0.07536
-0.07536
-0.07536
-0.07536
-0.07454
-0.06881
-0.05898
-0.04260
-0.01229
0.01884
0.06389
0.11550
0.18677
0.27114
0.34650
0.35551
0.29490
0.16137
-0.01884
-0.20233
-0.36452
-0.48576
-0.56358
-0.61191
-0.63321
-0.61027
-0.54883
-0.45709
-0.35224
-0.24902
-0.16629
-0.11222
-0.07864
-0.05406
-0.03932
-0.03031
-0.02949
-0.02457
-0.01966
-0.01966
-0.01966
-0.01474
-0.01474
-0.01065
-0.01474
-0.01474
-0.01556
-0.01966
-0.01966
-0.01966
-0.01966
-0.01966
-0.01966
-0.01474
-0.01474
-0.00983
-0.00983
-0.00983
-0.00491
-0.00491
-0.00491
0.00000
0.00000
0.00491
0.00491
0.00491
0.00491
0.00491
0.00491
0.00491
0.00491
0.00491
0.00491
0.00491
0.00491
0.00000
0.00491
0.00491
0.00491
0.00491
0.00000
0.00000
0.00491
0.00491
0.00000
-0.00491
-0.00491
-0.00491
-0.00491
0.00000
0.00000
0.00000
0.00000
0.00000
0.00000
0.00491
0.00491
0.00491
0.00491
0.00491
0.00491
0.00983
0.00983
0.00983
0.00983
0.01474
0.01474
0.01474
0.01474
0.01474
0.01474
0.01474
0.01474
0.01474
0.01474
0.01474
0.01474
0.01474
0.01474
0.01474
0.01474
0.01474
0.01474
0.01474
0.01474
0.01474
0.01474
0.01474
0.01474
0.01474
0.01474
0.01474
0.01474
0.01474
0.01474
0.01474
0.01474
0.01474
0.01474
0.01474
0.01474
0.01474
0.01474
0.01966
0.01966
0.01966
0.01966
0.01966
0.01474
0.01474
0.01474
0.01474
0.01474
0.01474
0.00983
0.00983
0.00491
0.00000
-0.00491
-0.00491
-0.00491
-0.00983
-0.01474
-0.01474
-0.02048
-0.03031
-0.03031
-0.03031
-0.03031
-0.03522
-0.03522
-0.04014
-0.04014
-0.04505
-0.04505
-0.04014
-0.04014
-0.04505
-0.04505
-0.04014
-0.04014
-0.04505
-0.04505
-0.04997
-0.04997
-0.04997
-0.05488
-0.05488
-0.05488
-0.05488
-0.05488
-0.05488
-0.05488
-0.05488
-0.05488
-0.05488
-0.05488
-0.05488
-0.05980
-0.05980
-0.05980
-0.06471
-0.06471
-0.06963
-0.06963
-0.06963
-0.06963
-0.06963
-0.06963
-0.06963
-0.06963
-0.06963
-0.06963
-0.06963
-0.06963
-0.06963
-0.06963
-0.06963
-0.06963
-0.06963
-0.06963
-0.06963
-0.06963
-0.06963
-0.06963
-0.07536
-0.06963
-0.06963
-0.06471
-0.05488
-0.04014
-0.02539
-0.00491
0.00491
0.01474
0.02457
0.02539
0.01966
0.01966
0.01966
0.02949
0.03522
0.02539
0.00983
-0.00491
-0.01966
-0.03440
-0.04997
-0.05980
-0.06963
-0.07946
-0.08028
-0.08519
-0.09011
-0.09502
-0.09502
-0.09502
-0.09502
-0.09502
-0.09502
-0.09502
-0.09011
-0.09011
-0.09011
-0.09011
-0.09011
-0.09011
-0.09011
-0.09011
-0.09011
-0.09011
-0.09011
-0.08519
-0.08519
-0.08028
-0.08028
-0.08028
-0.08028
-0.08028
-0.07536
-0.07536
-0.07045
-0.06062
-0.04096
-0.01065
0.01884
0.06389
0.13270
0.20315
0.29244
0.36780
0.37026
0.27851
0.11550
-0.07372
-0.25885
-0.40466
-0.51607
-0.57750
-0.62338
-0.63484
-0.59634
-0.52754
-0.42842
-0.31456
-0.21871
-0.14745
-0.09666
-0.06144
-0.04096
-0.03031
-0.02048
-0.01556
-0.00983
-0.00491
-0.00491
-0.00491
-0.00491
0.00000
-0.00491
-0.00491
-0.00491
-0.00491
-0.00491
-0.00491
0.00000
-0.00491
0.00000
0.00000
0.00000
0.00000
0.00000
0.00000
0.00000
0.00000
0.00000
0.00491
0.00491
0.00983
0.01474
0.01474
0.01966
0.01966
0.01966
0.02457
0.02539
0.02539
0.02539
0.02539
0.02949
0.03031
0.02539
0.02539
0.02539
0.02539
0.02539
0.02539
0.02048
0.01966
0.01966
0.01966
0.01966
0.01966
0.01966
0.02457
0.02539
0.02539
0.02539
0.02949
0.03031
0.02539
0.02539
0.02949
0.03031
0.03031
0.03031
0.03031
0.03031
0.03440
0.03522
0.03522
0.03522
0.03932
0.04014
0.04014
0.04014
0.04014
0.04014
0.04014
0.04014
0.04014
0.04014
0.04014
0.04014
0.04014
0.04014
0.04014
0.04014
0.04014
0.04014
0.04014
0.03522
0.03522
0.03031
0.03031
0.03031
0.03440
0.03522
0.03031
0.03031
0.03031
0.03031
0.03440
0.03932
0.04014
0.04014
0.04014
0.04014
0.04014
0.04014
0.04014
0.04014
0.04014
0.04014
0.04014
0.04014
0.04423
0.04505
0.04505
0.04505
0.04014
0.03522
0.02621
0.02048
0.01556
0.01065
0.00573
0.00082
-0.00491
-0.00491
-0.00491
-0.00491
-0.00491
-0.00491
-0.00491
-0.00491
-0.00491
-0.00491
-0.00491
-0.00491
-0.00491
-0.00491
-0.00491
-0.00983
-0.00983
-0.00983
-0.00983
-0.00983
-0.00983
-0.00983
-0.01474
-0.01065
-0.00983
-0.01474
-0.01474
-0.01474
-0.01966
-0.02457
-0.02539
-0.02949
-0.03031
-0.03031
-0.03031
-0.03031
-0.03031
-0.03031
-0.03440
-0.03522
-0.03522
-0.03522
-0.03522
-0.03932
-0.04014
-0.04014
-0.04423
-0.04505
-0.04505
-0.04505
-0.04505
-0.04505
-0.04505
-0.04505
-0.04915
-0.04587
-0.04505
-0.04505
-0.04505
-0.04505
-0.04915
-0.05406
-0.05488
-0.05488
-0.05488
-0.05488
-0.05980
-0.05570
-0.05488
-0.05488
-0.05488
-0.05079
-0.04587
-0.04096
-0.03113
-0.01229
-0.00082
0.01311
0.02376
0.03359
0.03522
0.03522
0.03031
0.03440
0.03932
0.04014
0.03522
0.01720
0.00164
-0.01311
-0.02785
-0.04342
-0.05406
-0.05898
-0.06881
-0.07454
-0.07946
-0.08028
-0.08028
-0.08028
-0.08437
-0.08519
-0.08519
-0.08519
-0.08519
-0.08519
-0.08519
-0.08519
-0.08519
-0.08519
-0.08519
-0.08519
-0.08519
-0.08519
-0.08519
-0.08110
-0.08028
-0.08028
-0.08028
-0.08028
-0.08028
-0.08028
-0.08028
-0.07536
-0.07536
-0.07045
-0.06144
-0.04751
-0.01966
0.01065
0.05816
0.11632
0.18922
0.27687
0.34978
0.35961
0.28343
0.12943
-0.06553
-0.24820
-0.40712
-0.51115
-0.58488
-0.62911
-0.63894
-0.61437
-0.54638
-0.44562
-0.33667
-0.23510
-0.16055
-0.11222
-0.08355
-0.05898
-0.05079
-0.04178
-0.03195
-0.03031
-0.02539
-0.02048
-0.01966
-0.01556
-0.01474
-0.01884
-0.01966
-0.02457
-0.02539
-0.02539
-0.02539
-0.02539
-0.02539
-0.02048
-0.02457
-0.02539
-0.02539
-0.02539
-0.02539
-0.02048
-0.01966
-0.01966
-0.01966
-0.01556
-0.01474
-0.01065
-0.00983
-0.00573
-0.00491
-0.00082
0.00410
0.00901
0.00983
0.00983
0.00983
0.00573
0.00491
0.00491
0.00491
0.00491
0.00491
0.00491
0.00491
0.00491
0.00491
0.00901
0.00983
0.00983
0.00983
0.01393
0.01474
0.01474
0.01474
0.01474
0.01474
0.01474
0.01474
0.01474
0.01474
0.01884
0.01966
0.02376
0.02539
0.02949
0.03031
0.03440
0.03522
0.03522
0.03522
0.03522
0.03522
0.03522
0.03522
0.03522
0.03522
0.03113
0.03031
0.03031
0.03031
0.03031
0.03031
0.03031
0.03031
0.03031
0.03031
0.03031
0.03031
0.03031
0.03031
0.03031
0.02621
0.02539
0.02539
0.02130
0.01966
0.01966
0.01556
0.01474
0.01474
0.01884
0.01966
0.01966
0.02376
0.02539
0.02130
0.01966
0.01966
0.01966
0.02376
0.02539
0.02867
0.03031
0.03031
0.03031
0.03031
0.03031
0.03031
0.03031
0.02621
0.02130
0.01638
0.01065
0.00573
0.00082
0.00000
-0.00410
-0.00491
-0.00901
-0.00983
-0.01393
-0.01474
-0.01474
-0.01474
-0.01474
-0.01884
-0.01966
-0.02376
-0.02539
-0.02130
-0.02376
-0.02539
-0.02867
-0.03031
-0.02621
-0.02539
-0.02539
-0.02867
-0.03031
-0.03031
-0.03031
-0.03031
-0.03031
-0.03031
-0.03031
-0.03359
-0.03522
-0.03522
-0.03522
-0.03850
-0.04423
-0.04915
-0.04997
-0.04587
-0.04505
-0.04505
-0.04915
-0.04997
-0.04997
-0.05406
-0.05488
-0.05488
-0.05488
-0.05488
-0.05488
-0.05488
-0.05488
-0.05488
-0.05488
-0.05488
-0.05488
-0.05488
-0.05488
-0.05488
-0.05488
-0.05488
-0.05488
-0.05488
-0.05488
-0.05898
-0.05980
-0.06389
-0.06471
-0.06471
-0.06471
-0.06144
-0.05980
-0.05980
-0.05652
-0.05488
-0.05488
-0.05488
-0.05898
-0.05652
-0.05488
-0.05488
-0.05488
-0.05898
-0.05980
-0.05652
-0.05079
-0.03850
-0.02703
-0.01393
-0.00655
0.00655
0.02130
0.03604
0.05161
0.05898
0.05980
0.05980
0.05652
0.04751
0.03768
0.01966
0.00328
-0.01147
-0.02621
-0.03768
-0.04751
-0.05734
-0.06717
-0.07372
-0.07864
-0.08028
-0.08028
-0.08028
-0.08028
-0.08028
-0.08028
-0.08028
-0.08028
-0.08028
-0.08355
-0.08519
-0.08519
-0.08519
-0.08847
-0.09011
-0.09011
-0.08601
-0.08110
-0.08028
-0.08028
-0.08028
-0.08028
-0.08028
-0.08028
-0.08028
-0.08028
-0.08028
-0.07618
-0.07127
-0.05898
-0.04014
-0.01311
0.02785
0.08028
0.14663
0.22363
0.31128
0.37517
0.37517
0.27769
0.10485
-0.08847
-0.27196
-0.42268
-0.52999
-0.59880
-0.64058
-0.64631
-0.60863
-0.53982
-0.43579
-0.32439
-0.22936
-0.16137
-0.11222
-0.08519
-0.06553
-0.05652
-0.04751
-0.04096
-0.03604
-0.03113
-0.03031
-0.03031
-0.03031
-0.03031
-0.03031
-0.03031
-0.03031
-0.03031
-0.03031
-0.03031
-0.03359
-0.03113
-0.03031
-0.03031
-0.03031
-0.03031
-0.03031
-0.02621
-0.02539
-0.02539
-0.02539
-0.02539
-0.02539
-0.02130
-0.01966
-0.01966
-0.01638
-0.01147
-0.00983
-0.00655
-0.00491
-0.00491
-0.00491
-0.00491
-0.00491
-0.00491
-0.00491
