-0.13850
-0.14727
-0.14990
-0.14990
-0.14288
-0.13587
-0.12798
-0.12886
-0.13412
-0.14201
-0.14902
-0.14639
-0.13762
-0.12798
-0.12535
-0.12535
-0.12886
-0.13412
-0.13499
-0.13499
-0.12798
-0.11746
-0.10431
-0.09993
-0.09993
-0.09993
-0.09642
-0.09116
-0.08240
-0.06574
-0.05259
-0.04295
-0.03594
-0.03506
-0.03857
-0.04383
-0.04821
-0.05347
-0.06574
-0.07714
-0.09116
-0.10957
-0.12623
-0.14464
-0.15340
-0.15515
-0.15165
-0.14990
-0.14990
-0.15340
-0.16217
-0.16830
-0.17006
-0.17006
-0.16655
-0.15778
-0.15515
-0.15515
-0.15866
-0.16743
-0.17006
-0.17006
-0.16655
-0.15778
-0.15165
-0.14990
-0.14990
-0.15691
-0.16041
-0.16041
-0.15253
-0.14990
-0.15691
-0.17795
-0.19548
-0.17532
-0.10081
0.00701
0.12535
0.24194
0.30680
0.24895
0.05259
-0.24281
-0.54085
-0.75298
-0.88622
-0.97301
-1.00895
-0.98352
-0.88885
-0.75211
-0.59345
-0.43215
-0.30417
-0.21389
-0.15077
-0.11045
-0.08590
-0.06925
-0.06136
-0.05961
-0.05610
-0.05522
-0.04821
-0.03769
-0.03156
-0.02980
-0.03331
-0.03857
-0.04032
-0.03682
-0.02805
-0.01841
-0.01140
-0.00964
-0.00964
-0.01666
-0.02367
-0.02542
-0.01841
-0.00789
-0.00175
0.00351
0.00175
-0.00351
-0.00526
-0.00877
-0.00614
-0.00175
0.00701
0.01315
0.01490
0.01490
0.00789
0.00526
0.00877
0.01315
0.02542
0.03682
0.04032
0.04032
0.03682
0.02805
0.02542
0.02805
0.04032
0.05522
0.06311
0.06487
0.06487
0.06136
0.05698
0.06224
0.06837
0.08065
0.08853
0.09029
0.09029
0.08678
0.08503
0.08853
0.09993
0.10870
0.12009
0.12798
0.12973
0.12623
0.12184
0.12009
0.12710
0.13675
0.14990
0.15515
0.15866
0.15691
0.15515
0.15515
0.15515
0.16480
0.17707
0.19022
0.19811
0.19635
0.18846
0.18496
0.18496
0.19197
0.20161
0.21126
0.21827
0.22002
0.21652
0.20863
0.20512
0.21126
0.22178
0.22791
0.22966
0.22966
0.22703
0.21827
0.21126
0.21038
0.21038
0.21038
0.21038
0.20687
0.19548
0.17970
0.16480
0.15691
0.15165
0.14376
0.13675
0.12535
0.11045
0.09204
0.07188
0.05522
0.04383
0.03682
0.02542
0.01666
0.00526
-0.00964
-0.02805
-0.04821
-0.05785
-0.05961
-0.05961
-0.06662
-0.07626
-0.09292
-0.10957
-0.12184
-0.12535
-0.12535
-0.12535
-0.12184
-0.12360
-0.12798
-0.13675
-0.14288
-0.14464
-0.14464
-0.13850
-0.12886
-0.12535
-0.12798
-0.13675
-0.14288
-0.14464
-0.14201
-0.13324
-0.12710
-0.12184
-0.12009
-0.12360
-0.12798
-0.12973
-0.12710
-0.11834
-0.10519
-0.09642
-0.08853
-0.08152
-0.07977
-0.07977
-0.07714
-0.06574
-0.05084
-0.03506
-0.02367
-0.01666
-0.01490
-0.02104
-0.02805
-0.03594
-0.04295
-0.05172
-0.06487
-0.08240
-0.10256
-0.12272
-0.13587
-0.14025
-0.13675
-0.13149
-0.12710
-0.12798
-0.13587
-0.14288
-0.14814
-0.14990
-0.14376
-0.13412
-0.12710
-0.12184
-0.12272
-0.12535
-0.13149
-0.13499
-0.13499
-0.12886
-0.12184
-0.11659
-0.11834
-0.12272
-0.12798
-0.13324
-0.13149
-0.12710
-0.12535
-0.14025
-0.16217
-0.16655
-0.12184
-0.02717
0.08590
0.20074
0.30330
0.33047
0.22353
-0.03331
-0.36378
-0.62939
-0.79769
-0.90463
-0.96424
-0.97125
-0.91603
-0.81522
-0.68724
-0.53734
-0.38657
-0.26297
-0.17707
-0.11922
-0.07889
-0.05610
-0.04734
-0.04208
-0.04032
-0.03682
-0.03156
-0.02717
-0.01928
-0.01227
-0.00964
-0.01315
-0.02104
-0.02542
-0.01928
-0.00877
0.00088
0.00789
0.01315
0.00877
-0.00088
-0.00526
-0.00526
0.00438
0.01315
0.02104
0.02542
0.02191
0.01666
0.01490
0.01490
0.01490
0.02367
0.03594
0.04032
0.04032
0.03682
0.03243
0.02980
0.03331
0.03769
0.04558
0.05610
0.05698
0.05172
0.04734
0.04208
0.04295
0.05084
0.06048
0.07100
0.07802
0.07977
0.07714
0.07188
0.07013
0.07626
0.08590
0.09905
0.10782
0.10957
0.10957
0.10694
0.10782
0.11308
0.12360
0.13324
0.14113
0.14464
0.14464
0.14201
0.13675
0.13762
0.14902
0.16041
0.17093
0.17795
0.17970
0.17707
0.17181
0.17269
0.17795
0.18321
0.19109
0.19811
0.19986
0.19723
0.19197
0.19022
0.19285
0.20074
0.21038
0.21827
0.21739
0.21476
0.20950
0.20512
0.20512
0.21038
0.21827
0.22265
0.22528
0.22178
0.21476
0.20687
0.20249
0.19986
0.20249
0.20512
0.20249
0.19197
0.17619
0.16129
0.14639
0.13762
0.13236
0.12710
0.11922
0.10694
0.08853
0.06925
0.04909
0.03419
0.02454
0.01753
0.01227
0.00438
-0.00877
-0.02630
-0.04646
-0.06048
-0.06750
-0.07013
-0.07013
-0.07276
-0.08065
-0.09292
-0.10870
-0.11746
-0.12009
-0.11746
-0.11220
-0.10957
-0.11308
-0.12009
-0.12798
-0.13236
-0.13499
-0.12973
-0.12184
-0.11746
-0.11483
-0.11746
-0.12272
-0.12798
-0.13236
-0.13236
-0.12710
-0.11922
-0.11220
-0.11308
-0.12009
-0.12535
-0.12798
-0.12710
-0.11922
-0.10694
-0.09993
-0.09730
-0.09467
-0.09730
-0.09730
-0.08941
-0.07714
-0.06224
-0.04734
-0.03769
-0.03506
-0.03769
-0.04032
-0.04295
-0.04471
-0.04734
-0.05522
-0.07100
-0.09029
-0.11308
-0.13324
-0.14551
-0.14990
-0.14990
-0.14990
-0.14990
-0.14990
-0.15253
-0.16041
-0.16743
-0.17006
-0.16480
-0.15515
-0.14727
-0.14464
-0.14727
-0.15253
-0.15778
-0.16041
-0.15515
-0.14727
-0.13938
-0.13236
-0.13236
-0.13762
-0.14551
-0.14990
-0.14727
-0.13938
-0.13762
-0.15077
-0.17532
-0.19285
-0.16392
-0.08065
0.02454
0.13149
0.24194
0.31557
0.27788
0.09116
-0.21301
-0.51894
-0.73195
-0.86694
-0.95635
-0.99492
-0.97651
-0.90113
-0.77840
-0.62588
-0.46283
-0.32346
-0.21652
-0.14201
-0.09730
-0.07451
-0.06750
-0.06224
-0.05961
-0.05785
-0.04734
-0.03506
-0.02717
-0.02542
-0.02717
-0.02980
-0.03243
-0.03506
-0.03243
-0.02454
-0.01490
-0.00964
-0.01227
-0.01753
-0.02279
-0.02279
-0.02016
-0.01490
-0.00789
-0.00263
0.00000
-0.00263
-0.00526
-0.00526
-0.00526
-0.00263
0.00526
0.01227
0.01490
0.01490
0.01227
0.00526
0.00000
0.00526
0.01490
0.02454
0.03243
0.03243
0.02542
0.01753
0.01490
0.01753
0.02454
0.03506
0.04471
0.05259
0.05259
0.04734
0.04295
0.04032
0.04471
0.05698
0.07013
0.07977
0.08240
0.07977
0.07977
0.08240
0.08766
0.09730
0.10782
0.11483
0.12009
0.12009
0.12009
0.12272
0.12973
0.13762
0.14727
0.15778
0.16041
0.15778
0.15515
0.15515
0.15515
0.16217
0.17444
0.18496
0.19197
0.19460
0.19022
0.18233
0.18233
0.18934
0.20249
0.21476
0.22265
0.22528
0.22002
0.21301
0.21038
0.21476
0.22265
0.22966
0.23492
0.23229
0.22528
0.21564
0.20775
0.20512
0.20512
0.20775
0.20775
0.20512
0.19811
0.18496
0.17269
0.16041
0.15253
0.14990
0.14551
0.13499
0.12097
0.10081
0.08065
0.06311
0.04997
0.04295
0.04032
0.03506
0.02279
0.00614
-0.01403
-0.03156
-0.04471
-0.05259
-0.05522
-0.05961
-0.07188
-0.08415
-0.09467
-0.10431
-0.11220
-0.11483
-0.11483
-0.11308
-0.10957
-0.11220
-0.11922
-0.12973
-0.13762
-0.14025
-0.13587
-0.12798
-0.12009
-0.11746
-0.12184
-0.12710
-0.13412
-0.13762
-0.13236
-0.12798
-0.12272
-0.12009
-0.12009
-0.12184
-0.12710
-0.12973
-0.12798
-0.12097
-0.11045
-0.10256
-0.09993
-0.09993
-0.09993
-0.09993
-0.09555
-0.08590
-0.07539
-0.06574
-0.05785
-0.05259
-0.04997
-0.04997
-0.04558
-0.03331
-0.01841
-0.00789
-0.00964
-0.02367
-0.04558
-0.07100
-0.09116
-0.09993
-0.10256
-0.10519
-0.10957
-0.11922
-0.13149
-0.14464
-0.14990
-0.14990
-0.14551
-0.13762
-0.13324
-0.12973
-0.13236
-0.13938
-0.14727
-0.14990
-0.14551
-0.13587
-0.12798
-0.12535
-0.12535
-0.12710
-0.13236
-0.13499
-0.13061
-0.12272
-0.11396
-0.10519
-0.10694
-0.11659
-0.13587
-0.16304
-0.18671
-0.17444
-0.09642
0.01841
0.13061
0.23668
0.30330
0.27525
0.12623
-0.13850
-0.43741
-0.66357
-0.80733
-0.90639
-0.96249
-0.96512
-0.90376
-0.78279
-0.62500
-0.45670
-0.30856
-0.20249
-0.13850
-0.10431
-0.08152
-0.06399
-0.04646
-0.03331
-0.02805
-0.02542
-0.02542
-0.02717
-0.02980
-0.02980
-0.02630
-0.01578
-0.00789
-0.00263
-0.00175
-0.00701
-0.01227
-0.01315
-0.00789
-0.00263
0.00438
0.01227
0.01490
0.01140
0.00088
-0.00526
-0.00088
0.00877
0.02104
0.03156
0.03506
0.03331
0.02630
0.01841
0.01666
0.02367
0.03419
0.04383
0.04997
0.04821
0.04295
0.03769
0.03506
0.03682
0.04208
0.04909
0.05698
0.05961
0.05785
0.05347
0.04997
0.05172
0.05873
0.06925
0.07889
0.08503
0.08503
0.08152
0.07539
0.07889
0.08678
0.09555
0.10694
0.11220
0.11483
0.11308
0.10957
0.10957
0.11396
0.12535
0.13850
0.14727
0.14814
0.14464
0.14288
0.14025
0.14201
0.14902
0.16041
0.17181
0.17532
0.17269
0.16830
0.16480
0.16655
0.17356
0.18408
0.19197
0.19460
0.19285
0.18846
0.18496
0.18496
0.18671
0.19372
0.20161
0.20512
0.20512
0.20337
0.19811
0.19285
0.19197
0.19723
0.20161
0.20512
0.20337
0.19635
0.18671
0.17619
0.16830
0.16480
0.16480
0.16304
0.15603
0.14288
0.12272
0.10431
0.08941
0.07626
0.06662
0.05610
0.04646
0.03243
0.01140
-0.01227
-0.02893
-0.03857
-0.04646
-0.04997
-0.05172
-0.05698
-0.06750
-0.08328
-0.09379
-0.10344
-0.10957
-0.10782
-0.10519
-0.10694
-0.11396
-0.12184
-0.12886
-0.13499
-0.13324
-0.12798
-0.12360
-0.12009
-0.12184
-0.12710
-0.13149
-0.13499
-0.13324
-0.12798
-0.12184
-0.11483
-0.11659
-0.12184
-0.12886
-0.13675
-0.13850
-0.13324
-0.12798
-0.12184
-0.11483
-0.11483
-0.11659
-0.12009
-0.11834
-0.10957
-0.09467
-0.08152
-0.07188
-0.06311
-0.05961
-0.05961
-0.05873
-0.05347
-0.04471
-0.03156
-0.02542
-0.02630
-0.03682
-0.05698
-0.07802
-0.09818
-0.10870
-0.11659
-0.12184
-0.12798
-0.14025
-0.15165
-0.15866
-0.16480
-0.16304
-0.15691
-0.14814
-0.14376
-0.14288
-0.15165
-0.15691
-0.16129
-0.16129
-0.15340
-0.14814
-0.14201
-0.13499
-0.13675
-0.14201
-0.14639
-0.14814
-0.14376
-0.13499
-0.12535
-0.12535
-0.12623
-0.13499
-0.14990
-0.16830
-0.19022
-0.19022
-0.14288
-0.04821
0.06399
0.16743
0.26034
0.30856
0.24281
0.03156
-0.28138
-0.57153
-0.76964
-0.89850
-0.98615
-1.01859
-0.99317
-0.90113
-0.75298
-0.58380
-0.41287
-0.28138
-0.19986
-0.14288
-0.10694
-0.08240
-0.05873
-0.04032
-0.02805
-0.02542
-0.02630
-0.02980
-0.02980
-0.02805
-0.02191
-0.01227
-0.00526
-0.00526
-0.00526
-0.00614
-0.00964
-0.00877
-0.00351
0.00263
0.01140
0.01490
0.01227
0.00175
-0.00526
-0.00526
-0.00175
0.00789
0.01666
0.02191
0.02191
0.01315
0.00877
0.00526
0.00789
0.01666
0.02454
0.03682
0.04032
0.03857
0.03331
0.02980
0.03156
0.03682
0.04120
0.04646
0.05172
0.05522
0.05347
0.04997
0.05172
0.05610
0.06136
0.06750
0.07626
0.07977
0.07977
0.07889
0.07539
0.07802
0.08678
0.09555
0.11133
0.11483
0.11396
0.10870
0.10519
0.10607
0.11571
0.13324
0.14288
0.14990
0.14990
0.14990
0.14990
0.14990
0.15165
0.15778
0.16918
0.17970
0.17970
0.17970
0.17970
0.17970
0.17970
0.18321
0.19460
0.20512
0.20512
0.20249
0.19372
0.18846
0.18671
0.19372
0.20600
0.21301
0.22178
0.22528
0.22353
0.21827
0.21652
0.22178
0.22616
0.23142
0.23492
0.23229
0.22090
0.20600
0.19197
0.18496
0.18496
0.18408
0.17970
0.17707
0.16567
0.14990
0.13061
0.11746
0.10870
0.10256
0.09204
0.07977
0.06136
0.04471
0.02630
0.01140
-0.00088
-0.00614
-0.01140
-0.01928
-0.03419
-0.04997
-0.06925
-0.08415
-0.09467
-0.09379
-0.08853
-0.08590
-0.09116
-0.09730
-0.10870
-0.12097
-0.12535
-0.12360
-0.11834
-0.11396
-0.11133
-0.11746
-0.12623
-0.13149
-0.13499
-0.13412
-0.12886
-0.12272
-0.11396
-0.11133
-0.11746
-0.12623
-0.13236
-0.13850
-0.13236
-0.12272
-0.11396
-0.11133
-0.11746
-0.12623
-0.12973
-0.12886
-0.12272
-0.11133
-0.09905
-0.09467
-0.09467
-0.09642
-0.09905
-0.09292
-0.08240
-0.07100
-0.05610
-0.04295
-0.03419
-0.02980
-0.02980
-0.02980
-0.02805
-0.01753
-0.00877
-0.00614
-0.01315
-0.03243
-0.06048
-0.08503
-0.10344
-0.11746
-0.12535
-0.12535
-0.12535
-0.12710
-0.13762
-0.14639
-0.14990
-0.14902
-0.14288
-0.13412
-0.12973
-0.12973
-0.13149
-0.13762
-0.14639
-0.14902
-0.14376
-0.13762
-0.12886
-0.12535
-0.12535
-0.12623
-0.12973
-0.12973
-0.12886
-0.12184
-0.10870
-0.10519
-0.10957
-0.13149
-0.16304
-0.19109
-0.18058
-0.10607
0.00614
0.12623
0.24194
0.32346
0.30856
0.15603
-0.12886
-0.45144
-0.68636
-0.82136
-0.91515
-0.97388
-0.97914
-0.91866
-0.81084
-0.66708
-0.49352
-0.33222
-0.21301
-0.13938
-0.09467
-0.07100
-0.05259
-0.04295
-0.03331
-0.02191
-0.00877
-0.00526
-0.00614
-0.01227
-0.02016
-0.01928
-0.01315
-0.00263
0.00614
0.00964
0.00877
0.00438
0.00000
0.00000
0.00175
0.01140
0.01578
0.01928
0.01490
0.01315
0.00438
0.00000
0.00088
0.00701
0.01841
0.03243
0.03857
0.03331
0.02367
0.02104
0.02630
0.03156
0.04120
0.04734
0.05435
0.04909
0.04383
0.04032
0.04120
0.04558
0.05172
0.06136
0.06574
0.06925
0.06487
0.06399
0.05961
0.06136
0.06662
0.07714
0.08503
0.08590
0.08941
0.08503
0.08503
0.08590
0.09292
0.10694
0.11659
0.12535
0.12535
0.12535
0.12535
0.12623
0.13061
0.13762
0.15077
0.15515
0.15515
0.15515
0.15515
0.15515
0.15691
0.16743
0.18233
0.19548
0.19986
0.19898
0.19372
0.19022
0.19197
0.20161
0.21213
0.22090
0.22528
0.22440
0.21915
0.21389
0.21126
0.21564
0.22090
0.22703
0.23492
0.23405
0.22879
0.22528
0.22528
0.22528
0.22703
0.23492
0.23405
0.22879
0.22353
0.21301
0.20337
0.19460
0.18934
0.18496
0.18408
0.17707
0.15691
0.13675
0.11746
0.10256
0.08853
0.07802
0.06925
0.06136
0.04208
0.02279
0.00789
-0.00701
-0.02191
-0.02980
-0.03068
-0.03682
-0.04646
-0.05873
-0.08240
-0.09555
-0.10081
-0.10431
-0.09993
-0.09993
-0.09993
-0.10256
-0.11659
-0.12623
-0.13499
-0.13412
-0.12886
-0.12447
-0.12009
-0.12097
-0.12535
-0.13061
-0.13499
-0.13499
-0.13324
-0.12447
-0.12009
-0.12097
-0.12535
-0.12623
-0.13499
-0.13499
-0.13324
-0.12447
-0.11922
-0.11571
-0.12097
-0.12535
-0.13061
-0.13412
-0.12886
-0.12360
-0.11308
-0.09905
-0.09467
-0.09029
-0.08941
-0.08415
-0.07889
-0.06750
-0.05347
-0.04383
-0.03506
-0.03506
-0.03594
-0.04120
-0.05084
-0.05610
-0.06662
-0.07714
-0.09292
-0.11308
-0.13236
-0.15253
-0.17006
-0.17006
-0.16918
-0.16392
-0.16041
-0.16041
-0.16567
-0.17093
-0.17532
-0.17444
-0.16830
-0.15866
-0.14990
-0.15077
-0.15603
-0.16567
-0.17006
-0.16830
-0.15866
-0.14990
-0.14902
-0.14464
-0.14551
-0.14990
-0.15077
-0.15428
-0.14902
-0.14464
-0.14639
-0.15866
-0.18671
-0.19548
-0.14814
-0.04646
0.06837
0.18321
0.28401
0.30154
0.17093
-0.08328
-0.40410
-0.68023
-0.84327
-0.94671
-1.00193
-1.00895
-0.94758
-0.83363
-0.68461
-0.51280
-0.36641
-0.24983
-0.16392
-0.11045
-0.07276
-0.05435
-0.04997
-0.04909
-0.04383
-0.03419
-0.02367
-0.01403
-0.00526
-0.00526
-0.00526
-0.01140
-0.02016
-0.01928
-0.00964
-0.00351
0.01052
0.01490
0.00964
0.00438
-0.00088
-0.00526
-0.00438
0.00614
0.01578
0.02542
0.02367
0.01490
0.01490
0.00964
0.01052
0.01578
0.02104
0.03068
0.03419
0.02980
0.02454
0.02016
0.02016
0.02630
0.04032
0.04032
0.04471
0.04471
0.03945
0.03506
0.03506
0.04032
0.04558
0.05522
0.06048
0.06487
0.05961
0.05522
0.05522
0.06048
0.06662
0.08065
0.08503
0.09029
0.08941
0.08503
0.08503
0.08590
0.09555
0.10607
0.11571
0.12535
0.12447
0.12009
0.12009
0.12009
0.12623
0.13587
0.15077
0.15515
0.15515
0.15428
0.14990
0.14551
0.15077
0.15603
0.16655
0.17970
0.17970
0.17970
0.17444
0.17006
0.17006
0.17619
0.18584
0.20074
0.20512
0.20424
0.19460
0.19460
0.19548
0.20074
0.20600
0.21564
0.22002
0.21476
0.20950
0.19898
0.19022
0.19022
0.19460
0.19460
0.19460
0.18934
0.17882
0.16392
0.14902
0.13499
0.13499
0.12973
0.12447
0.11396
0.09379
0.07363
0.05435
0.03945
0.02454
0.01928
0.01403
0.00438
-0.00614
-0.02630
-0.04120
-0.05522
-0.06048
-0.06487
-0.07013
-0.07013
-0.07539
-0.08065
-0.09555
-0.10081
-0.10957
-0.10957
-0.10957
-0.10957
-0.10519
-0.11045
-0.11483
-0.12009
-0.12009
-0.11483
-0.10431
-0.09993
-0.09555
-0.09993
-0.10519
-0.11483
-0.12009
-0.11922
-0.10957
-0.09993
-0.09467
-0.09555
-0.09993
-0.10519
-0.11045
-0.11483
-0.11483
-0.10519
-0.09993
-0.09467
-0.09555
-0.09993
-0.10519
-0.10957
-0.09993
-0.09467
-0.07977
-0.06925
-0.05961
-0.06048
-0.06487
-0.05961
-0.04909
-0.02980
-0.01928
-0.00526
-0.00438
0.00000
-0.00526
-0.00526
-0.00526
-0.01052
-0.02542
-0.04032
-0.05610
-0.08065
-0.10081
-0.11571
-0.12535
-0.12447
-0.12009
-0.11483
-0.11483
-0.12009
-0.12535
-0.12973
-0.13499
-0.12973
-0.12447
-0.12009
-0.11483
-0.11483
-0.12009
-0.12535
-0.13499
-0.12973
-0.12447
-0.11483
-0.10957
-0.10957
-0.11045
-0.11483
-0.12009
-0.12447
-0.12009
-0.11483
-0.12009
-0.14025
-0.17006
-0.17356
-0.12272
-0.02279
0.08766
0.20687
0.30505
0.29716
0.13499
-0.14025
-0.45933
-0.69250
-0.83100
-0.92041
-0.97476
-0.97388
-0.90814
-0.79243
-0.63815
-0.47335
-0.32346
-0.21915
-0.14464
-0.08941
-0.05522
-0.04032
-0.03506
-0.03506
-0.03506
-0.02980
-0.02016
-0.00526
0.00000
0.00000
-0.00526
-0.00526
-0.00526
-0.00526
0.00000
0.00964
0.01490
0.02016
0.02016
0.01490
0.00964
0.00526
0.00964
0.02016
0.03506
0.04032
0.04032
0.03506
0.02542
0.02542
0.02542
0.03506
0.04032
0.04471
0.04471
0.04471
0.04471
0.04471
0.04471
0.04471
0.05522
0.06487
0.06487
0.06487
0.05522
0.04997
0.05522
0.06487
0.07451
0.08503
0.09029
0.09029
0.08503
0.08503
0.08503
0.08503
0.09467
0.10957
0.11483
0.11483
0.11483
0.11483
0.11045
0.11483
0.12447
0.13499
0.14464
0.14464
0.14025
0.14025
0.14025
0.14025
0.14464
0.15515
0.16480
0.17444
0.17532
0.17006
0.17006
0.17006
0.17532
0.17970
0.19460
0.20512
0.20512
0.20512
0.19548
0.19460
0.19986
0.20512
0.21476
0.22440
0.22966
0.22966
0.22528
0.22002
0.22002
0.22528
0.22966
0.23492
0.24457
0.24457
0.23492
0.22528
0.22528
0.22528
0.22528
0.22966
0.22966
0.22528
0.21038
0.19548
0.18058
0.17006
0.16480
0.16041
0.15515
0.14990
0.13587
0.11133
0.08590
0.06574
0.05522
0.04558
0.04032
0.03068
0.01578
0.00088
-0.01928
-0.03419
-0.04471
-0.04997
-0.04997
-0.05435
-0.05961
-0.07451
-0.08415
-0.09467
-0.09993
-0.09993
-0.09993
-0.09993
-0.09993
-0.09993
-0.10519
-0.11483
-0.12009
-0.11483
-0.11045
-0.10081
-0.09993
-0.09993
-0.10957
-0.11922
-0.12009
-0.11483
-0.10519
-0.09993
-0.09993
-0.09993
-0.09993
-0.10431
-0.11483
-0.11045
-0.10519
-0.09993
-0.09555
-0.09029
-0.09467
-0.09993
-0.09993
-0.10431
-0.09993
-0.09555
-0.08065
-0.06574
-0.06048
-0.05961
-0.05522
-0.05522
-0.04120
-0.03068
-0.01578
-0.00526
0.00000
0.00000
-0.00438
-0.00964
-0.02367
-0.02980
-0.04383
-0.05435
-0.06399
-0.07889
-0.09905
-0.12360
-0.13412
-0.13499
-0.13061
-0.12097
-0.11571
-0.11922
-0.12447
-0.13412
-0.13938
-0.14025
-0.13499
-0.12535
-0.12009
-0.12009
-0.12447
-0.12973
-0.13499
-0.13499
-0.13061
-0.12535
-0.11571
-0.11045
-0.11483
-0.12447
-0.12973
-0.13499
-0.13499
-0.13938
-0.14902
-0.16830
-0.17882
-0.13850
-0.04734
0.06136
0.17532
0.28577
0.31294
0.19548
-0.07188
-0.40673
-0.66357
-0.81785
-0.92129
-0.98528
-0.98966
-0.93093
-0.81960
-0.67760
-0.51455
-0.35852
-0.24457
-0.16217
-0.10519
-0.06837
-0.04208
-0.03068
-0.02542
-0.02980
-0.02980
-0.02980
-0.02104
-0.00614
-0.00088
0.00438
0.00088
-0.00438
-0.00964
-0.00964
-0.00526
-0.00088
0.00877
0.01490
0.01490
0.01490
0.01490
0.01490
0.01490
0.02367
0.03419
0.03945
0.03594
0.03068
0.02542
0.02016
0.02016
0.02893
0.03857
0.04032
0.04032
0.04032
0.03068
0.02980
0.02980
0.03857
0.04909
0.05873
0.06487
0.06048
0.05084
0.04558
0.04909
0.05873
0.06487
0.07363
0.08415
0.08503
0.08065
0.07539
0.07013
0.07451
0.08415
0.08941
0.09905
0.10431
0.10519
0.10081
0.09993
0.10431
0.10957
0.11483
0.12360
0.13412
0.13499
0.13061
0.12973
0.12973
0.13412
0.14376
0.15340
0.16392
0.16918
0.16567
0.16041
0.16041
0.16480
0.17356
0.18408
0.19372
0.19898
0.20424
0.19635
0.19022
0.18584
0.19372
0.20337
0.20950
0.21915
0.21564
0.21038
0.20600
0.20512
0.20950
0.21827
0.22440
0.22966
0.22528
0.21652
0.21038
0.20600
0.20512
0.20512
0.20950
0.21038
0.20600
0.18759
0.17181
0.15691
0.14201
0.13587
0.13061
0.12535
0.11220
0.09730
0.07802
0.05347
0.03682
0.01753
0.01490
0.00614
-0.00351
-0.00964
-0.02717
-0.04295
-0.05785
-0.06837
-0.07451
-0.07100
-0.07013
-0.07451
-0.08328
-0.09379
-0.10344
-0.10957
-0.10957
-0.10168
-0.09993
-0.09993
-0.09993
-0.10870
-0.11834
-0.12009
-0.12009
-0.11571
-0.10607
-0.10081
-0.10431
-0.10957
-0.12272
-0.12535
-0.12535
-0.11659
-0.10694
-0.10081
-0.09993
-0.10431
-0.11308
-0.11922
-0.12447
-0.11659
-0.10694
-0.10081
-0.09993
-0.09993
-0.09993
-0.10870
-0.10957
-0.10168
-0.09116
-0.07714
-0.06224
-0.05610
-0.05522
-0.05522
-0.05522
-0.05084
-0.03769
-0.02630
-0.01227
-0.00614
-0.01315
-0.02717
-0.04295
-0.05785
-0.06837
-0.07802
-0.08853
-0.09818
-0.10870
-0.12272
-0.13762
-0.14814
-0.14551
-0.13675
-0.12710
-0.12535
-0.12535
-0.12886
-0.13850
-0.14376
-0.14113
-0.12798
-0.12097
-0.11133
-0.10957
-0.11396
-0.12360
-0.12535
-0.12535
-0.12535
-0.11308
-0.10168
-0.09993
-0.09993
-0.09993
-0.10782
-0.11834
-0.12798
-0.14639
-0.16217
-0.14464
-0.07013
0.03506
0.13675
0.24457
0.33047
0.31645
0.15866
-0.13587
-0.45144
-0.67672
-0.82925
-0.93619
-0.99141
-0.97564
-0.89236
-0.75298
-0.58293
-0.41638
-0.28401
-0.19109
-0.13061
-0.08766
-0.05961
-0.03506
-0.01753
-0.00701
-0.00526
-0.00877
-0.01403
-0.01490
-0.01140
-0.00175
0.00789
0.01403
0.01490
0.00701
0.00088
-0.00438
-0.00088
0.01227
0.02717
0.03419
0.03068
0.02630
0.01666
0.01490
0.01928
0.02805
0.03419
0.03857
0.04032
0.03594
0.02717
0.01666
0.01490
0.02279
0.03682
0.04821
0.05435
0.05084
0.04208
0.04032
0.04032
0.04383
0.05698
0.06399
0.06925
0.07013
0.06574
0.06487
0.06136
0.06399
0.07276
0.08328
0.08503
0.08503
0.08065
0.07626
0.07539
0.07889
0.08766
0.09818
0.10782
0.10957
0.10957
0.10607
0.10081
0.09993
0.10782
0.11746
0.13149
0.13499
0.13499
0.13499
0.13499
0.13499
0.13850
0.14814
0.15778
0.16743
0.17356
0.17532
0.17093
0.17006
0.17356
0.17882
0.19197
0.20249
0.20512
0.20512
0.20512
0.20074
0.19986
0.20424
0.21301
0.21915
0.22353
0.22528
0.22528
0.22090
0.22002
0.22353
0.23229
0.24281
0.24895
0.24194
0.22879
0.21389
0.20600
0.20512
0.20512
0.21301
0.21476
0.20775
0.19723
0.17970
0.16392
0.15253
0.14201
0.13587
0.13499
0.12360
0.10870
0.08941
0.07013
0.04558
0.02893
0.01753
0.01490
0.00701
-0.00263
-0.02016
-0.04032
-0.05259
-0.06662
-0.07363
-0.07889
-0.07977
-0.08415
-0.09292
-0.10256
-0.11659
-0.12360
-0.12535
-0.12097
-0.11659
-0.11834
-0.12710
-0.13762
-0.14727
-0.14990
-0.14990
-0.14639
-0.13412
-0.12623
-0.12097
-0.12360
-0.13236
-0.13850
-0.14025
-0.13236
-0.12623
-0.12097
-0.12009
-0.12360
-0.12886
-0.12973
-0.12973
-0.12623
-0.12097
-0.11220
-0.10607
-0.10519
-0.11571
-0.12360
-0.12535
-0.12097
-0.10870
-0.09730
-0.08415
-0.07626
-0.07100
-0.07363
-0.07539
-0.06750
-0.04997
-0.03068
-0.01403
-0.00614
-0.00526
-0.00877
-0.01753
-0.02717
-0.02980
-0.04120
-0.05610
-0.07451
-0.09467
-0.11133
-0.12973
-0.14551
-0.14990
-0.14288
-0.13675
-0.13499
-0.13850
-0.14376
-0.14902
-0.14990
-0.14639
-0.14113
-0.13236
-0.12623
-0.12535
-0.13236
-0.14201
-0.14902
-0.14990
-0.14639
-0.13412
-0.12623
-0.12535
-0.12886
-0.13324
-0.14201
-0.14464
-0.14113
-0.14025
-0.14727
-0.16480
-0.18408
-0.16129
-0.08590
0.01841
0.12886
0.24194
0.29979
0.23492
0.01227
-0.31469
-0.60747
-0.79594
-0.91164
-0.97914
-1.00193
-0.96950
-0.88009
-0.74685
-0.58819
-0.42952
-0.29979
-0.20161
-0.13587
-0.08853
-0.05698
-0.03945
-0.03506
-0.03506
-0.03506
-0.03156
-0.02630
-0.01753
-0.01140
-0.00614
-0.00526
-0.00526
-0.00877
-0.01315
-0.01140
-0.00614
0.00175
0.00877
0.00964
0.00614
0.00175
0.00000
0.00000
0.00701
0.01315
0.01841
0.02016
0.01666
0.01490
0.01140
0.01315
0.01841
0.02717
0.02980
0.03331
0.03156
0.02630
0.02542
0.02542
0.03156
0.03857
0.04383
0.04821
0.04997
0.04295
0.04032
0.04032
0.04383
0.05522
0.06311
0.07188
0.07802
0.07276
0.06662
0.06487
0.06487
0.06837
0.08065
0.09555
0.10344
0.10519
0.10168
0.09993
0.09993
0.10344
0.11483
0.13061
0.14201
0.14464
0.14464
0.14201
0.13675
0.13850
0.14990
0.16217
0.17181
0.17532
0.16830
0.16129
0.16041
0.16304
0.17532
0.19022
0.20161
0.20512
0.20512
0.20512
0.19811
0.19811
0.20337
0.21213
0.22178
0.22528
0.22528
0.21827
0.21126
0.21038
0.21301
0.21827
0.22353
0.22791
0.22966
0.22703
0.22178
0.21652
0.21476
0.21476
0.21827
0.22002
0.21301
0.20337
0.18671
0.17006
0.15515
0.14376
0.13675
0.13499
0.12535
0.10694
0.08678
0.06311
0.04208
0.02805
0.01841
0.01490
0.00526
-0.00964
-0.02454
-0.04646
-0.06487
-0.07626
-0.07977
-0.07977
-0.07977
-0.08328
-0.09116
-0.10168
-0.11483
-0.12360
-0.12535
-0.12535
-0.12184
-0.12009
-0.12360
-0.12798
-0.13675
-0.14288
-0.14201
-0.13324
-0.12710
-0.12535
-0.12535
-0.12535
-0.12798
-0.13324
-0.13499
-0.12886
-0.12184
-0.11396
-0.10957
-0.11308
-0.11834
-0.12360
-0.12535
-0.12535
-0.11834
-0.11220
-0.10957
-0.11308
-0.12097
-0.12535
-0.12798
-0.12973
-0.12360
-0.11045
-0.10168
-0.09642
-0.09467
-0.09467
-0.09204
-0.08678
-0.07889
-0.06574
-0.05084
-0.03857
-0.03156
-0.03331
-0.03857
-0.03331
-0.02717
-0.02191
-0.02016
-0.02630
-0.04295
-0.06224
-0.08590
-0.10431
-0.11922
-0.12535
-0.12535
-0.12535
-0.13149
-0.14113
-0.14814
-0.15340
-0.15515
-0.15165
-0.14376
-0.13412
-0.12973
-0.13324
-0.14464
-0.14990
-0.14990
-0.14727
-0.13850
-0.12886
-0.12535
-0.12535
-0.13149
-0.14113
-0.14464
-0.14201
-0.13061
-0.12184
-0.11659
-0.12097
-0.14025
-0.17444
-0.19285
-0.16392
-0.07451
0.04383
0.16392
0.27174
0.32258
0.26560
0.06311
-0.25070
-0.55049
-0.74948
-0.87395
-0.95810
-0.99404
-0.97301
-0.89148
-0.76175
-0.60747
-0.44180
-0.29278
-0.19109
-0.12973
-0.09467
-0.07626
-0.06399
-0.05698
-0.04558
-0.03419
-0.02367
-0.01666
-0.01841
-0.02630
-0.02980
-0.02980
-0.02717
-0.01578
-0.00701
-0.00526
-0.00526
-0.00526
-0.00789
-0.00701
-0.00526
0.00438
0.01315
0.01841
0.01666
0.01227
0.00701
0.00175
0.00263
0.01052
0.02104
0.03068
0.03506
0.03243
0.02717
0.02542
0.02542
0.03068
0.03769
0.04295
0.04821
0.04734
0.04208
0.03682
0.03506
0.03769
0.04558
0.05610
0.06311
0.06487
0.06487
0.05873
0.05172
0.05259
0.06048
0.07100
0.08065
0.08503
0.08503
0.08503
0.08240
0.08328
0.08766
0.09905
0.11045
0.11746
0.11746
0.11220
0.10957
0.10957
0.11571
0.12535
0.13587
0.14551
0.15253
0.15253
0.14464
0.14025
0.14288
0.15077
0.16392
0.17532
0.17970
0.17970
0.17707
0.17532
0.17532
0.17795
0.18846
0.20074
0.20512
0.20249
0.19460
0.18759
0.18496
0.18759
0.19548
0.20249
0.20775
0.21038
0.20687
0.19898
0.19460
0.19811
0.20249
0.20512
0.21038
0.21213
0.20424
0.19197
0.18233
0.17444
0.16743
0.16217
0.15691
0.15253
0.14201
0.12097
0.09905
0.08152
0.06925
0.06487
0.05961
0.04646
0.03156
0.01666
-0.00351
-0.02367
-0.03594
-0.04295
-0.04734
-0.05259
-0.05785
-0.07100
-0.08590
-0.09555
-0.10519
-0.10694
-0.10256
-0.09993
-0.09993
-0.09993
-0.10782
-0.12009
-0.12535
-0.12535
-0.12184
-0.11483
-0.10694
-0.10519
-0.11045
-0.12009
-0.12535
-0.12535
-0.12184
-0.11483
-0.10694
-0.10519
-0.10782
-0.11571
-0.12272
-0.12535
-0.12535
-0.11922
-0.11220
-0.10694
-0.10782
-0.11571
-0.12272
-0.12535
-0.12272
-0.11746
-0.10957
-0.10256
-0.10256
-0.10782
-0.11571
-0.12009
-0.11746
-0.10694
-0.09204
-0.08240
-0.07714
-0.07802
-0.07977
-0.07714
-0.06662
-0.05435
-0.04471
-0.03506
-0.02717
-0.02542
-0.02805
-0.03506
-0.04821
-0.05785
-0.06487
-0.07539
-0.08503
-0.09818
-0.11571
-0.13324
-0.14551
-0.14990
-0.14727
-0.14201
-0.13762
-0.13499
-0.13762
-0.14551
-0.15253
-0.15515
-0.15253
-0.14727
-0.13938
-0.13236
-0.13236
-0.13762
-0.14288
-0.14464
-0.14201
-0.13499
-0.12710
-0.12009
-0.11746
-0.12272
-0.12798
-0.12973
-0.12973
-0.13499
-0.14727
-0.16567
-0.17269
-0.14464
-0.07100
0.03156
0.14639
0.25596
0.31732
0.26648
0.05961
-0.25509
-0.55488
-0.76087
-0.89324
-0.97826
-1.01245
-0.97914
-0.88184
-0.74159
-0.57942
-0.41462
-0.28226
-0.19197
-0.12973
-0.08766
-0.05785
-0.03769
-0.02980
-0.02717
-0.02542
-0.02279
-0.01753
-0.00964
-0.00263
0.00000
-0.00263
-0.00964
-0.01753
-0.02016
-0.01490
-0.00789
0.00000
0.00789
0.00964
0.00526
-0.00263
-0.00526
-0.00263
0.00701
0.02016
0.02980
0.03506
0.03243
0.02717
0.02279
0.02016
0.02454
0.03506
0.04032
0.04208
0.04295
0.03506
0.02717
0.02717
0.03243
0.03769
0.04734
0.05961
0.06487
0.06224
0.05522
0.04734
0.04734
0.05698
0.07013
0.07977
0.08503
0.08503
0.07977
0.07539
0.07714
0.08240
0.09204
0.10519
0.11220
0.11220
0.10957
0.10782
0.10782
0.11220
0.12184
0.13236
0.13938
0.14727
0.14727
0.14464
0.14288
0.14201
0.14990
0.16217
0.17269
0.17532
0.17532
0.17532
0.17269
0.17006
0.17444
0.18671
0.19986
0.20775
0.21038
0.20775
0.20512
0.20512
0.20775
0.21739
0.22703
0.23229
0.23492
0.23054
0.22265
0.21739
0.21739
0.22440
0.23668
0.24720
0.24983
0.24544
0.23317
0.22265
0.21739
0.21476
0.21739
0.22265
0.22265
0.21564
0.20337
0.18846
0.17532
0.16567
0.15778
0.15253
0.14288
0.12798
0.11133
0.09116
0.07276
0.05785
0.04734
0.04295
0.03506
0.02279
0.00614
-0.01666
-0.03682
-0.04909
-0.05522
-0.05522
-0.05522
-0.05698
-0.06662
-0.08152
-0.09467
-0.10431
-0.10957
-0.10957
-0.10782
-0.10519
-0.10694
-0.11483
-0.12184
-0.12973
-0.13499
-0.13061
-0.12272
-0.11746
-0.11308
-0.11220
-0.11922
-0.12710
-0.13236
-0.13236
-0.12798
-0.12535
-0.12272
-0.12009
-0.12184
-0.12535
-0.12535
-0.12535
-0.12272
-0.11571
-0.10957
-0.10957
-0.11220
-0.11746
-0.12184
-0.12272
-0.11571
-0.10607
-0.09555
-0.08590
-0.07977
-0.07977
-0.07977
-0.07539
-0.06399
-0.04821
-0.03594
-0.02542
-0.02016
-0.02454
-0.03243
-0.03945
-0.04909
-0.05698
-0.06399
-0.07451
-0.08853
-0.10870
-0.12623
-0.13938
-0.14727
-0.14814
-0.14113
-0.13324
-0.13236
-0.13938
-0.14727
-0.14990
-0.14990
-0.14814
-0.13850
-0.12798
-0.12535
-0.12535
-0.12886
-0.13938
-0.14464
-0.14113
-0.13061
-0.12097
-0.11483
-0.11746
-0.12184
-0.12710
-0.12973
-0.12973
-0.12973
-0.13587
-0.15340
-0.17356
-0.17707
-0.13236
-0.04383
0.06224
0.17707
0.27349
0.28840
0.15778
-0.11133
-0.43040
-0.67584
-0.82486
-0.91603
-0.96512
-0.96599
-0.90639
-0.79506
-0.65042
-0.49001
-0.34274
-0.22703
-0.14376
-0.08678
-0.04821
-0.02805
-0.02542
-0.02717
-0.02980
-0.02980
-0.02630
-0.01403
-0.00088
0.00526
0.00263
-0.00175
-0.00701
-0.00964
-0.00789
-0.00088
0.00877
0.01490
0.01490
0.01490
0.01140
0.00263
0.00175
0.00877
0.01666
0.02367
0.02980
0.02805
0.02279
0.01841
0.01666
0.02191
0.03068
0.04032
0.04208
0.04295
0.04032
0.03769
0.03506
0.03682
0.04383
0.05347
0.06224
0.06487
0.06136
0.05347
0.05172
0.05698
0.06399
0.07363
0.08152
0.08503
0.08503
0.08152
0.07539
0.07714
0.08415
0.09379
0.10344
0.10957
0.10957
0.10957
0.10957
0.10957
0.10957
0.11571
0.12886
0.13675
0.14201
0.14464
0.14288
0.14025
0.14376
0.15165
0.15866
0.16830
0.17707
0.17795
0.17093
0.16480
0.16655
0.17356
0.18145
0.19022
0.20161
0.20512
0.20337
0.19811
0.19723
0.20161
0.20687
0.21389
0.22178
0.22353
0.21827
0.21126
0.20512
0.20512
0.20687
0.21564
0.22528
0.22528
0.22178
0.21126
0.20512
0.20512
0.20512
0.20687
0.21213
0.21301
0.20600
0.19285
0.17444
0.16129
0.15165
0.14288
0.13850
0.12973
0.11483
0.09818
0.07802
0.05961
0.04471
0.03331
0.02630
0.01841
0.00964
-0.00701
-0.02717
-0.04558
-0.05873
-0.06662
-0.07013
-0.07188
-0.07539
-0.07889
-0.09029
-0.10344
-0.11133
-0.11308
-0.10870
-0.10519
-0.10344
-0.10168
-0.10870
-0.11834
-0.12535
-0.12535
-0.12009
-0.10694
-0.09818
-0.09642
-0.10168
-0.10870
-0.11659
-0.12009
-0.11834
-0.11308
-0.10694
-0.09993
-0.10168
-0.10694
-0.11308
-0.12009
-0.12009
-0.11659
-0.10870
-0.10344
-0.09993
-0.10344
-0.11133
-0.11308
-0.10870
-0.10344
-0.09467
-0.08328
-0.07626
-0.06837
-0.06311
-0.05873
-0.05522
-0.04997
-0.03506
-0.02191
-0.01315
-0.00964
-0.01140
-0.01841
-0.02630
-0.02980
-0.03331
-0.04471
-0.05961
-0.07626
-0.09467
-0.11133
-0.12623
-0.13149
-0.13324
-0.12798
-0.12535
-0.12535
-0.12535
-0.12798
-0.13675
-0.14025
-0.13850
-0.13149
-0.12535
-0.12535
-0.12535
-0.12623
-0.13324
-0.14025
-0.13675
-0.12886
-0.12184
-0.11308
-0.11133
-0.11659
-0.12184
-0.12623
-0.12973
-0.12886
-0.12973
-0.14814
-0.17006
-0.17269
-0.13149
-0.04471
0.06925
0.18058
0.28314
0.32083
0.22703
-0.01578
-0.34011
-0.61448
-0.78629
-0.89411
-0.95898
-0.96950
-0.91603
-0.81084
-0.67146
-0.51192
-0.36115
-0.24106
-0.15515
-0.09642
-0.05610
-0.03243
-0.02367
-0.02191
-0.02542
-0.02367
-0.01666
-0.00877
-0.00175
0.00614
0.00877
0.00351
-0.00175
-0.00526
-0.00526
-0.00175
0.00789
0.01753
0.02367
0.01841
0.01315
0.00877
0.00614
0.01315
0.02454
0.03682
0.04032
0.03857
0.03243
0.02191
0.01490
0.01666
0.02279
0.03331
0.04032
0.04032
0.03857
0.03331
0.02980
0.03156
0.03769
0.04821
0.05610
0.05961
0.05873
0.05347
0.04821
0.04646
0.05259
0.06136
0.06750
0.07363
0.06837
0.06399
0.06136
0.06487
0.06750
0.07802
0.08766
0.09642
0.10168
0.10344
0.09993
0.10168
0.10607
0.11308
0.12272
0.13149
0.13499
0.13499
0.13499
0.13499
0.13675
0.14288
0.15165
0.15603
0.16129
0.16392
0.16041
0.16041
0.16129
0.16743
0.17795
0.18759
0.19635
0.19986
0.19898
0.19460
0.19635
0.20161
0.20775
0.21739
0.22528
0.22528
0.22528
0.22353
0.21739
0.21038
0.21126
0.21739
0.22528
0.22528
0.22528
0.22265
0.21389
0.20863
0.20512
0.20600
0.21038
0.20863
0.20249
0.19109
0.17532
0.15866
0.15253
0.14464
0.14288
0.13412
0.12535
0.10519
0.08328
0.06136
0.04734
0.03857
0.03331
0.02717
0.01753
0.00614
-0.01140
-0.03506
-0.05084
-0.05785
-0.06662
-0.07276
-0.07977
-0.08328
-0.09730
-0.10870
-0.12097
-0.12535
-0.12360
-0.12009
-0.12009
-0.12097
-0.12623
-0.13499
-0.15077
-0.15515
-0.15253
-0.14288
-0.13412
-0.12973
-0.13149
-0.13587
-0.14113
-0.14464
-0.14376
-0.13762
-0.12886
-0.12535
-0.12535
-0.12710
-0.13762
-0.14639
-0.14727
-0.13850
-0.13236
-0.12535
-0.12535
-0.12535
-0.12623
-0.13149
-0.13412
-0.12886
-0.12360
-0.11746
-0.10870
-0.10519
-0.10607
-0.10957
-0.10782
-0.09905
-0.09116
-0.07626
-0.06311
-0.05347
-0.04997
-0.04997
-0.04997
-0.04734
-0.03769
-0.02630
-0.01403
-0.01227
-0.02367
-0.04032
-0.06574
-0.08853
-0.10081
-0.10607
-0.11220
-0.12097
-0.12710
-0.13762
-0.14639
-0.14990
-0.14902
-0.14288
-0.13412
-0.12886
-0.12623
-0.13149
-0.13675
-0.14464
-0.14376
-0.13762
-0.12886
-0.12535
-0.12535
-0.12623
-0.13149
-0.13587
-0.13938
-0.13324
-0.12360
-0.11922
-0.11483
-0.11746
-0.12710
-0.14025
-0.16655
-0.19109
-0.18496
-0.12097
-0.00701
0.10256
0.20950
0.28927
0.28489
0.15866
-0.08503
-0.39446
-0.64253
-0.79331
-0.90025
-0.96512
-0.97739
-0.92304
-0.80470
-0.65130
-0.48387
-0.33573
-0.22616
-0.16129
-0.11834
-0.08590
-0.06574
-0.04646
-0.02893
-0.02279
-0.01578
-0.02104
-0.02630
-0.02980
-0.02893
-0.02279
-0.01315
-0.00526
-0.00438
-0.00088
-0.00614
-0.00964
-0.00877
-0.00438
0.00175
0.01052
0.01490
0.01490
0.01403
0.00877
0.00526
0.00701
0.01578
0.02191
0.03068
0.03419
0.02893
0.02367
0.02104
0.02717
0.03594
0.04208
0.05084
0.05522
0.05347
0.04383
0.04032
0.04032
0.04208
0.05259
0.06574
0.07013
0.07013
0.06925
0.06487
0.06487
0.06574
0.07188
0.08152
0.09116
0.09467
0.09292
0.08503
0.08503
0.08678
0.09642
0.10694
0.11571
0.12097
0.12447
0.11922
0.11483
0.11571
0.12184
0.13061
0.13675
0.14551
0.15077
0.15428
0.14990
0.14990
0.15165
0.16129
0.17181
0.17970
0.17970
0.17882
0.17532
0.17532
0.17619
0.18145
0.19197
0.20074
0.20512
0.20424
0.19898
0.19460
0.19548
0.20074
0.20600
0.21038
0.21476
0.21389
0.20950
0.20424
0.19986
0.20074
0.20600
0.21038
0.21389
0.20950
0.20337
0.19372
0.18408
0.17970
0.17970
0.17882
0.17356
0.16304
0.15253
0.13762
0.12272
0.10782
0.09379
0.08328
0.07363
0.06224
0.04208
0.02191
0.00263
-0.01227
-0.02542
-0.03068
-0.03594
-0.04120
-0.05172
-0.06311
-0.08152
-0.09116
-0.09993
-0.09993
-0.09993
-0.09993
-0.10081
-0.10694
-0.12097
-0.12535
-0.12973
-0.12535
-0.12447
-0.11922
-0.11483
-0.11659
-0.12535
-0.12535
-0.12973
-0.12973
-0.12360
-0.11396
-0.10957
-0.10607
-0.11659
-0.12535
-0.13061
-0.13499
-0.13324
-0.12535
-0.12360
-0.11396
-0.11045
-0.11659
-0.12535
-0.12535
-0.12447
-0.11922
-0.11396
-0.10957
-0.10957
-0.11133
-0.12009
-0.11922
-0.11308
-0.09818
-0.08415
-0.07889
-0.07013
-0.07013
-0.06925
-0.06399
-0.05873
-0.04734
-0.02893
-0.01928
-0.01578
-0.02104
-0.02542
-0.03156
-0.04208
-0.05698
-0.07100
-0.08065
-0.08678
-0.10168
-0.11659
-0.12710
-0.14025
-0.14464
-0.14464
-0.14025
-0.14025
-0.14025
-0.14551
-0.14990
-0.14990
-0.14902
-0.13850
-0.12973
-0.12535
-0.12535
-0.12623
-0.13587
-0.14464
-0.14376
-0.13412
-0.12973
-0.12535
-0.12535
-0.12535
-0.12535
-0.12535
-0.12973
-0.13149
-0.14201
-0.15778
-0.17970
-0.17444
-0.11483
-0.01315
0.09555
0.20074
0.29891
0.31995
0.20337
-0.06399
-0.39183
-0.64692
-0.80645
-0.91164
-0.97038
-0.96512
-0.90989
-0.80120
-0.65919
-0.49965
-0.34800
-0.23317
-0.15954
-0.10081
-0.06311
-0.04383
-0.03419
-0.02980
-0.02980
-0.02980
-0.02980
-0.02367
-0.01403
-0.00526
-0.00438
-0.00088
-0.00526
-0.00526
-0.00526
-0.00351
0.01052
0.01578
0.02542
0.02454
0.01928
0.01490
0.01490
0.01578
0.02104
0.03068
0.03506
0.04032
0.03945
0.03419
0.02980
0.03068
0.03506
0.04032
0.04558
0.04997
0.04997
0.04471
0.04032
0.04032
0.04032
0.04558
0.05610
0.06487
0.06487
0.06399
0.05522
0.05522
0.05610
0.06574
0.07100
0.07977
0.07977
0.07977
0.07539
0.07539
0.08065
0.08590
0.09555
0.10519
0.11045
0.11483
0.10957
0.10957
0.11045
0.12097
0.13499
0.14025
0.14464
0.14464
0.14464
0.14464
0.14551
0.14990
0.15603
0.16567
0.17532
0.17970
0.17970
0.17970
0.18058
0.18584
0.19548
0.20512
0.21038
0.21476
0.20950
0.20512
0.20512
0.20512
0.21038
0.22090
0.23054
0.24018
0.24457
0.23931
0.23492
0.22966
0.23054
0.24018
0.24544
0.24983
0.24983
0.23931
0.22966
0.22440
0.21564
0.22002
0.22528
0.22528
0.22440
0.21389
0.19898
0.17882
0.16480
0.15515
0.15515
0.14902
0.13412
0.11922
0.09905
0.07451
0.05435
0.03945
0.03506
0.02980
0.01928
0.00964
-0.00614
-0.03068
-0.04558
-0.05522
-0.06048
-0.06487
-0.07013
-0.07539
-0.08590
-0.09993
-0.10519
-0.11483
-0.12009
-0.11483
-0.10957
-0.11045
-0.11483
-0.12009
-0.12535
-0.12973
-0.12973
-0.12535
-0.12447
-0.12009
-0.11483
-0.12009
-0.12535
-0.12973
-0.13499
-0.12973
-0.12447
-0.11483
-0.11483
-0.11571
-0.12535
-0.12535
-0.12973
-0.12447
-0.12009
-0.10957
-0.10957
-0.11045
-0.11483
-0.12535
-0.12973
-0.12447
-0.11483
-0.09993
-0.09467
-0.09029
-0.08503
-0.08503
-0.08503
-0.07977
-0.06487
-0.04997
-0.03506
-0.02980
-0.02980
-0.02980
-0.02980
-0.02980
-0.03506
-0.03506
-0.04032
-0.05522
-0.07539
-0.09993
-0.12009
-0.12973
-0.14025
-0.14025
-0.13499
-0.13499
-0.13499
-0.14464
-0.14990
-0.14990
-0.14990
-0.14464
-0.12973
-0.12535
-0.12535
-0.12535
-0.12973
-0.13499
-0.14025
-0.14025
-0.12973
-0.12535
-0.12009
-0.12009
-0.12535
-0.12973
-0.12973
-0.12973
-0.12535
-0.12009
-0.12535
-0.14990
-0.17970
-0.19460
-0.14464
-0.04471
0.06487
0.17970
0.29015
0.32959
0.23492
-0.01490
-0.35940
-0.63464
-0.78980
-0.89499
-0.95986
-0.98002
-0.94495
-0.85028
-0.72055
-0.55575
-0.39096
-0.26034
-0.17093
-0.11045
-0.07977
-0.06487
-0.05522
-0.05522
-0.04471
-0.04032
-0.02980
-0.02542
-0.02016
-0.02016
-0.02454
-0.02980
-0.02980
-0.02542
-0.01490
-0.00526
0.00526
0.00526
0.00000
-0.00526
-0.00964
-0.00964
-0.00526
0.00526
0.01490
0.01490
0.01490
0.01052
0.00526
0.00526
0.01490
0.02016
0.02980
0.03506
0.02980
0.02542
0.02016
0.01490
0.02016
0.03506
0.04032
0.04997
0.04997
0.04471
0.04032
0.04032
0.04032
0.04471
0.05961
0.06487
0.07013
0.06487
0.06487
0.06487
0.06487
0.07013
0.08415
0.09029
0.09467
0.09467
0.09467
0.08503
0.08503
0.08941
0.10431
0.11483
0.12447
0.12973
0.12535
0.12009
0.12009
0.12447
0.13499
0.14990
0.15515
0.15515
0.15515
0.15515
0.15515
0.15515
0.15954
0.16918
0.17970
0.17970
0.17970
0.17970
0.17970
0.17970
0.17970
0.18934
0.20424
0.20950
0.21038
0.20512
0.19548
0.19460
0.19986
0.20512
0.21915
0.22440
0.22528
0.22002
0.20600
0.20512
0.19986
0.20512
0.20950
0.21476
0.21038
0.20512
0.19109
0.17619
0.16567
0.15515
0.15515
0.14990
0.14025
0.12623
0.10607
0.08152
0.06574
0.05084
0.04032
0.03506
0.03068
0.01578
-0.00351
-0.01928
-0.03857
-0.05435
-0.05522
-0.05522
-0.05522
-0.06399
-0.07889
-0.08941
-0.09905
-0.10957
-0.10957
-0.10519
-0.09993
-0.09993
-0.10431
-0.11396
-0.12447
-0.12973
-0.12535
-0.12535
-0.11571
-0.10607
-0.10519
-0.11396
-0.12447
-0.12535
-0.12535
-0.12009
-0.11045
-0.10519
-0.09993
-0.10957
-0.11922
-0.12447
-0.12535
-0.12535
-0.11571
-0.10607
-0.09993
-0.09993
-0.10957
-0.11922
-0.12447
-0.12009
-0.10607
-0.09555
-0.08590
-0.08503
-0.08503
-0.08503
-0.08065
-0.07977
-0.06662
-0.05084
-0.03594
-0.02542
-0.02016
-0.02016
-0.02454
-0.02016
-0.02016
-0.01578
-0.01928
-0.02893
-0.05259
-0.07802
-0.09818
-0.11834
-0.12447
-0.12535
-0.12009
-0.12009
-0.12447
-0.12973
-0.13938
-0.14902
-0.14990
-0.14551
-0.13587
-0.13061
-0.12535
-0.12535
-0.13412
-0.13938
-0.14025
-0.13587
-0.12623
-0.12009
-0.11571
-0.11922
-0.12447
-0.12973
-0.13412
-0.13061
-0.12097
-0.11133
-0.10519
-0.11834
-0.14727
-0.19022
-0.19986
-0.15954
-0.06487
0.05259
0.16830
0.27875
0.32609
0.24018
0.00526
-0.31645
-0.58293
-0.74422
-0.85379
-0.92742
-0.96161
-0.92918
-0.83976
-0.70039
-0.53296
-0.36729
-0.23405
-0.14814
-0.09993
-0.07276
-0.05698
-0.05084
-0.04558
-0.03156
-0.02104
-0.01140
-0.00526
-0.00964
-0.01403
-0.01928
-0.02454
-0.02016
-0.01140
-0.00088
0.00877
0.00964
0.00526
0.00088
-0.00438
-0.00088
0.00877
0.01403
0.01928
0.02454
0.02016
0.01578
0.01052
0.00964
0.01403
0.02367
0.03419
0.03945
0.04032
0.03594
0.03068
0.02980
0.03419
0.03945
0.04471
0.04909
0.04997
0.04120
0.03594
0.03068
0.03419
0.04383
0.05785
0.06837
0.07013
0.06574
0.06487
0.06487
0.06925
0.07889
0.08853
0.09905
0.10431
0.10519
0.09642
0.09029
0.09029
0.10344
0.11396
0.12798
0.13850
0.14464
0.14025
0.13587
0.13061
0.13412
0.13938
0.15253
0.16392
0.16918
0.16567
0.16041
0.16041
0.16392
0.17356
0.17970
0.19285
0.20337
0.20074
0.19548
0.19109
0.19460
0.20337
0.20950
0.22265
0.22528
0.22528
0.22090
0.21564
0.21476
0.21915
0.22879
0.23843
0.24895
0.24983
0.24106
0.22703
0.22528
0.22528
0.22528
0.22966
0.23405
0.23054
0.22178
0.20687
0.20074
0.19548
0.18671
0.18058
0.17970
0.17181
0.15691
0.13850
0.11834
0.10256
0.09116
0.08152
0.07188
0.06574
0.04821
0.02805
0.00789
-0.00351
-0.01753
-0.02805
-0.02980
-0.03419
-0.04734
-0.05873
-0.07714
-0.09642
-0.10870
-0.11396
-0.11483
-0.11483
-0.11483
-0.11922
-0.12447
-0.13324
-0.14376
-0.14464
-0.14113
-0.13587
-0.13061
-0.12973
-0.13412
-0.14288
-0.14902
-0.14990
-0.14201
-0.13149
-0.12623
-0.12535
-0.12535
-0.13324
-0.13499
-0.13499
-0.13061
-0.12623
-0.11659
-0.11483
-0.11922
-0.12447
-0.12535
-0.12886
-0.12623
-0.12097
-0.11220
-0.10957
-0.10957
-0.11396
-0.11922
-0.12009
-0.11571
-0.10256
-0.08766
-0.07276
-0.06224
-0.05610
-0.05522
-0.05522
-0.05084
-0.04208
-0.03156
-0.01403
-0.00614
-0.00526
-0.01315
-0.02717
-0.04997
-0.06750
-0.07802
-0.08853
-0.09818
-0.10431
-0.12097
-0.13324
-0.14288
-0.14902
-0.14639
-0.13675
-0.12710
-0.12535
-0.12886
-0.13850
-0.14376
-0.14902
-0.14639
-0.13675
-0.12710
-0.12535
-0.12535
-0.13324
-0.14288
-0.14464
-0.13675
-0.12710
-0.12097
-0.11571
-0.11483
-0.11483
-0.12272
-0.12535
-0.13675
-0.15165
-0.17532
-0.18408
-0.13675
-0.04558
0.05873
0.16392
0.26823
0.29804
0.19635
-0.02893
-0.32258
-0.58380
-0.75386
-0.87220
-0.94671
-0.96775
-0.91866
-0.80996
-0.66270
-0.49965
-0.35063
-0.24457
-0.17795
-0.12535
-0.08766
-0.06048
-0.03506
-0.02980
-0.02980
-0.02980
-0.02980
-0.02980
-0.02980
-0.01841
-0.00701
-0.00088
-0.00351
-0.00526
-0.00877
-0.00964
-0.00964
-0.00614
0.00263
0.01315
0.01490
0.01490
0.01140
0.00614
0.00877
0.01403
0.01928
0.02805
0.03419
0.03068
0.02630
0.01753
0.01490
0.01928
0.02805
0.03769
0.04383
0.04471
0.04120
0.03594
0.03506
0.03857
0.04383
0.05259
0.06311
0.06487
0.06136
0.05610
0.05084
0.05347
0.06311
0.07276
0.08240
0.08503
0.08503
0.08152
0.07977
0.07977
0.08415
0.09642
0.10782
0.11396
0.11483
0.11483
0.11133
0.10957
0.11746
0.12798
0.13762
0.15165
0.15515
0.15515
0.14727
0.14113
0.14376
0.15253
0.16655
0.17795
0.17970
0.17970
0.17970
0.17619
0.17882
0.18408
0.19285
0.20249
0.20863
0.21038
0.20600
0.20512
0.20512
0.20863
0.21739
0.22353
0.22879
0.22966
0.22616
0.22090
0.21652
0.21476
0.22265
0.22879
0.23405
0.23492
0.23142
0.22616
0.21389
0.20600
0.20512
0.20512
0.20863
0.20600
0.19723
0.18408
0.16480
0.14902
0.13762
0.13149
0.12272
0.11220
0.09905
0.07977
0.06048
0.04383
0.02542
0.01666
0.01490
0.00789
-0.00263
-0.01227
-0.02630
-0.04471
-0.05347
-0.05873
-0.05961
-0.05961
-0.06399
-0.06837
-0.07714
-0.08766
-0.09730
-0.09993
-0.09642
-0.09116
-0.08678
-0.08503
-0.09204
-0.09905
-0.10344
-0.10870
-0.10607
-0.10168
-0.09292
-0.09029
-0.09379
-0.09905
-0.09993
-0.10344
-0.10168
-0.09292
-0.08678
-0.08503
-0.08853
-0.09730
-0.10344
-0.10870
-0.10957
-0.10256
-0.09292
-0.08240
-0.07977
-0.08678
-0.09379
-0.09467
-0.09116
-0.08240
-0.07626
-0.06399
-0.05610
-0.05172
-0.04997
-0.04997
-0.04295
-0.03243
-0.01928
-0.00789
0.00175
0.00526
0.00175
-0.00351
-0.01578
-0.02717
-0.03682
-0.05084
-0.06224
-0.07539
-0.08678
-0.10081
-0.11571
-0.12360
-0.12535
-0.11834
-0.11133
-0.10957
-0.11396
-0.11834
-0.12360
-0.12535
-0.12535
-0.12184
-0.11308
-0.10607
-0.10870
-0.11308
-0.12184
-0.12535
-0.12184
-0.11308
-0.10256
-0.09993
-0.09993
-0.09993
-0.10344
-0.10870
-0.10957
-0.10957
-0.12009
-0.14201
-0.16392
-0.14902
-0.08065
0.02191
0.13149
0.24457
0.32521
0.31031
0.17006
-0.09993
-0.39972
-0.62500
-0.77490
-0.87746
-0.92567
-0.90376
-0.81785
-0.68461
-0.53647
-0.39359
-0.27437
-0.18496
-0.12184
-0.07714
-0.04120
-0.01928
-0.01140
-0.01315
-0.01490
-0.01490
-0.00789
0.00175
0.01227
0.01841
0.01666
0.01490
0.01140
0.00701
0.00877
0.01315
0.02542
0.03331
0.03506
0.03156
0.02279
0.01666
0.01490
0.01841
0.02980
0.03857
0.04032
0.04032
0.03331
0.02367
0.01666
0.02191
0.03506
0.04295
0.04821
0.04997
0.04646
0.04120
0.04032
0.04032
0.04646
0.05698
0.06311
0.06487
0.06136
0.05347
0.04646
0.04821
0.05698
0.06311
0.07539
0.08328
0.08152
0.07626
0.07539
0.07539
0.08152
0.09204
0.09818
0.10344
0.10519
0.10168
0.09642
0.09204
0.09642
0.10694
0.12360
0.13324
0.13850
0.13675
0.13499
0.13499
0.13499
0.14464
0.15691
0.17006
0.17795
0.17707
0.17181
0.16655
0.16830
0.17619
0.18671
0.19635
0.20337
0.20512
0.20512
0.20161
0.19986
0.20337
0.21126
0.21827
0.22353
0.22528
0.22528
0.22178
0.22002
0.22002
0.22002
0.22353
0.22791
0.22966
0.22966
0.22703
0.21827
0.21213
0.21038
0.21301
0.21476
0.21213
0.20687
0.19548
0.18058
0.16217
0.14902
0.14464
0.14464
0.13850
0.13149
0.11746
0.09379
0.07188
0.05522
0.04383
0.03682
0.03156
0.02016
0.00526
-0.01315
-0.03243
-0.04909
-0.05785
-0.05961
-0.06311
-0.07451
-0.08590
-0.09905
-0.11133
-0.12097
-0.12798
-0.12973
-0.12710
-0.12535
-0.12798
-0.13587
-0.14639
-0.14990
-0.14990
-0.14727
-0.13850
-0.13149
-0.12973
-0.13587
-0.14639
-0.14990
-0.14990
-0.14727
-0.13850
-0.13149
-0.12710
-0.12798
-0.13587
-0.14639
-0.14990
-0.14990
-0.14025
-0.12886
-0.12184
-0.11659
-0.11834
-0.12272
-0.12798
-0.12973
-0.12710
-0.12184
-0.11396
-0.10957
-0.10957
-0.10957
-0.10694
-0.09905
-0.08590
-0.07100
-0.05610
-0.04383
-0.03682
-0.03506
-0.03506
-0.03156
-0.02980
-0.02717
-0.02542
-0.03068
-0.04734
-0.07013
-0.09555
-0.11746
-0.12798
-0.12973
-0.12973
-0.12710
-0.12798
-0.13587
-0.14288
-0.14814
-0.14990
-0.14727
-0.13938
-0.13236
-0.12710
-0.12798
-0.13324
-0.14113
-0.14814
-0.14727
-0.13938
-0.12886
-0.12535
-0.12535
-0.12535
-0.13061
-0.13762
-0.14025
-0.13412
-0.12710
-0.12535
-0.12798
-0.14814
-0.18058
-0.20074
-0.17269
-0.08152
0.03331
0.14201
0.24106
0.29804
0.24194
0.03506
-0.27349
-0.56101
-0.74772
-0.86080
-0.93268
-0.96424
-0.94057
-0.86694
-0.74772
-0.59345
-0.42777
-0.28664
-0.18496
-0.12097
-0.08503
-0.06662
-0.05698
-0.05172
-0.04120
-0.02893
-0.01928
-0.01227
-0.01315
-0.01753
-0.02279
-0.02542
-0.02191
-0.01140
-0.00175
0.00263
0.00526
0.00175
-0.00263
-0.00526
-0.00526
-0.00175
0.00877
0.01753
0.02016
0.01753
0.01227
0.00701
0.00526
0.01052
0.02104
0.03068
0.03769
0.04032
0.03682
0.03243
0.02980
0.03243
0.03769
0.04821
0.05785
0.05961
0.05435
0.04734
0.04471
0.04821
0.05610
0.06311
0.07363
0.07977
0.07714
0.06925
0.06487
0.06487
0.06750
0.07802
0.09029
0.09818
0.09993
0.09730
0.09204
0.09029
0.09292
0.10344
0.11571
0.12535
0.13236
0.13236
0.12710
0.12535
0.12798
0.13236
0.14376
0.15253
0.15515
0.15515
0.15253
0.14990
0.15253
0.16041
0.17093
0.17795
0.18584
0.19022
0.19022
0.18759
0.18496
0.18759
0.19548
0.20249
0.20775
0.21038
0.20687
0.20249
0.19986
0.19986
0.20249
0.21038
0.22090
0.22528
0.22265
0.21476
0.20687
0.20512
0.20512
0.21038
0.21739
0.21739
0.21213
0.20424
0.18934
0.17707
0.17269
0.16743
0.16217
0.15691
0.14464
0.12447
0.10431
0.08678
0.07188
0.05961
0.05259
0.04471
0.03506
0.02191
0.00438
-0.01578
-0.03068
-0.03769
-0.04295
-0.04997
-0.05785
-0.06837
-0.08065
-0.09292
-0.10256
-0.10519
-0.10256
-0.09993
-0.09993
-0.09993
-0.10519
-0.11571
-0.12272
-0.12535
-0.12009
-0.10957
-0.10256
-0.09993
-0.10519
-0.11483
-0.12272
-0.12535
-0.12009
-0.10957
-0.10256
-0.09993
-0.10256
-0.11045
-0.12009
-0.12535
-0.12272
-0.11483
-0.10782
-0.10256
-0.09993
-0.10519
-0.11483
-0.12272
-0.12535
-0.12272
-0.11220
-0.10256
-0.09730
-0.09467
-0.09730
-0.09993
-0.09730
-0.08766
-0.07188
-0.05961
-0.04734
-0.03769
-0.03506
-0.03769
-0.03506
-0.02717
-0.01753
-0.00789
-0.00526
-0.01052
-0.02542
-0.04997
-0.07539
-0.09292
-0.10256
-0.10782
-0.10957
-0.11220
-0.12009
-0.12973
-0.14025
-0.14464
-0.14288
-0.13499
-0.12710
-0.12272
-0.12272
-0.12973
-0.14025
-0.14727
-0.14464
-0.13499
-0.12535
-0.11746
-0.11746
-0.12272
-0.12710
-0.12973
-0.12973
-0.12710
-0.11746
-0.10519
-0.09993
-0.10782
-0.12447
-0.15253
-0.18233
-0.19022
-0.14288
-0.04295
0.06399
0.16655
0.26385
0.31469
0.25596
0.05522
-0.24194
-0.51718
-0.70565
-0.83100
-0.91953
-0.96249
-0.93794
-0.84678
-0.70477
-0.53471
-0.36992
-0.24106
-0.15866
-0.11045
-0.08328
-0.06311
-0.04558
-0.02805
-0.01315
-0.00263
-0.00263
-0.00526
-0.00701
-0.00964
-0.00789
0.00000
0.00964
0.01753
0.02016
0.01753
0.01227
0.00789
0.00701
0.01227
0.02191
0.03243
0.03769
0.03769
0.03243
0.02805
0.02542
0.02980
0.03769
0.04471
0.04997
0.04734
0.04295
0.03506
0.03243
0.03769
0.04471
0.05435
0.05961
0.05785
0.05259
0.04734
0.04471
0.04471
0.04997
0.05961
0.06925
0.07714
0.07802
0.07276
0.06750
0.06750
0.07451
0.08240
0.08941
0.09730
0.09993
0.09730
0.09292
0.09029
0.09204
0.10168
0.11483
0.12272
0.12535
0.12272
0.11746
0.11483
0.11746
0.12447
0.13499
0.14201
0.14727
0.14814
0.14288
0.14025
0.14201
0.14990
0.15954
0.16918
0.17707
0.17970
0.17795
0.17269
0.17006
0.17181
0.17970
0.18934
0.19986
0.20512
0.20512
0.20512
0.20249
0.19986
0.20249
0.20687
0.21213
0.21476
0.21301
0.20775
0.20512
0.20512
0.20512
0.20512
0.20687
0.20775
0.20249
0.19372
0.18058
0.17269
0.17006
0.16743
0.16480
0.16041
0.15253
0.14376
0.12623
0.10607
0.09029
0.08240
0.07802
0.07100
0.06048
0.04646
0.02630
0.00614
-0.00964
-0.01490
-0.01753
-0.02016
-0.02454
-0.03682
-0.05172
-0.06837
-0.08678
-0.09730
-0.09993
-0.09993
-0.09993
-0.10431
-0.11396
-0.12184
-0.12886
-0.13499
-0.13324
-0.12973
-0.12798
-0.12535
-0.12710
-0.13412
-0.14201
-0.14727
-0.14551
-0.13587
-0.12798
-0.12535
-0.12535
-0.12710
-0.13412
-0.14025
-0.13762
-0.13061
-0.12272
-0.11834
-0.11746
-0.12184
-0.12886
-0.13675
-0.13762
-0.13324
-0.12798
-0.12097
-0.11483
-0.11746
-0.12184
-0.12535
-0.12535
-0.12097
-0.10870
-0.09555
-0.08590
-0.07977
-0.07977
-0.07977
-0.07802
-0.06925
-0.05347
-0.03857
-0.02805
-0.02279
-0.02367
-0.03419
-0.04646
-0.05873
-0.07100
-0.08240
-0.08941
-0.09905
-0.11308
-0.13324
-0.15077
-0.16217
-0.16129
-0.15340
-0.14639
-0.14025
-0.14201
-0.14727
-0.15165
-0.15515
-0.15515
-0.15340
-0.14639
-0.13762
-0.13675
-0.14201
-0.14727
-0.14990
-0.14990
-0.14814
-0.14113
-0.13149
-0.12535
-0.12710
-0.13236
-0.13850
-0.14464
-0.14727
-0.15428
-0.16743
-0.18584
-0.18496
-0.13499
-0.03682
0.07276
0.18496
0.27612
0.27700
0.12973
-0.14814
-0.45232
-0.67847
-0.82399
-0.92392
-0.97739
-0.97301
-0.90814
-0.79594
-0.64867
-0.49264
-0.35589
-0.25246
-0.17707
-0.12447
-0.08853
-0.06224
-0.04821
-0.04471
-0.04471
-0.04471
-0.03945
-0.02805
-0.02104
-0.01315
-0.00964
-0.01227
-0.01666
-0.02191
-0.02279
-0.01666
-0.00789
0.00088
0.00964
0.00964
0.00614
-0.00175
-0.00526
-0.00351
0.00351
0.01227
0.01490
0.01490
0.01490
0.01490
0.01490
0.01666
0.02367
0.03156
0.03682
0.04032
0.04032
0.03857
0.03331
0.03156
0.03682
0.04383
0.05172
0.05698
0.05785
0.05347
0.04821
0.04646
0.05347
0.06224
0.06837
0.07714
0.07977
0.07802
0.07363
0.07013
0.07363
0.08152
0.09029
0.10168
0.10519
0.10344
0.09993
0.09993
0.10168
0.10870
0.12009
0.13149
0.13675
0.13850
0.13499
0.13499
0.13499
0.13850
0.14814
0.15691
0.16392
0.17006
0.16655
0.16041
0.16041
0.16392
0.17356
0.18321
0.19372
0.19986
0.19811
0.19285
0.19197
0.19635
0.20161
0.20863
0.21652
0.22002
0.22002
0.21827
0.21301
0.21038
0.21213
0.21652
0.22178
0.22528
0.22353
0.21827
0.21126
0.20337
0.19986
0.19986
0.20161
0.20512
0.20161
0.19022
0.17356
0.15691
0.14464
0.13324
0.12798
0.12009
0.10694
0.09292
0.07363
0.05347
0.03506
0.02191
0.01490
0.01140
0.00175
-0.01140
-0.02980
-0.04471
-0.05961
-0.07188
-0.07539
-0.07363
-0.07188
-0.07626
-0.08503
-0.09818
-0.10782
-0.11483
-0.11308
-0.10870
-0.10519
-0.10694
-0.11308
-0.12184
-0.12623
-0.12973
-0.12798
-0.12360
-0.11834
-0.11308
-0.11133
-0.11834
-0.12623
-0.13149
-0.13149
-0.12360
-0.11659
-0.10870
-0.10694
-0.11308
-0.12184
-0.12623
-0.12973
-0.12886
-0.12009
-0.10870
-0.10694
-0.11133
-0.11834
-0.12535
-0.12535
-0.12535
-0.12184
-0.11308
-0.10870
-0.10344
-0.10168
-0.10519
-0.10344
-0.09818
-0.09029
-0.07539
-0.06224
-0.05347
-0.04997
-0.04997
-0.04821
-0.04208
-0.03156
-0.02016
-0.00877
-0.00614
-0.01490
-0.03243
-0.05785
-0.07977
-0.09292
-0.10168
-0.10607
-0.11308
-0.12184
-0.12973
-0.14288
-0.14990
-0.14990
-0.14727
-0.13850
-0.13324
-0.13149
-0.13675
-0.14113
-0.14639
-0.14814
-0.14201
-0.13236
-0.12360
-0.12009
-0.12184
-0.12535
-0.12623
-0.12886
-0.12535
-0.12184
-0.11220
-0.10344
-0.10168
-0.10782
-0.12097
-0.14376
-0.17093
-0.17795
-0.13587
-0.04208
0.07188
0.17882
0.26999
0.31469
0.25333
0.05084
-0.24632
-0.52157
-0.70302
-0.82837
-0.91515
-0.95460
-0.93707
-0.85467
-0.71704
-0.54699
-0.38482
-0.25333
-0.17006
-0.12009
-0.08766
-0.06487
-0.04471
-0.02542
-0.01227
-0.00526
-0.00614
-0.01140
-0.01666
-0.01841
-0.01227
-0.00263
0.00789
0.01490
0.01403
0.00877
0.00351
0.00000
0.00263
0.01140
0.01753
0.02630
0.02893
0.02191
0.01490
0.01490
0.01490
0.01753
0.02805
0.03594
0.04032
0.03769
0.02893
0.02542
0.02805
0.03594
0.04383
0.05785
0.06487
0.06399
0.05698
0.04909
0.04471
0.04734
0.05785
0.06662
0.07100
0.07363
0.06837
0.06487
0.06487
0.06662
0.07363
0.08590
0.09292
0.10168
0.10344
0.09730
0.09029
0.09292
0.10256
0.11396
0.12710
0.13499
0.13412
0.12886
0.12535
0.12623
0.13149
0.13850
0.15165
0.15603
0.15866
0.15515
0.15340
0.15165
0.15603
0.16217
0.17269
0.18233
0.19022
0.18846
0.18408
0.17970
0.18233
0.19285
0.20249
0.21126
0.21389
0.20863
0.20512
0.20337
0.20161
0.20512
0.20863
0.22090
0.22616
0.22879
0.22353
0.21915
0.21476
0.21652
0.22090
0.22616
0.23142
0.23405
0.22879
0.22178
0.20863
0.20424
0.19986
0.19986
0.19898
0.19285
0.18145
0.16567
0.14639
0.13149
0.11922
0.11396
0.10870
0.10081
0.08065
0.06048
0.04120
0.02630
0.01403
0.00877
0.00526
0.00263
-0.00877
-0.02367
-0.03945
-0.05610
-0.06136
-0.06487
-0.06399
-0.05961
-0.06136
-0.06750
-0.07626
-0.08152
-0.08503
-0.08415
-0.07889
-0.07363
-0.07013
-0.07100
-0.07626
-0.08240
-0.09029
-0.08853
-0.08415
-0.07802
-0.07013
-0.07013
-0.07188
-0.08065
-0.08590
-0.08853
-0.08415
-0.07889
-0.07363
-0.07100
-0.07626
-0.08065
-0.08678
-0.09467
-0.09292
-0.08415
-0.07889
-0.07539
-0.07626
-0.07977
-0.08065
-0.08503
-0.08415
-0.07802
-0.06837
-0.05873
-0.05435
-0.04997
-0.04997
-0.04909
-0.04208
-0.02717
-0.01227
0.00175
0.01140
0.01490
0.01403
0.00964
0.00877
0.00526
0.00263
-0.00701
-0.01928
-0.03857
-0.05873
-0.07802
-0.09204
-0.09993
-0.09993
-0.09993
-0.09993
-0.09993
-0.10081
-0.10607
-0.11133
-0.11483
-0.11308
-0.10431
-0.09905
-0.09467
-0.09555
-0.10168
-0.10957
-0.10870
-0.10431
-0.09818
-0.08941
-0.08503
-0.08590
-0.09204
-0.10081
-0.10607
-0.10870
-0.10431
-0.10081
-0.11045
-0.14113
-0.17444
-0.18846
-0.14288
-0.04471
0.06662
0.18584
0.28927
0.31382
0.19635
-0.05522
-0.34800
-0.57241
-0.71441
-0.81785
-0.87921
-0.89148
-0.83275
-0.73019
-0.58643
-0.42952
-0.29190
-0.19635
-0.12623
-0.07977
-0.05347
-0.04383
-0.04120
-0.04471
-0.04295
-0.03419
-0.02717
-0.01315
-0.00526
-0.00701
-0.01666
-0.02542
-0.02893
-0.02367
-0.01315
-0.00351
0.00614
0.00964
0.00877
0.00351
-0.00526
-0.00438
0.00263
0.01490
0.01578
0.02016
0.01928
0.01403
0.00877
0.00614
0.01052
0.01666
0.02630
0.03506
0.03419
0.02805
0.02016
0.02016
0.02191
0.03156
0.04120
0.04471
0.04383
0.04032
0.04032
0.04032
0.04120
0.04734
0.06048
0.06574
0.07100
0.07451
0.06925
0.06487
0.06574
0.07188
0.08152
0.09116
0.10081
0.10431
0.09905
0.09467
0.09116
0.09642
0.10607
0.11571
0.12097
0.12535
0.12447
0.11922
0.11571
0.12184
0.13061
0.13762
0.15077
0.15603
0.16041
0.15954
0.15603
0.16041
0.16655
0.17532
0.18145
0.19022
0.18934
0.18408
0.17970
0.17970
0.18233
0.19635
0.20600
0.21038
0.21389
0.20950
0.20512
0.20512
0.20512
0.20600
0.21652
0.22528
0.22440
0.21827
0.20950
0.20424
0.19986
0.20074
0.20512
0.20512
0.20424
0.19811
0.18321
0.16830
0.15954
0.15428
0.14990
0.14902
0.14376
0.13236
0.11308
0.09730
0.07802
0.06399
0.05961
0.05347
0.04383
0.03243
0.01227
-0.00789
-0.02630
-0.03594
-0.04471
-0.04558
-0.05084
-0.05698
-0.07100
-0.08240
-0.10081
-0.11045
-0.11483
-0.11483
-0.10957
-0.11045
-0.11659
-0.12535
-0.13149
-0.14551
-0.14990
-0.14902
-0.13938
-0.13412
-0.13061
-0.13587
-0.14551
-0.14990
-0.14990
-0.14902
-0.13850
-0.12535
-0.12535
-0.12535
-0.13149
-0.14025
-0.14464
-0.14376
-0.12886
-0.11922
-0.11483
-0.11571
-0.12097
-0.12535
-0.12973
-0.12973
-0.12360
-0.11308
-0.09905
-0.09467
-0.09555
-0.09993
-0.09905
-0.08853
-0.07889
-0.06311
-0.04821
-0.03419
-0.03068
-0.03506
-0.03419
-0.02980
-0.02980
-0.02454
-0.02104
-0.03156
-0.05259
-0.08152
-0.10168
-0.11571
-0.12535
-0.12973
-0.12973
-0.12535
-0.13061
-0.13587
-0.14551
-0.14990
-0.14990
-0.14902
-0.13938
-0.13412
-0.13061
-0.13587
-0.14551
-0.14990
-0.14990
-0.14990
-0.14376
-0.13412
-0.12535
-0.12535
-0.13061
-0.13587
-0.14464
-0.14376
-0.13412
-0.12447
-0.12009
-0.12710
-0.14727
-0.17795
-0.20950
-0.19372
-0.11045
0.00964
0.12973
0.24106
0.30593
0.24457
0.04032
-0.26210
-0.53384
-0.70389
-0.81171
-0.89411
-0.94408
-0.92918
-0.85554
-0.73282
-0.57153
-0.39972
-0.26210
-0.16567
-0.11220
-0.07889
-0.06399
-0.05522
-0.05435
-0.03945
-0.02893
-0.01928
-0.00964
-0.00964
-0.01052
-0.02016
-0.02454
-0.01928
-0.00964
-0.00438
0.00526
0.00526
0.00438
-0.00526
-0.00526
-0.00438
0.00088
0.01052
0.02016
0.02454
0.01928
0.01490
0.01490
0.01490
0.02016
0.02542
0.03506
0.04032
0.04032
0.03945
0.02980
0.02542
0.03068
0.03506
0.04032
0.04997
0.04997
0.04997
0.04471
0.04032
0.04032
0.05084
0.06048
0.06487
0.07013
0.07013
0.06487
0.06487
0.06487
0.06574
0.08065
0.08590
0.09467
0.09467
0.08941
0.08503
0.08503
0.09029
0.10081
0.11045
0.12009
0.12447
0.12009
0.11483
0.11045
0.11571
0.12535
0.13499
0.14025
0.14990
0.14990
0.13938
0.13499
0.13499
0.14025
0.15515
0.16041
0.16480
0.16480
0.15954
0.15515
0.15515
0.16041
0.17006
0.18058
0.18496
0.18496
0.17970
0.17970
0.17444
0.17006
0.18058
0.18496
0.19460
0.19460
0.19460
0.18496
0.17970
0.17970
0.18058
0.18496
0.19460
0.19460
0.18496
0.17444
0.15428
0.14464
0.14025
0.13499
0.13499
0.12447
0.10957
0.08941
0.06925
0.04997
0.03945
0.02454
0.02016
0.01490
0.00000
-0.01052
-0.03068
-0.05522
-0.06487
-0.07539
-0.07539
-0.07539
-0.07539
-0.07977
-0.09029
-0.09993
-0.10957
-0.10957
-0.09993
-0.09467
-0.09029
-0.09029
-0.09993
-0.11045
-0.12009
-0.12535
-0.12447
-0.11483
-0.09993
-0.09993
-0.10519
-0.11483
-0.12535
-0.12447
-0.11483
-0.10519
-0.09993
-0.09993
-0.10519
-0.12009
-0.12535
-0.13499
-0.12973
-0.12535
-0.11483
-0.10519
-0.10519
-0.11045
-0.12009
-0.12535
-0.12535
-0.11483
-0.09993
-0.09467
-0.09029
-0.09029
-0.09029
-0.09029
-0.07977
-0.07539
-0.05522
-0.04471
-0.03506
-0.02980
-0.03506
-0.04032
-0.04032
-0.04032
-0.04032
-0.04032
-0.04997
-0.06487
-0.09029
-0.10957
-0.12535
-0.12973
-0.13499
-0.13499
-0.13499
-0.13499
-0.14025
-0.14464
-0.14990
-0.14990
-0.14990
-0.14464
-0.13499
-0.12973
-0.12973
-0.14025
-0.14464
-0.14990
-0.14464
-0.13499
-0.12973
-0.12535
-0.12535
-0.12973
-0.13499
-0.14025
-0.13499
-0.12973
-0.12535
-0.12535
-0.13499
-0.16480
-0.19460
-0.19460
-0.13149
-0.02717
0.08766
0.20775
0.29365
0.27525
0.10870
-0.19372
-0.51280
-0.71091
-0.82749
-0.90288
-0.95898
-0.96512
-0.90639
-0.79769
-0.64867
-0.47949
-0.32434
-0.21301
-0.13675
-0.09116
-0.06574
-0.05522
-0.04997
-0.04471
-0.03506
-0.02542
-0.01052
-0.00526
-0.00526
-0.00964
-0.01928
-0.02454
-0.02016
-0.01052
-0.00526
0.00000
0.00000
-0.00526
-0.00964
-0.01490
-0.01490
-0.01052
0.00000
0.01403
0.01490
0.01490
0.01490
0.01052
0.00964
0.01490
0.02016
0.03419
0.03945
0.03506
0.02980
0.02016
0.01490
0.01490
0.02016
0.03419
0.03945
0.04471
0.04032
0.04032
0.03068
0.03506
0.03945
0.04997
0.05435
0.05961
0.05961
0.05522
0.04997
0.04997
0.05961
0.06925
0.08415
0.08503
0.08065
0.07013
0.07013
0.07451
0.08415
0.09905
0.11396
0.12447
0.12973
0.12535
0.12009
0.12009
0.12447
0.13412
0.14464
0.15428
0.15954
0.16041
0.15515
0.15515
0.15515
0.16480
0.17444
0.17970
0.18496
0.18934
0.18496
0.18058
0.17970
0.17970
0.18496
0.19460
0.20424
0.20512
0.20512
0.20074
0.19548
0.19460
0.20424
0.20950
0.21915
0.22002
0.21564
0.21038
0.20512
0.20512
0.20512
0.20950
0.21915
0.22002
0.21038
0.20512
0.18671
0.17532
0.16567
0.16041
0.15515
0.15077
0.13587
0.11659
0.09642
0.07626
0.06136
0.04646
0.04032
0.03506
0.01666
0.00088
-0.01841
-0.03419
-0.05347
-0.05961
-0.06487
-0.06487
-0.06925
-0.07889
-0.08941
-0.09905
-0.10431
-0.10957
-0.10519
-0.10519
-0.10081
-0.10431
-0.11396
-0.12447
-0.13412
-0.13499
-0.13061
-0.12535
-0.11571
-0.11483
-0.11483
-0.12447
-0.12973
-0.13412
-0.13061
-0.12535
-0.12009
-0.11571
-0.11922
-0.12447
-0.13412
-0.13499
-0.13499
-0.13061
-0.12535
-0.11571
-0.11483
-0.12447
-0.12535
-0.12535
-0.12535
-0.11571
-0.10168
-0.09116
-0.08065
-0.07977
-0.07977
-0.07977
-0.07539
-0.06574
-0.05610
-0.04120
-0.03068
-0.02104
-0.02454
-0.02980
-0.04821
-0.05873
-0.07363
-0.07977
-0.08853
-0.10344
-0.12272
-0.13850
-0.14902
-0.15428
-0.15077
-0.14551
-0.14025
-0.13587
-0.13938
-0.14902
-0.15428
-0.15515
-0.15077
-0.14551
-0.13587
-0.13061
-0.12973
-0.13850
-0.14902
-0.14990
-0.14990
-0.14113
-0.13149
-0.12535
-0.12535
-0.12973
-0.13850
-0.14902
-0.14990
-0.14990
-0.16743
-0.19197
-0.19460
-0.15515
-0.07539
0.02717
0.13675
0.24281
0.29015
0.20687
-0.03331
-0.36378
-0.62851
-0.79594
-0.91164
-0.98177
-1.00719
-0.96599
-0.86343
-0.72756
-0.56539
-0.40936
-0.28927
-0.20512
-0.14288
-0.10431
-0.07363
-0.05698
-0.05522
-0.05522
-0.05522
-0.05522
-0.05084
-0.04120
-0.03156
-0.02542
-0.02542
-0.02893
-0.02980
-0.02980
-0.02980
-0.02104
-0.01140
-0.00526
-0.00526
-0.00964
-0.01841
-0.02016
-0.02016
-0.01140
-0.00526
0.00351
0.00964
0.00964
0.00526
-0.00351
-0.00526
0.00351
0.01403
0.01928
0.02454
0.02542
0.01666
0.01490
0.01052
0.01403
0.02367
0.03331
0.03945
0.04032
0.03594
0.03068
0.02542
0.02893
0.03857
0.04821
0.05873
0.06399
0.06048
0.05610
0.05084
0.04997
0.05873
0.06399
0.07802
0.08415
0.08503
0.08503
0.08503
0.08503
0.08503
0.09379
0.10344
0.10957
0.11396
0.11483
0.11483
0.11483
0.11922
0.12886
0.13412
0.14376
0.14902
0.14990
0.14551
0.14113
0.14464
0.14902
0.15866
0.16830
0.17444
0.17093
0.17006
0.16129
0.16041
0.16392
0.17356
0.17882
0.18408
0.18934
0.18584
0.18058
0.17619
0.17532
0.17882
0.18846
0.19372
0.19460
0.19109
0.18145
0.17619
0.17093
0.17006
0.17444
0.17532
0.17093
0.16129
0.14727
0.12886
0.11220
0.10168
0.09204
0.08590
0.08065
0.06311
0.04383
0.01928
0.00263
-0.00789
-0.02191
-0.02893
-0.03419
-0.04734
-0.05785
-0.07626
-0.08853
-0.09818
-0.09993
-0.09993
-0.09204
-0.09379
-0.09905
-0.10431
-0.11746
-0.12009
-0.12009
-0.11571
-0.10694
-0.10081
-0.09993
-0.10782
-0.11834
-0.12447
-0.12097
-0.11571
-0.10694
-0.10081
-0.09993
-0.10431
-0.11308
-0.12272
-0.12535
-0.12097
-0.11220
-0.10168
-0.09555
-0.09905
-0.10431
-0.11308
-0.11922
-0.11571
-0.11133
-0.10607
-0.10519
-0.10870
-0.11396
-0.11483
-0.11483
-0.10694
-0.09730
-0.08328
-0.06837
-0.05698
-0.05522
-0.05522
-0.05084
-0.04208
-0.03243
-0.01841
-0.00701
-0.00088
-0.00438
-0.00877
-0.02191
-0.03331
-0.05084
-0.06662
-0.07802
-0.09204
-0.10694
-0.12184
-0.14113
-0.14902
-0.15428
-0.15077
-0.14639
-0.13675
-0.13499
-0.13938
-0.14814
-0.14990
-0.14990
-0.14639
-0.13675
-0.13149
-0.12973
-0.13412
-0.13850
-0.14376
-0.14464
-0.14113
-0.13236
-0.12623
-0.11746
-0.11483
-0.11922
-0.12360
-0.13324
-0.13850
-0.14814
-0.16567
-0.18145
-0.16567
-0.10168
-0.01490
0.08328
0.18671
0.27612
0.27963
0.13850
-0.13762
-0.43829
-0.66445
-0.81084
-0.91778
-0.97914
-0.98265
-0.91778
-0.80295
-0.65130
-0.49089
-0.34713
-0.24194
-0.17356
-0.12535
-0.08766
-0.06048
-0.03945
-0.03156
-0.03419
-0.03857
-0.03594
-0.03156
-0.01841
-0.00701
-0.00526
-0.00526
-0.01227
-0.01841
-0.02016
-0.01578
-0.00701
0.00263
0.00877
0.00964
0.00614
-0.00263
-0.00526
-0.00877
-0.00614
-0.00088
0.00789
0.01403
0.01490
0.01140
0.00614
0.00526
0.01227
0.01490
0.02279
0.02542
0.02542
0.02104
0.01666
0.01490
0.02279
0.03243
0.04295
0.04909
0.04997
0.04208
0.03594
0.03506
0.03857
0.04734
0.06136
0.06837
0.07363
0.07539
0.07100
0.07013
0.07013
0.07363
0.08240
0.09292
0.09905
0.09993
0.09642
0.09116
0.09029
0.09379
0.10607
0.11746
0.13149
0.13499
0.13499
0.13149
0.12973
0.12973
0.13412
0.14639
0.15778
0.16392
0.16129
0.15603
0.15515
0.15515
0.16567
0.17707
0.19109
0.19898
0.19986
0.19635
0.19109
0.19022
0.19372
0.20249
0.21213
0.22265
0.22528
0.22090
0.21301
0.20600
0.20863
0.21739
0.22353
0.22879
0.22616
0.22178
0.21301
0.20600
0.20161
0.19986
0.20337
0.20512
0.20512
0.19372
0.17882
0.16041
0.14376
0.13675
0.13149
0.12623
0.11396
0.10256
0.08590
0.06574
0.04558
0.02893
0.01753
0.01140
0.00614
-0.00263
-0.02279
-0.04471
-0.06048
-0.07188
-0.07539
-0.07539
-0.07100
-0.07363
-0.07889
-0.09116
-0.10256
-0.10870
-0.10957
-0.10957
-0.10607
-0.10168
-0.10344
-0.11220
-0.12184
-0.12535
-0.12535
-0.11746
-0.10782
-0.10168
-0.09993
-0.09993
-0.10694
-0.11746
-0.12009
-0.11659
-0.10782
-0.10168
-0.09993
-0.09993
-0.10694
-0.11746
-0.12360
-0.12184
-0.11308
-0.10256
-0.09642
-0.09467
-0.09467
-0.09467
-0.09116
-0.08328
-0.07276
-0.05961
-0.04821
-0.03769
-0.03156
-0.02980
-0.02980
-0.02980
-0.02279
-0.01315
-0.00964
-0.01666
-0.03419
-0.06048
-0.08766
-0.10519
-0.12009
-0.12535
-0.12535
-0.12535
-0.12886
-0.13675
-0.14727
-0.15340
-0.15515
-0.15165
-0.14288
-0.13324
-0.12973
-0.13324
-0.14201
-0.14814
-0.14990
-0.14990
-0.14288
-0.13324
-0.12623
-0.12535
-0.12886
-0.13324
-0.13850
-0.13324
-0.12623
-0.11834
-0.11133
-0.11308
-0.13236
-0.16392
-0.19197
-0.18321
-0.11396
-0.00351
0.11308
0.22440
0.31119
0.30417
0.15778
-0.11834
-0.42690
-0.65042
-0.79155
-0.89061
-0.95021
-0.95460
-0.89937
-0.79418
-0.65042
-0.48563
-0.33222
-0.21389
-0.14288
-0.10168
-0.07626
-0.06311
-0.05347
-0.04032
-0.02805
-0.01841
-0.01490
-0.01490
-0.01841
-0.02367
-0.02542
-0.01841
-0.00789
0.00175
0.00877
0.00701
-0.00175
-0.00526
-0.00789
-0.00701
0.00175
0.01140
0.01490
0.01490
0.01490
0.01140
0.00701
0.00526
0.01140
0.01841
0.02630
0.03331
0.03156
0.02630
0.02191
0.02016
0.02367
0.03156
0.04120
0.04821
0.04646
0.04208
0.04032
0.04032
0.04295
0.05172
0.06136
0.06487
0.06487
0.06487
0.06487
0.06487
0.06487
0.07451
0.08678
0.09642
0.10344
0.10519
0.09818
0.09204
0.09029
0.09642
0.10607
0.11659
0.12360
0.12798
0.12710
0.12184
0.12009
0.12360
0.13149
0.14113
0.14814
0.14990
0.14990
0.14639
0.14464
0.14814
0.15340
0.16129
0.17181
0.17795
0.17707
0.17181
0.16655
0.16830
0.17619
0.18321
0.19109
0.19811
0.19723
0.19197
0.18408
0.17970
0.18321
0.18846
0.19986
0.20512
0.20512
0.20161
0.19723
0.19197
0.19022
0.19022
0.19635
0.20337
0.20161
0.19022
0.17882
0.16217
0.15165
0.14727
0.14201
0.14025
0.13412
0.11746
0.09730
0.07714
0.05785
0.04383
0.03682
0.02893
0.01841
0.00877
-0.00438
-0.02279
-0.03945
-0.05084
-0.05522
-0.05522
-0.05522
-0.06136
-0.07100
-0.08152
-0.09467
-0.09993
-0.09730
-0.09204
-0.08678
-0.08503
-0.08766
-0.09642
-0.10344
-0.10782
-0.10957
-0.10344
-0.09993
-0.09379
-0.09292
-0.09818
-0.10344
-0.10782
-0.10694
-0.10168
-0.09730
-0.09204
-0.09029
-0.09292
-0.09818
-0.10607
-0.10957
-0.10694
-0.10168
-0.09379
-0.09029
-0.09292
-0.09818
-0.09993
-0.09993
-0.09993
-0.09116
-0.07626
-0.06136
-0.05522
-0.05522
-0.05522
-0.05522
-0.04558
-0.03419
-0.01841
-0.00438
0.00263
0.00175
-0.00614
-0.01928
-0.03419
-0.04909
-0.06399
-0.07626
-0.08328
-0.09379
-0.10870
-0.12360
-0.13324
-0.13499
-0.13236
-0.12710
-0.12184
-0.12272
-0.12798
-0.13587
-0.14288
-0.14201
-0.13412
-0.12710
-0.12184
-0.11746
-0.11834
-0.12272
-0.12798
-0.12973
-0.12710
-0.11922
-0.11220
-0.10957
-0.10957
-0.11571
-0.12272
-0.12535
-0.13061
-0.15253
-0.17970
-0.18671
-0.14990
-0.06662
0.03594
0.13850
0.23843
0.28840
0.22791
0.02893
-0.25684
-0.50929
-0.68636
-0.81347
-0.90288
-0.93794
-0.90288
-0.80295
-0.66094
-0.49965
-0.35239
-0.24369
-0.17356
-0.12447
-0.08766
-0.06048
-0.03857
-0.02980
-0.02980
-0.02980
-0.02980
-0.02717
-0.01928
-0.00964
-0.00526
-0.00175
-0.00263
-0.00789
-0.01315
-0.01490
-0.00964
-0.00175
0.00526
0.01315
0.01227
0.00701
0.00175
0.00000
0.00263
0.01052
0.02104
0.02805
0.02717
0.02191
0.01753
0.01227
0.00964
0.01315
0.02016
0.03068
0.03769
0.04032
0.03682
0.02980
0.02542
0.03068
0.03769
0.04295
0.04821
0.04997
0.04734
0.04208
0.04295
0.05084
0.06048
0.07013
0.07802
0.07977
0.07714
0.06925
0.06487
0.06750
0.07802
0.09292
0.10519
0.11308
0.11220
0.10957
0.10694
0.10782
0.10957
0.11834
0.13061
0.13499
0.13499
0.13499
0.12973
0.12798
0.13236
0.14288
0.15515
0.16567
0.17006
0.16743
0.16217
0.15691
0.15778
0.16567
0.17532
0.18496
0.19285
0.19197
0.18759
0.18233
0.17970
0.18233
0.19285
0.20249
0.20512
0.20512
0.20249
0.19723
0.19197
0.19285
0.20074
0.20512
0.20775
0.20775
0.20249
0.19460
0.18759
0.18233
0.17970
0.17970
0.17970
0.17444
0.16217
0.14464
0.12447
0.10957
0.10256
0.09730
0.09204
0.08766
0.07451
0.05435
0.03682
0.02191
0.01227
0.00438
-0.00526
-0.01490
-0.02542
-0.03769
-0.05259
-0.06750
-0.07802
-0.07977
-0.07977
-0.08240
-0.09029
-0.09730
-0.11045
-0.12535
-0.13499
-0.14025
-0.13762
-0.12973
-0.12535
-0.12798
-0.13499
-0.14288
-0.14727
-0.14727
-0.14025
-0.12973
-0.12535
-0.12798
-0.13499
-0.14551
-0.14990
-0.14990
-0.14990
-0.14464
-0.13236
-0.12535
-0.12535
-0.12710
-0.13236
-0.13236
-0.12710
-0.11746
-0.10256
-0.09029
-0.08240
-0.07977
-0.08240
-0.08240
-0.07714
-0.06750
-0.05522
-0.04208
-0.03243
-0.02980
-0.03506
-0.04471
-0.05259
-0.06224
-0.07539
-0.08766
-0.10256
-0.11746
-0.13499
-0.15253
-0.16217
-0.16041
-0.15253
-0.14464
-0.13762
-0.13762
-0.14464
-0.15253
-0.15515
-0.15253
-0.14727
-0.14025
-0.13499
-0.13762
-0.14288
-0.14727
-0.15253
-0.15253
-0.14727
-0.14025
-0.13236
-0.12798
-0.12710
-0.13499
-0.14201
-0.14464
-0.14464
-0.14727
-0.15954
-0.17970
-0.18496
-0.14639
-0.05961
0.04558
0.15515
0.25333
0.28577
0.19811
-0.02454
-0.32171
-0.57591
-0.73983
-0.85028
-0.92392
-0.94495
-0.90376
-0.80558
-0.67321
-0.53121
-0.39096
-0.27262
-0.18671
-0.12623
-0.08590
-0.06048
-0.04734
-0.04471
-0.04471
-0.04471
-0.04032
-0.03243
-0.02279
-0.01052
-0.00526
-0.00964
-0.01928
-0.02542
-0.02279
-0.01315
-0.00263
0.00438
0.00964
0.00789
0.00000
-0.00526
-0.00526
0.00000
0.00964
0.01753
0.02016
0.01753
0.01490
0.01227
0.00789
0.00701
0.01227
0.02191
0.03243
0.03506
0.03243
0.02805
0.02542
0.02542
0.02980
0.03945
0.04997
0.05522
0.05259
0.04734
0.04295
0.04032
0.04471
0.05698
0.06925
0.07714
0.07802
0.07276
0.06750
0.06487
0.06925
0.07977
0.08941
0.09993
0.10256
0.09993
0.09818
0.09292
0.09204
0.10168
0.11483
0.12447
0.13236
0.13499
0.13236
0.12798
0.12272
0.12447
0.13236
0.14201
0.15253
0.15515
0.15253
0.14814
0.14464
0.14727
0.15253
0.16129
0.17444
0.17795
0.17269
0.16567
0.16041
0.16217
0.16918
0.17970
0.18934
0.19460
0.19285
0.18759
0.18321
0.17970
0.17970
0.18408
0.19460
0.19986
0.19548
0.18584
0.17795
0.17093
0.16480
0.16743
0.17006
0.17006
0.16392
0.14639
0.12886
0.11571
0.10344
0.09292
0.08766
0.08065
0.07100
0.05435
0.02893
0.00877
-0.00438
-0.01403
-0.02191
-0.02717
-0.02980
-0.03594
-0.04909
-0.06311
-0.07714
-0.08240
-0.08503
-0.08328
-0.08240
-0.08941
-0.09905
-0.10957
-0.11922
-0.12272
-0.11834
-0.11045
-0.10256
-0.09993
-0.10168
-0.10694
-0.11220
-0.11483
-0.11308
-0.10607
-0.09993
-0.09993
-0.10168
-0.10957
-0.11746
-0.12184
-0.12535
-0.12097
-0.11045
-0.10256
-0.09993
-0.10168
-0.10870
-0.11746
-0.11834
-0.10870
-0.09818
-0.09116
-0.08678
-0.09029
-0.09029
-0.09029
-0.08590
-0.07626
-0.06399
-0.04734
-0.03331
-0.02980
-0.02980
-0.03243
-0.03331
-0.02980
-0.02630
-0.02016
-0.02630
-0.04295
-0.06487
-0.09029
-0.11308
-0.12886
-0.13499
-0.13061
-0.12535
-0.12710
-0.13236
-0.13938
-0.14727
-0.14990
-0.14814
-0.14113
-0.13149
-0.12535
-0.12710
-0.13236
-0.13675
-0.14025
-0.13762
-0.13149
-0.12272
-0.11834
-0.11659
-0.12184
-0.12710
-0.13236
-0.13499
-0.13149
-0.12272
-0.11834
-0.11922
-0.13850
-0.17532
-0.20424
-0.18671
-0.10957
-0.00263
0.10519
0.20863
0.27349
0.23229
0.05347
-0.22879
-0.50403
-0.68812
-0.80120
-0.88447
-0.93444
-0.93882
-0.88622
-0.77490
-0.62237
-0.45758
-0.30943
-0.20512
-0.13762
-0.10081
-0.08152
-0.07276
-0.06837
-0.06136
-0.05084
-0.03945
-0.02980
-0.02980
-0.03331
-0.04208
-0.04471
-0.04120
-0.03331
-0.02454
-0.01315
-0.00789
-0.00877
-0.01666
-0.02016
-0.01841
-0.01140
-0.00175
0.00701
0.01227
0.01315
0.00614
-0.00175
-0.00526
-0.00175
0.00877
0.01841
0.02717
0.02805
0.02104
0.01490
0.01490
0.01666
0.02367
0.03331
0.04208
0.04295
0.04032
0.03857
0.03506
0.03682
0.04208
0.04821
0.05873
0.06487
0.06311
0.05785
0.05347
0.04997
0.05347
0.06311
0.07539
0.08503
0.08678
0.08853
0.08503
0.08503
0.08678
0.09379
0.10344
0.10957
0.10957
0.10957
0.10957
0.10957
0.11133
0.12009
0.13324
0.14201
0.14639
0.14814
0.14288
0.13850
0.13675
0.14201
0.14814
0.16041
0.17181
0.17356
0.16830
0.16480
0.16480
0.16830
0.17882
0.18846
0.19635
0.19986
0.19635
0.18846
0.18321
0.18145
0.18846
0.19811
0.20687
0.20863
0.20512
0.20161
0.19372
0.18846
0.18671
0.19372
0.19986
0.19811
0.19022
0.17707
0.16480
0.15165
0.14201
0.13499
0.13499
0.13149
0.12009
0.10344
0.08328
0.06311
0.04646
0.03682
0.02805
0.02191
0.01140
0.00000
-0.01666
-0.03506
-0.04821
-0.05698
-0.06136
-0.06487
-0.06487
-0.07013
-0.08328
-0.09292
-0.10344
-0.10957
-0.10694
-0.09993
-0.09993
-0.09993
-0.10344
-0.11308
-0.12184
-0.12360
-0.11834
-0.11220
-0.10344
-0.10168
-0.10694
-0.11133
-0.11659
-0.12009
-0.11834
-0.11220
-0.10344
-0.09993
-0.10168
-0.10782
-0.11659
-0.12184
-0.12184
-0.11220
-0.10344
-0.09818
-0.09642
-0.10168
-0.10694
-0.10957
-0.10870
-0.10168
-0.09029
-0.07539
-0.06224
-0.05522
-0.05522
-0.05522
-0.05347
-0.04558
-0.03068
-0.01578
-0.00351
-0.00175
-0.00789
-0.01928
-0.03419
-0.04821
-0.05961
-0.07276
-0.08328
-0.09292
-0.10607
-0.12184
-0.12798
-0.13324
-0.12886
-0.12360
-0.11834
-0.11483
-0.11834
-0.12623
-0.13324
-0.14025
-0.13587
-0.12360
-0.11746
-0.10957
-0.11133
-0.11659
-0.12184
-0.12535
-0.12360
-0.11746
-0.10694
-0.09993
-0.09993
-0.10168
-0.10782
-0.11659
-0.12184
-0.13236
-0.15603
-0.17181
-0.16041
-0.09818
0.00000
0.10519
0.20863
0.29278
0.30242
0.17970
-0.07276
-0.36816
-0.60133
-0.75386
-0.86256
-0.92304
-0.91427
-0.84239
-0.72055
-0.57942
-0.43478
-0.30242
-0.21038
-0.14639
-0.09993
-0.06837
-0.04471
-0.02893
-0.02542
-0.02630
-0.02980
-0.02980
-0.02717
-0.01753
-0.00701
0.00175
0.00351
-0.00175
-0.00526
-0.00526
-0.00351
0.00438
0.01490
0.01666
0.02016
0.01841
0.01403
0.00964
0.01140
0.01666
0.02279
0.03243
0.04032
0.03857
0.03243
0.02367
0.02104
0.02805
0.03594
0.04295
0.04997
0.04909
0.04383
0.03857
0.03331
0.03243
0.04295
0.05259
0.06136
0.06487
0.06487
0.06224
0.05522
0.05610
0.06136
0.06925
0.08152
0.08590
0.08853
0.08415
0.07977
0.08152
0.08590
0.09292
0.10256
0.11133
0.11483
0.11396
0.10957
0.10957
0.11220
0.12272
0.13236
0.14113
0.14464
0.14376
0.13850
0.13499
0.13499
0.13850
0.15165
0.15778
0.16480
0.16392
0.15866
0.15515
0.15515
0.15778
0.16743
0.17619
0.18145
0.18408
0.17970
0.17882
0.17619
0.18145
0.18759
0.19723
0.20512
0.20512
0.20249
0.19285
0.18408
0.18145
0.18759
0.19723
0.20512
0.20424
0.19723
0.18759
0.17795
0.16918
0.16480
0.16655
0.17006
0.16743
0.15691
0.14113
0.12535
0.10694
0.09292
0.08503
0.08503
0.08152
0.06662
0.05084
0.03068
0.01140
-0.00088
-0.00614
-0.00964
-0.01140
-0.01841
-0.03243
-0.04295
-0.05873
-0.07188
-0.07977
-0.07889
-0.07363
-0.07100
-0.07626
-0.08328
-0.09642
-0.10081
-0.10431
-0.09905
-0.09379
-0.09029
-0.09116
-0.09642
-0.10081
-0.10607
-0.10870
-0.10431
-0.09818
-0.08853
-0.08503
-0.08590
-0.09204
-0.10081
-0.10519
-0.10431
-0.09993
-0.09818
-0.09029
-0.09116
-0.09642
-0.10081
-0.10519
-0.10431
-0.09905
-0.09292
-0.08503
-0.08503
-0.08590
-0.09116
-0.09467
-0.09292
-0.08152
-0.06662
-0.05259
-0.04383
-0.03857
-0.03506
-0.03506
-0.03419
-0.02805
-0.01666
-0.00175
0.00964
0.00701
-0.00789
-0.02542
-0.04909
-0.06837
-0.07977
-0.08065
-0.08678
-0.09730
-0.10870
-0.12623
-0.13061
-0.13412
-0.12886
-0.12272
-0.11396
-0.10957
-0.11220
-0.12097
-0.12710
-0.13499
-0.13324
-0.12360
-0.11834
-0.10957
-0.11133
-0.11571
-0.12097
-0.12535
-0.12535
-0.12272
-0.11308
-0.10431
-0.09993
-0.10168
-0.11308
-0.12798
-0.14551
-0.17444
-0.19285
-0.17181
-0.09467
0.01227
0.10957
0.21126
0.28401
0.25859
0.12272
-0.11659
-0.38920
-0.59169
-0.73195
-0.84239
-0.89937
-0.88096
-0.79155
-0.65656
-0.49702
-0.34888
-0.23580
-0.16217
-0.11922
-0.08590
-0.06136
-0.04120
-0.02367
-0.01403
-0.01052
-0.01578
-0.02016
-0.01928
-0.01403
-0.00877
-0.00351
0.00526
0.00526
0.00351
-0.00526
-0.00526
-0.00438
0.00263
0.01578
0.02104
0.02542
0.02454
0.01928
0.01490
0.01490
0.01666
0.02717
0.04120
0.04471
0.04383
0.03945
0.03419
0.02980
0.03156
0.04120
0.05084
0.05610
0.05873
0.04909
0.04383
0.04032
0.04120
0.04734
0.06048
0.06574
0.07013
0.06925
0.06399
0.05961
0.06048
0.06662
0.07626
0.08503
0.08503
0.08503
0.08503
0.08415
0.08065
0.08590
0.09204
0.10607
0.11045
0.11483
0.11396
0.10957
0.10957
0.11045
0.11746
0.13061
0.13675
0.14464
0.13938
0.13499
0.13499
0.13587
0.14113
0.15165
0.16129
0.17006
0.16918
0.16392
0.15515
0.15603
0.16129
0.17181
0.18145
0.19109
0.19460
0.18846
0.17970
0.17970
0.18058
0.18671
0.19635
0.20512
0.20512
0.20337
0.19372
0.18408
0.17970
0.18058
0.18671
0.19460
0.19460
0.18846
0.17795
0.16392
0.15428
0.14990
0.15077
0.15515
0.15340
0.14288
0.12710
0.10782
0.08941
0.08328
0.07539
0.07451
0.06925
0.06224
0.04208
0.02279
0.00351
-0.01052
-0.01490
-0.01490
-0.01578
-0.02104
-0.03156
-0.04646
-0.06224
-0.07539
-0.07977
-0.07977
-0.07977
-0.07977
-0.08065
-0.08678
-0.10081
-0.10607
-0.11483
-0.11396
-0.10431
-0.09993
-0.10081
-0.10694
-0.12097
-0.12535
-0.12535
-0.12447
-0.11922
-0.11483
-0.10957
-0.11133
-0.12097
-0.13061
-0.13412
-0.12973
-0.12447
-0.11922
-0.10957
-0.11133
-0.12097
-0.12535
-0.12535
-0.12535
-0.12447
-0.11922
-0.10957
-0.10957
-0.11045
-0.11483
-0.11483
-0.11396
-0.10431
-0.09379
-0.07889
-0.06925
-0.05961
-0.05522
-0.05522
-0.05435
-0.04909
-0.03857
-0.02367
-0.01578
-0.02104
-0.03243
-0.05785
-0.08240
-0.10081
-0.11045
-0.11483
-0.11571
-0.12623
-0.13675
-0.15077
-0.16041
-0.15954
-0.15428
-0.14902
-0.13938
-0.13587
-0.14025
-0.14551
-0.14990
-0.14990
-0.14990
-0.14902
-0.13938
-0.13499
-0.13499
-0.13587
-0.14551
-0.14990
-0.14990
-0.14376
-0.13412
-0.12535
-0.12535
-0.12623
-0.13587
-0.15253
-0.17795
-0.20600
-0.21564
-0.16217
-0.06574
0.03857
0.13762
0.22703
0.24194
0.13149
-0.10344
-0.38131
-0.58030
-0.70389
-0.81171
-0.89236
-0.92304
-0.88710
-0.78454
-0.64692
-0.48300
-0.33222
-0.23492
-0.16655
-0.12272
-0.09818
-0.07276
-0.04821
-0.02980
-0.02454
-0.02016
-0.02542
-0.02980
-0.02980
-0.02893
-0.01928
-0.00964
-0.00526
-0.00526
-0.01052
-0.01578
-0.02016
-0.02454
-0.01403
-0.00438
0.00526
0.00964
0.00438
-0.00526
-0.00526
-0.00438
0.00088
0.01052
0.02016
0.02542
0.02454
0.01490
0.01490
0.01490
0.01490
0.02104
0.02980
0.02980
0.02980
0.02542
0.02454
0.02016
0.02542
0.03594
0.04558
0.05522
0.05961
0.05435
0.04997
0.04558
0.04997
0.05522
0.06574
0.07539
0.08503
0.07977
0.07451
0.07013
0.07013
0.08065
0.09029
0.10081
0.11045
0.11483
0.11483
0.10957
0.10519
0.10519
0.11045
0.12009
0.13061
0.13499
0.13499
0.13499
0.13499
0.13499
0.14025
0.15077
0.16041
0.17006
0.17006
0.16480
0.16041
0.16041
0.16480
0.17006
0.18058
0.18496
0.19022
0.18496
0.17970
0.17970
0.18058
0.19022
0.19986
0.20512
0.20512
0.19986
0.19460
0.18496
0.17970
0.18058
0.18496
0.19022
0.19986
0.19460
0.18496
0.17444
0.15954
0.15515
0.15515
0.15515
0.15428
0.14464
0.12973
0.10957
0.08941
0.07977
0.07451
0.06487
0.06487
0.05435
0.03419
0.01490
-0.00526
-0.02542
-0.02980
-0.02980
-0.02980
-0.03506
-0.04997
-0.06574
-0.08065
-0.09029
-0.09467
-0.09029
-0.09029
-0.09029
-0.09467
-0.09993
-0.10519
-0.11483
-0.11483
-0.11483
-0.10519
-0.09993
-0.09993
-0.10519
-0.11483
-0.12535
-0.12535
-0.12535
-0.12009
-0.10957
-0.10519
-0.11045
-0.12009
-0.12535
-0.12535
-0.12535
-0.12009
-0.10957
-0.10519
-0.10519
-0.11483
-0.12535
-0.12535
-0.12535
-0.12535
-0.11483
-0.10519
-0.10519
-0.11045
-0.12009
-0.12535
-0.12535
-0.12009
-0.10519
-0.09467
-0.07977
-0.07977
-0.07977
-0.07977
-0.07977
-0.07539
-0.05522
-0.04032
-0.02980
-0.02542
-0.02016
-0.02542
-0.02980
-0.03506
-0.04471
-0.05522
-0.06487
-0.07977
-0.09993
-0.12009
-0.13499
-0.14464
-0.14990
-0.14464
-0.14025
-0.13499
-0.13499
-0.14464
-0.14990
-0.14990
-0.14990
-0.14464
-0.13499
-0.12973
-0.12973
-0.13499
-0.14025
-0.14464
-0.14464
-0.14025
-0.12535
-0.12535
-0.12009
-0.12009
-0.12535
-0.12973
-0.13499
-0.12973
-0.13499
-0.14990
-0.17970
-0.20950
-0.18584
-0.10168
-0.00175
0.10782
0.22265
0.29891
0.25070
0.06399
-0.23843
-0.51894
-0.69162
-0.80733
-0.88798
-0.91953
-0.89061
-0.80207
-0.68286
-0.54874
-0.39884
-0.27349
-0.18759
-0.12623
-0.08590
-0.05610
-0.04558
-0.04471
-0.04032
-0.04032
-0.03506
-0.02980
-0.02542
-0.01490
-0.01052
-0.01490
-0.02016
-0.02016
-0.02016
-0.01052
-0.00526
0.00438
0.00526
0.00526
-0.00438
-0.00526
-0.00526
-0.00526
0.00438
0.01490
0.01490
0.01490
0.01490
0.00526
0.00526
0.00526
0.01490
0.02016
0.02980
0.03506
0.03506
0.02980
0.02542
0.02542
0.03419
0.03945
0.04997
0.05435
0.04997
0.04558
0.04032
0.04032
0.04997
0.05961
0.06487
0.07451
0.07539
0.07013
0.06487
0.06487
0.07013
0.07977
0.08941
0.09993
0.10431
0.09993
0.09555
0.09029
0.09467
0.09993
0.10957
0.11483
0.12009
0.12009
0.11571
0.11045
0.10957
0.11922
0.12973
0.13499
0.14464
0.14464
0.14025
0.14025
0.14025
0.14464
0.15428
0.15954
0.16480
0.17006
0.16041
0.15515
0.15515
0.15515
0.15954
0.16918
0.17970
0.17970
0.17970
0.17093
0.16041
0.15515
0.15515
0.16918
0.17970
0.17970
0.17970
0.17093
0.16041
0.15515
0.15515
0.15954
0.16480
0.16480
0.15603
0.14551
0.13149
0.11571
0.11045
0.10519
0.09993
0.09555
0.08590
0.06662
0.04646
0.02630
0.01140
0.00526
0.00000
-0.00438
-0.01403
-0.02893
-0.04821
-0.06399
-0.07889
-0.07977
-0.07977
-0.07977
-0.07977
-0.08503
-0.09379
-0.10431
-0.10957
-0.11483
-0.11045
-0.10081
-0.09993
-0.09993
-0.09993
-0.10431
-0.11396
-0.11922
-0.12009
-0.11571
-0.10607
-0.10081
-0.10431
-0.11396
-0.12447
-0.12535
-0.12535
-0.12535
-0.11571
-0.10607
-0.10081
-0.10431
-0.11396
-0.12447
-0.12535
-0.12535
-0.11571
-0.11045
-0.10957
-0.11483
-0.11922
-0.12447
-0.12535
-0.12535
-0.11133
-0.10081
-0.09116
-0.08590
-0.08065
-0.07977
-0.07539
-0.06136
-0.04646
-0.03156
-0.01666
-0.01052
-0.01490
-0.02367
-0.03419
-0.03945
-0.04909
-0.05435
-0.06399
-0.07802
-0.09818
-0.11746
-0.13762
-0.14902
-0.14990
-0.14990
-0.14551
-0.14025
-0.14025
-0.14902
-0.15428
-0.15515
-0.15077
-0.14551
-0.13587
-0.13061
-0.13412
-0.13938
-0.14464
-0.14902
-0.14990
-0.14113
-0.12710
-0.12097
-0.11571
-0.11922
-0.12447
-0.12973
-0.12973
-0.12535
-0.12535
-0.13850
-0.16655
-0.19197
-0.19022
-0.12360
-0.01841
0.09204
0.21038
0.29979
0.28840
0.14025
-0.13938
-0.43829
-0.65042
-0.78454
-0.87483
-0.92479
-0.91252
-0.84415
-0.73896
-0.61098
-0.45495
-0.31732
-0.21301
-0.13850
-0.08678
-0.05785
-0.04646
-0.04471
-0.04471
-0.04471
-0.03594
-0.02630
-0.01227
-0.00526
-0.00526
-0.00964
-0.01841
-0.02454
-0.02104
-0.01140
-0.00175
0.01315
0.01490
0.01490
0.01052
0.00964
0.00964
0.01403
0.01928
0.02893
0.03419
0.03506
0.02630
0.02104
0.01578
0.01490
0.01928
0.02893
0.03857
0.04032
0.04032
0.03594
0.03068
0.03419
0.03945
0.04821
0.05873
0.05961
0.05172
0.04558
0.04032
0.04032
0.04032
0.05259
0.06311
0.07363
0.07889
0.07977
0.07539
0.07539
0.07889
0.08853
0.09818
0.10431
0.10519
0.10081
0.09116
0.09029
0.09467
0.10782
0.12272
0.13324
0.13499
0.13499
0.13499
0.13061
0.12535
0.13324
0.14376
0.15340
0.15954
0.15603
0.15515
0.15515
0.15954
0.16830
0.17444
0.17882
0.18846
0.19022
0.18584
0.18058
0.18408
0.18934
0.19811
0.20424
0.21301
0.21915
0.21564
0.20687
0.20512
0.20074
0.20424
0.21301
0.22353
0.22528
0.22090
0.21564
0.20687
0.20512
0.20512
0.20512
0.20950
0.21038
0.20600
0.18846
0.17269
0.15778
0.14639
0.14113
0.14025
0.13587
0.11834
0.10256
0.08328
0.06311
0.04734
0.04120
0.03156
0.02630
0.01666
-0.00175
-0.02104
-0.04120
-0.05347
-0.05873
-0.05961
-0.05961
-0.05961
-0.06399
-0.07714
-0.08853
-0.09818
-0.10431
-0.10519
-0.10081
-0.09555
-0.09467
-0.09905
-0.10782
-0.11834
-0.12447
-0.12097
-0.11220
-0.10607
-0.10081
-0.10431
-0.10870
-0.11834
-0.12447
-0.12097
-0.11220
-0.10607
-0.10081
-0.09993
-0.10431
-0.11308
-0.11922
-0.12009
-0.11220
-0.10168
-0.09993
-0.09993
-0.09993
-0.10782
-0.11396
-0.11483
-0.10694
-0.10081
-0.08766
-0.08065
-0.07626
-0.07539
-0.07539
-0.07100
-0.05785
-0.04734
-0.03331
-0.02191
-0.01227
-0.00614
-0.01315
-0.02279
-0.02893
-0.03419
-0.04295
-0.05259
-0.07100
-0.08678
-0.10168
-0.11659
-0.12360
-0.12535
-0.11746
-0.10694
-0.10519
-0.10870
-0.12184
-0.12886
-0.12973
-0.12623
-0.12097
-0.11220
-0.10607
-0.10519
-0.11308
-0.12272
-0.12535
-0.12535
-0.12097
-0.11220
-0.10256
-0.09993
-0.09993
-0.10782
-0.11396
-0.11483
-0.11483
-0.11922
-0.13149
-0.15428
-0.16743
-0.13850
-0.05610
0.04295
0.15428
0.26210
0.31995
0.26034
0.05698
-0.24018
-0.50403
-0.67672
-0.79506
-0.87395
-0.89762
-0.86168
-0.76876
-0.64867
-0.51192
-0.36816
-0.24983
-0.16743
-0.10782
-0.06399
-0.03594
-0.02630
-0.02542
-0.02104
-0.02016
-0.01227
-0.00614
0.00614
0.01403
0.01841
0.01578
0.01140
0.00614
0.00877
0.01403
0.02279
0.03243
0.03506
0.03156
0.02630
0.02104
0.02016
0.02805
0.03769
0.04383
0.05259
0.05522
0.05084
0.04646
0.04120
0.04383
0.04909
0.05785
0.06399
0.06487
0.06487
0.06136
0.05610
0.05873
0.06399
0.07626
0.08766
0.09029
0.09029
0.08590
0.08503
0.08503
0.08853
0.09379
0.10256
0.10870
0.11396
0.11483
0.11483
0.11834
0.12710
0.13762
0.14727
0.14990
0.14639
0.14464
0.14113
0.14376
0.14902
0.15340
0.16217
0.17269
0.17882
0.17970
0.17619
0.16743
0.16480
0.16830
0.17707
0.19109
0.20249
0.20512
0.20512
0.20161
0.19986
0.20337
0.20863
0.21739
0.22353
0.22528
0.21739
0.20775
0.20161
0.19986
0.19635
0.19898
0.19986
0.19986
0.19635
0.19109
0.18671
0.18496
0.18496
0.18846
0.18671
0.18145
0.17970
0.17269
0.16655
0.16129
0.16392
0.17269
0.17532
0.16743
0.15778
0.14376
0.12886
0.11045
0.09029
0.08152
0.07977
0.07276
0.06311
0.04558
0.02191
0.00088
-0.01578
-0.02367
-0.02542
-0.02542
-0.03243
-0.04909
-0.07276
-0.09116
-0.10256
-0.10870
-0.10957
-0.10607
-0.10870
-0.11746
-0.12360
-0.13236
-0.13850
-0.14025
-0.14025
-0.13675
-0.13149
-0.12973
-0.13324
-0.14201
-0.14814
-0.15340
-0.15165
-0.14639
-0.14464
-0.15253
-0.16217
-0.16830
-0.17707
-0.17619
-0.17181
-0.15954
-0.15165
-0.14639
-0.14814
-0.14990
-0.15691
-0.16743
-0.17006
-0.16655
-0.15778
-0.14464
-0.12973
-0.11133
-0.10168
-0.09993
-0.10344
-0.09818
-0.07714
-0.04909
-0.01578
0.01928
0.06136
0.10607
0.14464
0.16567
0.17707
0.17970
0.17970
0.17970
0.17269
0.15603
0.12886
0.10607
0.08941
0.08853
0.10081
0.10870
0.10344
0.08941
0.07802
0.06837
0.06487
0.06136
0.05961
0.05347
0.04295
0.03331
0.01928
0.00789
-0.00175
-0.00526
-0.00877
-0.00964
-0.02016
-0.03156
-0.04208
-0.05172
-0.05522
-0.05522
-0.05522
-0.05873
-0.06311
-0.07188
-0.07802
-0.09029
-0.11220
-0.14025
-0.16392
-0.15340
-0.08678
0.01140
0.11308
0.20950
0.28051
0.25947
0.10081
-0.16480
-0.43917
-0.64341
-0.78103
-0.88096
-0.94057
-0.94495
-0.88272
-0.77052
-0.62237
-0.45933
-0.31732
-0.22090
-0.16129
-0.12184
-0.09292
-0.07451
-0.05961
-0.05172
-0.04646
-0.04471
-0.04821
-0.04997
-0.04997
-0.04646
-0.04208
-0.03331
-0.02980
-0.02980
-0.02980
-0.02980
-0.02980
-0.02630
-0.02191
-0.01666
-0.01140
-0.00964
-0.01315
-0.01841
-0.01666
-0.01140
-0.00701
-0.00526
-0.00175
0.00000
-0.00351
-0.00526
-0.00526
-0.00526
-0.00175
0.00614
0.01315
0.01841
0.01666
0.01490
0.01140
0.00964
0.00964
0.01315
0.01490
0.01841
0.02367
0.02542
0.02542
0.02542
0.02805
0.03682
0.04032
0.04646
0.05347
0.05522
0.04821
0.04208
0.04295
0.05435
0.06311
0.07188
0.07802
0.07977
0.07977
0.07977
0.08328
0.08853
0.09642
0.10607
0.10957
0.10957
0.10957
0.10957
0.10957
0.11308
0.12097
0.13149
0.13850
0.14288
0.14201
0.14025
0.14025
0.14288
0.15165
0.15515
0.16129
0.16480
0.16217
0.15691
0.15515
0.15515
0.16129
0.17093
0.17795
0.17970
0.17970
0.17707
0.17181
0.17006
0.17006
0.17356
0.17795
0.17970
0.17707
0.16830
0.15866
0.15515
0.15165
0.14727
0.14464
0.13850
0.13149
0.12097
0.10870
0.09292
0.07539
0.06399
0.05084
0.04208
0.03068
0.01578
-0.00263
-0.02279
-0.03945
-0.05084
-0.05785
-0.06662
-0.07626
-0.08328
-0.09467
-0.10607
-0.11922
-0.12535
-0.12798
-0.13324
-0.13850
-0.14288
-0.14814
-0.15340
-0.15778
-0.16304
-0.16217
-0.15691
-0.15165
-0.14990
-0.15340
-0.15778
-0.16304
-0.16480
-0.16480
-0.16217
-0.15428
-0.14990
-0.14990
-0.15340
-0.15778
-0.16041
-0.16041
-0.15691
-0.15165
-0.14990
-0.14990
-0.14990
-0.15603
-0.16304
-0.16480
-0.16217
-0.15691
-0.15165
-0.14990
-0.14727
-0.14464
-0.14464
-0.14201
-0.13061
-0.11922
-0.10607
-0.09379
-0.08678
-0.08240
-0.07714
-0.07188
-0.06399
-0.05698
-0.04646
-0.03682
-0.03506
-0.04383
-0.05873
-0.07714
-0.09730
-0.11396
-0.12272
-0.13061
-0.14113
-0.14814
-0.15603
-0.16567
-0.17006
-0.17006
-0.16743
-0.16217
-0.15691
-0.15778
-0.16304
-0.16830
-0.17006
-0.17006
-0.16743
-0.16217
-0.15691
-0.15165
-0.15253
-0.15778
-0.16041
-0.15691
-0.15165
-0.14990
-0.14727
-0.14464
-0.14464
-0.14814
-0.15866
-0.17619
-0.19986
-0.21827
-0.20512
-0.13499
-0.03156
0.07276
0.17532
0.24895
0.22703
0.07100
-0.18671
-0.45670
-0.65744
-0.79155
-0.88885
-0.94758
-0.94232
-0.87045
-0.74948
-0.59520
-0.43303
-0.29891
-0.21038
-0.15428
-0.11483
-0.08853
-0.07188
-0.05961
-0.04909
-0.04471
-0.04471
-0.04471
-0.04208
-0.03682
-0.03243
-0.02717
-0.01928
-0.01490
-0.01490
-0.01753
-0.02016
-0.01753
-0.00964
-0.00526
0.00088
0.00526
0.00526
0.00263
0.00000
0.00000
0.00263
0.01052
0.01490
0.01490
0.01490
0.01490
0.01490
0.01490
0.01753
0.02279
0.02805
0.03594
0.04032
0.03682
0.03506
0.03243
0.03243
0.03769
0.04295
0.04734
0.05259
0.05522
0.05259
0.04997
0.04997
0.05522
0.06311
0.07013
0.07802
0.07977
0.07977
0.07977
0.08240
0.08503
0.08766
0.09555
0.10519
0.10957
0.10957
0.10694
0.10519
0.10782
0.11571
0.12798
0.13762
0.14288
0.14464
0.13938
0.13236
0.12973
0.13236
0.14288
0.15253
0.15778
0.16304
0.16480
0.16480
0.16743
0.17269
0.17795
0.18496
0.19285
0.19811
0.19986
0.19460
0.18759
0.18496
0.18759
0.19548
0.20249
0.20512
0.20249
0.19723
0.19197
0.18759
0.18759
0.19548
0.20249
0.20512
0.20512
0.19986
0.18934
0.18233
0.17707
0.17269
0.17006
0.16743
0.15954
0.14727
0.13236
0.11746
0.10256
0.08941
0.08240
0.07451
0.06487
0.04997
0.03243
0.01753
0.00263
-0.00789
-0.01227
-0.01753
-0.02542
-0.03769
-0.04997
-0.06048
-0.07276
-0.08240
-0.08766
-0.09292
-0.09730
-0.10256
-0.10782
-0.11220
-0.11746
-0.12009
-0.11746
-0.11220
-0.10957
-0.11220
-0.12009
-0.12798
-0.13236
-0.13499
-0.13236
-0.12710
-0.12272
-0.12009
-0.12009
-0.12272
-0.12710
-0.12973
-0.12710
-0.12272
-0.11746
-0.11220
-0.11220
-0.12009
-0.12710
-0.12973
-0.12973
-0.12710
-0.12272
-0.11483
-0.10782
-0.10519
-0.10519
-0.10519
-0.10519
-0.10256
-0.09730
-0.09029
-0.08240
-0.07977
-0.07714
-0.06750
-0.05785
-0.04997
-0.04032
-0.03243
-0.02542
-0.01490
-0.00964
-0.01490
-0.02717
-0.04471
-0.06750
-0.08766
-0.09730
-0.10694
-0.12009
-0.12973
-0.14025
-0.14464
-0.14464
-0.14464
-0.14288
-0.14201
-0.14464
-0.14727
-0.14990
-0.14990
-0.14990
-0.14990
-0.14727
-0.14288
-0.14201
-0.14727
-0.14990
-0.15253
-0.15515
-0.15253
-0.14551
-0.13499
-0.12798
-0.12535
-0.12535
-0.12710
-0.13499
-0.14464
-0.16217
-0.18496
-0.18584
-0.13938
-0.04734
0.05785
0.16217
0.25333
0.26648
0.15954
-0.06311
-0.34800
-0.58731
-0.74422
-0.85291
-0.92129
-0.93531
-0.88710
-0.78366
-0.64166
-0.48738
-0.34888
-0.24281
-0.16918
-0.12097
-0.08590
-0.06048
-0.04295
-0.03243
-0.02980
-0.02980
-0.02980
-0.02980
-0.02805
-0.02279
-0.01753
-0.01227
-0.00964
-0.01227
-0.01753
-0.01753
-0.01227
-0.00789
-0.00263
0.00263
0.00526
0.00526
0.00526
0.00526
0.00701
0.01227
0.01490
0.01490
0.01490
0.01490
0.01315
0.00964
0.01227
0.01490
0.01928
0.02980
0.03506
0.03243
0.02980
0.02980
0.02980
0.03419
0.04471
0.05435
0.05961
0.05785
0.05084
0.04471
0.04734
0.05435
0.06224
0.06750
0.07188
0.07539
0.07276
0.07188
0.07714
0.08240
0.08941
0.09905
0.10694
0.10957
0.10782
0.10256
0.09993
0.10256
0.10694
0.11659
0.12973
0.13762
0.14025
0.13762
0.13499
0.13499
0.13938
0.14902
0.15691
0.16217
0.16743
0.17006
0.17006
0.17006
0.17444
0.18233
0.18759
0.19022
0.19197
0.19460
0.19460
0.19460
0.19723
0.20249
0.20950
0.21476
0.21476
0.21476
0.21301
0.20775
0.20687
0.21213
0.21739
0.22178
0.22265
0.21827
0.21301
0.20775
0.20249
0.19986
0.19986
0.20249
0.20249
0.19372
0.17882
0.16392
0.14902
0.13762
0.12886
0.11571
0.10607
0.09379
0.07626
0.05698
0.03857
0.02367
0.01052
0.00088
-0.00701
-0.01403
-0.02630
-0.04120
-0.05610
-0.07100
-0.08240
-0.08678
-0.09204
-0.09730
-0.09993
-0.10168
-0.10870
-0.11746
-0.12184
-0.12535
-0.12535
-0.12272
-0.12009
-0.12184
-0.12535
-0.12710
-0.12973
-0.12973
-0.12798
-0.12535
-0.12272
-0.12184
-0.12535
-0.12710
-0.12973
-0.12973
-0.12798
-0.12097
-0.11483
-0.11483
-0.11659
-0.12184
-0.12710
-0.12973
-0.12798
-0.12535
-0.12272
-0.12009
-0.12009
-0.12009
-0.12009
-0.11834
-0.11308
-0.10607
-0.09642
-0.08590
-0.07977
-0.07802
-0.07539
-0.07100
-0.06136
-0.04909
-0.03594
-0.02367
-0.01315
-0.01403
-0.02367
-0.03594
-0.05084
-0.06574
-0.07889
-0.09116
-0.10431
-0.11571
-0.12886
-0.13850
-0.14727
-0.14990
-0.14990
-0.14814
-0.14288
-0.14025
-0.14201
-0.14464
-0.14727
-0.14814
-0.14288
-0.13850
-0.13499
-0.13499
-0.13675
-0.14025
-0.14025
-0.14025
-0.13850
-0.13324
-0.12798
-0.12535
-0.12535
-0.12535
-0.12710
-0.13149
-0.14025
-0.15954
-0.18233
-0.19285
-0.16217
-0.07539
0.02980
0.13587
0.23317
0.26911
0.19372
0.00088
-0.27525
-0.53822
-0.72055
-0.84064
-0.91866
-0.94408
-0.90551
-0.81084
-0.67760
-0.52244
-0.37693
-0.26385
-0.18759
-0.13324
-0.09379
-0.06750
-0.04909
-0.03857
-0.03506
-0.03506
-0.03331
-0.02980
-0.02805
-0.02104
-0.01315
-0.00789
-0.00701
-0.01140
-0.01490
-0.01490
-0.01140
-0.00351
0.00351
0.00964
0.00789
0.00526
0.00526
0.00526
0.00701
0.01140
0.01666
0.02016
0.01841
0.01490
0.01315
0.00964
0.01140
0.01666
0.02367
0.03156
0.03506
0.03331
0.02805
0.02542
0.02717
0.03331
0.04032
0.04208
0.04646
0.04997
0.04821
0.04471
0.04646
0.05347
0.06136
0.06662
0.07188
0.07539
0.07539
0.07539
0.07714
0.08152
0.08678
0.09379
0.10168
0.10519
0.10519
0.10519
0.10519
0.10519
0.10694
0.11308
0.12535
0.13499
0.13675
0.13850
0.13499
0.13499
0.13850
0.14814
0.15515
0.15866
0.16480
0.16480
0.16304
0.16041
0.16041
0.16304
0.17356
0.17970
0.17970
0.17970
0.17970
0.17970
0.17970
0.18145
0.18846
0.19635
0.19986
0.19986
0.19811
0.19372
0.19197
0.19635
0.20161
0.20687
0.21038
0.20863
0.20337
0.19635
0.18846
0.18496
0.18496
0.18321
0.17970
0.17532
0.16041
0.14551
0.13149
0.12360
0.11659
0.10957
0.10694
0.09555
0.07889
0.05873
0.03857
0.02016
0.00701
-0.00175
-0.00701
-0.01490
-0.02805
-0.03945
-0.05172
-0.05785
-0.06662
-0.07013
-0.07013
-0.07188
-0.07626
-0.08152
-0.08853
-0.09818
-0.10694
-0.10870
-0.10519
-0.10344
-0.09993
-0.09993
-0.10168
-0.10519
-0.10694
-0.10870
-0.10344
-0.09993
-0.09993
-0.09993
-0.10168
-0.10519
-0.10519
-0.10519
-0.10344
-0.09993
-0.09993
-0.09993
-0.09993
-0.10344
-0.10957
-0.10957
-0.10870
-0.10344
-0.09993
-0.09993
-0.09993
-0.09993
-0.09993
-0.09993
-0.09818
-0.09029
-0.07714
-0.06662
-0.05873
-0.05522
-0.05522
-0.05347
-0.04734
-0.03682
-0.02542
-0.01227
-0.00526
-0.00614
-0.01140
-0.01753
-0.02630
-0.03419
-0.04909
-0.06399
-0.07626
-0.08415
-0.09818
-0.10957
-0.12272
-0.12973
-0.12886
-0.12360
-0.11834
-0.11483
-0.11746
-0.12535
-0.12535
-0.12360
-0.11834
-0.11220
-0.10519
-0.10607
-0.11133
-0.11659
-0.12009
-0.11834
-0.11483
-0.11396
-0.10870
-0.10344
-0.10168
-0.10607
-0.10957
-0.10870
-0.10607
-0.11396
-0.13324
-0.16217
-0.17707
-0.14814
-0.06136
0.04383
0.14990
0.24895
0.29015
0.22178
0.02454
-0.26999
-0.53559
-0.70389
-0.81785
-0.89061
-0.91427
-0.87746
-0.78103
-0.65218
-0.51105
-0.36992
-0.24983
-0.16567
-0.11308
-0.07188
-0.04471
-0.02717
-0.02016
-0.02104
-0.02542
-0.02367
-0.01753
-0.00877
-0.00351
0.00000
-0.00088
-0.00526
-0.00526
-0.00526
-0.00351
0.00263
0.01140
0.01490
0.01403
0.00877
0.00526
0.00526
0.00789
0.01490
0.01666
0.02016
0.02016
0.01841
0.01490
0.01666
0.02104
0.02630
0.03243
0.04032
0.04032
0.04032
0.04032
0.04032
0.04032
0.04120
0.04646
0.05259
0.05961
0.05873
0.05347
0.04997
0.05084
0.05610
0.06136
0.06750
0.07626
0.08152
0.08503
0.08415
0.08152
0.08503
0.08590
0.09116
0.09467
0.09642
0.09993
0.09993
0.09993
0.09993
0.10256
0.11396
0.12710
0.13587
0.14025
0.14025
0.14025
0.14113
0.14639
0.15077
0.15603
0.16217
0.17006
0.17006
0.16918
0.16655
0.17269
0.18145
0.18759
0.19635
0.20074
0.20424
0.19898
0.19460
0.19635
0.20074
0.20687
0.21739
0.22528
0.22528
0.22353
0.22002
0.22002
0.22090
0.22528
0.22616
0.22966
0.22879
0.22353
0.21739
0.20863
0.20512
0.20600
0.21038
0.20863
0.20424
0.19635
0.18321
0.17093
0.15428
0.14814
0.13850
0.13149
0.11746
0.10431
0.08152
0.06574
0.04646
0.03156
0.01928
0.01315
0.00263
-0.00701
-0.01841
-0.03419
-0.05347
-0.06750
-0.07626
-0.07977
-0.08240
-0.09204
-0.10081
-0.10607
-0.11220
-0.12097
-0.12535
-0.12535
-0.12360
-0.11922
-0.11746
-0.12535
-0.12710
-0.13499
-0.13324
-0.12535
-0.12360
-0.11922
-0.11571
-0.12097
-0.12623
-0.12973
-0.12973
-0.12886
-0.12535
-0.12360
-0.12009
-0.12097
-0.12535
-0.12623
-0.12973
-0.12886
-0.12535
-0.12535
-0.12535
-0.12535
-0.12535
-0.12535
-0.12535
-0.12272
-0.11220
-0.09905
-0.09292
-0.08415
-0.07977
-0.07889
-0.07276
-0.06311
-0.05172
-0.03769
-0.02805
-0.01928
-0.01578
-0.02191
-0.03068
-0.03769
-0.05259
-0.06750
-0.08240
-0.09730
-0.10782
-0.12184
-0.13324
-0.14551
-0.14990
-0.14902
-0.14464
-0.14464
-0.14464
-0.14551
-0.14990
-0.14990
-0.14814
-0.13938
-0.13412
-0.12973
-0.12973
-0.13061
-0.13587
-0.14025
-0.14025
-0.13938
-0.13412
-0.12886
-0.12535
-0.12623
-0.13061
-0.13499
-0.13587
-0.14113
-0.14727
-0.16567
-0.19285
-0.19898
-0.15428
-0.06136
0.04383
0.15428
0.25246
0.27788
0.18496
-0.03769
-0.33661
-0.59432
-0.75474
-0.86168
-0.92392
-0.93707
-0.88272
-0.77753
-0.64078
-0.49615
-0.36115
-0.25070
-0.17093
-0.11834
-0.08065
-0.05785
-0.04383
-0.03945
-0.03506
-0.03419
-0.02980
-0.02893
-0.02367
-0.01403
-0.00964
-0.01052
-0.01490
-0.01490
-0.01490
-0.01403
-0.00964
-0.00438
-0.00088
-0.00526
-0.00526
-0.00526
-0.00526
-0.00438
0.00088
0.00614
0.01490
0.01490
0.01490
0.01490
0.01490
0.01490
0.01490
0.01666
0.02542
0.02980
0.02893
0.02454
0.02016
0.02016
0.02104
0.02630
0.03594
0.04032
0.04032
0.04032
0.04032
0.04032
0.04032
0.04120
0.05172
0.06048
0.06399
0.05961
0.05961
0.05610
0.06048
0.06662
0.07626
0.08590
0.09029
0.09467
0.08941
0.08590
0.09029
0.09555
0.10168
0.11045
0.11571
0.12009
0.12009
0.12009
0.12097
0.12623
0.13675
0.14639
0.15515
0.15515
0.15515
0.15428
0.15077
0.15515
0.15603
0.16655
0.17532
0.17970
0.17970
0.17970
0.17532
0.17970
0.18058
0.18671
0.19548
0.19986
0.19898
0.19460
0.19460
0.19022
0.19548
0.20074
0.20600
0.21038
0.20950
0.20512
0.20337
0.19460
0.19022
0.19022
0.19022
0.18934
0.18408
0.17795
0.16304
0.14814
0.13412
0.12886
0.11922
0.11396
0.10256
0.08328
0.06837
0.05347
0.03769
0.01841
0.00877
-0.00088
-0.00614
-0.01666
-0.03156
-0.04208
-0.05522
-0.06048
-0.06574
-0.07013
-0.07013
-0.07539
-0.08065
-0.08590
-0.09555
-0.09993
-0.09993
-0.09905
-0.09467
-0.09555
-0.09993
-0.10081
-0.10519
-0.10519
-0.10431
-0.09905
-0.09467
-0.09029
-0.09029
-0.09555
-0.10081
-0.10519
-0.10957
-0.10957
-0.10957
-0.10431
-0.09993
-0.10081
-0.10607
-0.11571
-0.12009
-0.11922
-0.11483
-0.10957
-0.10957
-0.10957
-0.10957
-0.10957
-0.10431
-0.09379
-0.07889
-0.06837
-0.05435
-0.04909
-0.03945
-0.03419
-0.02980
-0.02454
-0.01928
-0.00877
0.00088
0.01052
0.01403
0.00438
-0.00701
-0.02630
-0.04120
-0.05610
-0.06662
-0.08152
-0.09555
-0.10081
-0.11045
-0.12009
-0.12535
-0.12535
-0.12535
-0.12447
-0.12009
-0.12009
-0.12535
-0.12447
-0.11922
-0.11483
-0.10957
-0.09993
-0.10081
-0.11045
-0.11571
-0.12009
-0.12009
-0.11922
-0.11396
-0.10431
-0.09993
-0.10081
-0.10519
-0.11045
-0.11571
-0.12097
-0.13762
-0.16655
-0.18846
-0.16480
-0.09204
0.01227
0.11746
0.22002
0.28138
0.22791
0.05610
-0.20950
-0.48300
-0.66883
-0.79155
-0.88359
-0.92830
-0.90463
-0.81610
-0.68461
-0.53471
-0.38219
-0.26999
-0.19109
-0.13236
-0.09292
-0.05873
-0.03945
-0.02454
-0.01490
-0.01490
-0.02016
-0.01928
-0.00964
-0.00438
0.00000
0.00526
0.00438
0.00000
-0.00526
-0.00526
-0.00438
0.00088
0.01052
0.01490
0.01490
0.01490
0.01490
0.01490
0.01490
0.01578
0.02542
0.03068
0.03506
0.04032
0.04032
0.04032
0.04032
0.04558
0.04997
0.05522
0.05961
0.05961
0.04997
0.04471
0.04558
0.05084
0.06048
0.06487
0.07013
0.06487
0.06487
0.06487
0.06574
0.07539
0.08503
0.09029
0.09467
0.08941
0.08503
0.08503
0.09029
0.09555
0.10519
0.11045
0.12535
0.13499
0.13499
0.13499
0.12973
0.12535
0.12535
0.13499
0.14551
0.15515
0.15515
0.14990
0.14464
0.14551
0.14990
0.15515
0.16041
0.17006
0.17532
0.17970
0.17970
0.18058
0.18496
0.19548
0.19986
0.20512
0.21038
0.21476
0.21476
0.21038
0.21038
0.21564
0.22528
0.22528
0.22528
0.22528
0.22528
0.22002
0.21476
0.22002
0.22528
0.22528
0.22966
0.22966
0.22528
0.22528
0.22002
0.21476
0.21476
0.21476
0.20950
0.20512
0.19460
0.17970
0.17006
0.15515
0.14990
0.14025
0.13499
0.12009
0.10431
0.08503
0.05961
0.03945
0.02454
0.01490
0.00964
-0.00526
-0.01052
-0.02542
-0.04032
-0.05522
-0.06048
-0.07013
-0.07539
-0.07977
-0.07977
-0.08503
-0.09467
-0.10519
-0.12009
-0.12535
-0.12535
-0.12009
-0.12009
-0.12009
-0.12535
-0.12973
-0.13499
-0.13499
-0.13499
-0.12535
-0.12535
-0.12009
-0.12535
-0.12535
-0.12535
-0.12535
-0.12535
-0.12535
-0.12535
-0.12535
-0.12535
-0.12973
-0.13499
-0.13499
-0.13499
-0.12535
-0.12009
-0.11483
-0.11483
-0.11483
-0.12009
-0.12009
-0.12009
-0.10519
-0.09993
-0.08503
-0.07977
-0.07539
-0.07013
-0.06487
-0.05522
-0.04471
-0.02980
-0.02542
-0.01490
-0.02016
-0.03506
-0.05435
-0.07451
-0.08503
-0.09993
-0.09993
-0.10957
-0.12009
-0.12973
-0.14464
-0.14990
-0.14990
-0.14990
-0.14990
-0.14551
-0.14464
-0.14990
-0.15515
-0.15515
-0.15515
-0.14990
-0.14551
-0.14025
-0.13499
-0.14025
-0.14464
-0.14464
-0.14025
-0.13499
-0.12973
-0.12535
-0.12535
-0.12535
-0.12535
-0.13499
-0.14464
-0.15515
-0.17444
-0.20424
-0.19548
-0.12710
-0.02279
0.08240
0.18671
0.27700
0.27525
0.12009
-0.14201
-0.42602
-0.63815
-0.77577
-0.87220
-0.92830
-0.92041
-0.85204
-0.73370
-0.58030
-0.42076
-0.28489
-0.19811
-0.14201
-0.10168
-0.07626
-0.05610
-0.03594
-0.02980
-0.02980
-0.02980
-0.02980
-0.02542
-0.01578
-0.00526
-0.00526
0.00000
-0.00438
-0.00526
-0.00526
-0.00526
0.00000
0.00438
0.01490
0.01490
0.01490
0.01490
0.01490
0.01052
0.01490
0.01490
0.02016
0.02980
0.03506
0.03506
0.02980
0.02542
0.02542
0.02980
0.03945
0.04909
0.05435
0.05961
0.05522
0.04558
0.04032
0.04471
0.04997
0.05961
0.06487
0.07013
0.07013
0.06487
0.06487
0.06487
0.07451
0.08415
0.08941
0.09467
0.09467
0.09467
0.09029
0.09467
0.09993
0.10957
0.11922
0.12973
0.12973
0.12535
0.12009
0.12447
0.13412
0.13938
0.14902
0.15428
0.15515
0.15515
0.15515
0.15515
0.15515
0.16392
0.17444
0.17970
0.18934
0.19022
0.19022
0.18496
0.18934
0.19460
0.19986
0.20424
0.20950
0.21038
0.21038
0.20512
0.20950
0.21476
0.22002
0.22440
0.22528
0.22528
0.22528
0.22002
0.21564
0.22002
0.22440
0.22966
0.23492
0.23054
0.22528
0.22002
0.20600
0.20512
0.20074
0.19986
0.19548
0.19022
0.18058
0.16655
0.15165
0.13587
0.13061
0.12535
0.11571
0.10607
0.08678
0.06662
0.04646
0.03156
0.01666
0.01052
0.00088
-0.00438
-0.01403
-0.02893
-0.04383
-0.06311
-0.07889
-0.07977
-0.07977
-0.08415
-0.08941
-0.09467
-0.09993
-0.10870
-0.11483
-0.11922
-0.11571
-0.11483
-0.11483
-0.11483
-0.11922
-0.12009
-0.12447
-0.12535
-0.12009
-0.11571
-0.11045
-0.10957
-0.10957
-0.11483
-0.11483
-0.11045
-0.10957
-0.10519
-0.10081
-0.09993
-0.10431
-0.11396
-0.11922
-0.12009
-0.11571
-0.10607
-0.10081
-0.09555
-0.09029
-0.09029
-0.09029
-0.08590
-0.08065
-0.07100
-0.05698
-0.04646
-0.03594
-0.03068
-0.02980
-0.02980
-0.02542
-0.01578
-0.01052
-0.00964
-0.01928
-0.03331
-0.05698
-0.08240
-0.09818
-0.10870
-0.11483
-0.11483
-0.11922
-0.12447
-0.12535
-0.13412
-0.13938
-0.14025
-0.13149
-0.12535
-0.12535
-0.12535
-0.12535
-0.12535
-0.12973
-0.12973
-0.12535
-0.12535
-0.12097
-0.11571
-0.11483
-0.11922
-0.12447
-0.12535
-0.12097
-0.11571
-0.11045
-0.10519
-0.10957
-0.12272
-0.15515
-0.19022
-0.20775
-0.17093
-0.07802
0.03506
0.14113
0.25070
0.29979
0.23142
0.02454
-0.26999
-0.51455
-0.67497
-0.79068
-0.87483
-0.91077
-0.88009
-0.79243
-0.66270
-0.49790
-0.34099
-0.22528
-0.14990
-0.10519
-0.08240
-0.07100
-0.05698
-0.04646
-0.03243
-0.01666
-0.00614
-0.00526
-0.00964
-0.01841
-0.02016
-0.01140
-0.00614
-0.00088
0.00438
0.00526
0.00088
0.00000
-0.00438
-0.00088
0.00877
0.01403
0.01928
0.02016
0.01578
0.01490
0.01052
0.01403
0.01490
0.02367
0.03331
0.03506
0.03506
0.03506
0.03068
0.03419
0.03945
0.04032
0.04821
0.04997
0.04997
0.04997
0.04997
0.05435
0.05961
0.06399
0.06487
0.07363
0.07539
0.07100
0.07013
0.07013
0.07451
0.07889
0.08415
0.08941
0.09379
0.09467
0.09116
0.09029
0.09379
0.10344
0.11308
0.11922
0.12447
0.12535
0.12535
0.12535
0.12535
0.12886
0.13850
0.14814
0.15428
0.15515
0.15515
0.15515
0.15515
0.15954
0.16392
0.17356
0.17882
0.17970
0.17970
0.17970
0.17970
0.17970
0.18408
0.19372
0.19898
0.20424
0.20512
0.20512
0.20512
0.20512
0.20950
0.21827
0.22440
0.22528
0.22528
0.22090
0.21213
0.20600
0.20950
0.21389
0.21915
0.22440
0.22528
0.21652
0.21126
0.20600
0.19723
0.19109
0.18584
0.18058
0.17181
0.15778
0.14288
0.12360
0.11220
0.10168
0.09204
0.08590
0.07276
0.05785
0.04295
0.01928
0.00263
-0.00438
-0.00877
-0.01403
-0.01928
-0.02805
-0.04208
-0.05698
-0.07188
-0.08328
-0.08941
-0.09029
-0.09029
-0.09818
-0.10431
-0.11308
-0.11922
-0.12360
-0.12535
-0.12535
-0.12097
-0.11571
-0.11483
-0.12272
-0.12535
-0.12886
-0.12973
-0.12623
-0.12535
-0.12097
-0.12009
-0.12360
-0.12535
-0.12535
-0.12535
-0.12097
-0.11571
-0.10694
-0.10519
-0.10519
-0.10870
-0.11834
-0.12009
-0.11571
-0.11483
-0.11133
-0.10607
-0.10081
-0.09993
-0.10431
-0.10519
-0.10081
-0.09204
-0.08240
-0.07626
-0.05961
-0.05084
-0.04646
-0.04120
-0.04032
-0.03594
-0.02717
-0.01753
-0.00701
-0.00526
-0.01315
-0.03068
-0.05084
-0.07100
-0.08328
-0.09642
-0.10431
-0.11308
-0.12272
-0.13324
-0.14288
-0.14902
-0.14639
-0.13762
-0.13149
-0.12973
-0.13412
-0.13850
-0.14376
-0.14113
-0.13236
-0.12623
-0.12097
-0.12009
-0.12360
-0.12535
-0.12535
-0.12535
-0.12535
-0.12535
-0.12097
-0.11571
-0.11922
-0.12360
-0.12886
-0.14201
-0.16041
-0.18408
-0.20161
-0.18145
-0.10607
-0.00438
0.09730
0.20074
0.27086
0.23492
0.06224
-0.21564
-0.48037
-0.67058
-0.79857
-0.88622
-0.93181
-0.91340
-0.83626
-0.71529
-0.56277
-0.40673
-0.28577
-0.20249
-0.14727
-0.10870
-0.08065
-0.05961
-0.04383
-0.03243
-0.02980
-0.02980
-0.02980
-0.02980
-0.02630
-0.01753
-0.01140
-0.00964
-0.00964
-0.01403
-0.01490
-0.01490
-0.01140
-0.00614
-0.00088
0.00351
0.00526
0.00088
-0.00351
-0.00526
-0.00526
0.00263
0.01227
0.01490
0.01841
0.01666
0.01490
0.01140
0.00964
0.01403
0.02279
0.02893
0.03331
0.03506
0.03506
0.03156
0.02980
0.03331
0.03857
0.04734
0.05347
0.05522
0.05522
0.05522
0.05873
0.05961
0.06399
0.06837
0.07714
0.08328
0.08152
0.07977
0.08328
0.08503
0.09204
0.10256
0.10870
0.11396
0.11483
0.11834
0.12009
0.12009
0.12360
0.13236
0.14201
0.14902
0.15340
0.15515
0.15515
0.15866
0.16392
0.17269
0.17882
0.18408
0.18846
0.18671
0.18496
0.18846
0.19372
0.19898
0.20337
0.20863
0.21389
0.21476
0.21476
0.21476
0.21476
0.21827
0.22353
0.23229
0.23843
0.24018
0.23668
0.22791
0.22528
0.22528
0.22879
0.23317
0.23843
0.23668
0.22791
0.22178
0.21301
0.21038
0.21038
0.21389
0.21126
0.20600
0.19460
0.17970
0.16041
0.14814
0.13762
0.13149
0.12272
0.11308
0.09555
0.07889
0.06048
0.04471
0.02893
0.01753
0.01140
0.00263
-0.00351
-0.01928
-0.03243
-0.04558
-0.05347
-0.05873
-0.05961
-0.06311
-0.06837
-0.07714
-0.08678
-0.09730
-0.10344
-0.10519
-0.10168
-0.09993
-0.09993
-0.09993
-0.10344
-0.11220
-0.11483
-0.11133
-0.10607
-0.10168
-0.09993
-0.09993
-0.09993
-0.10344
-0.10870
-0.10957
-0.10694
-0.10168
-0.09642
-0.09116
-0.09379
-0.09818
-0.09993
-0.10344
-0.10168
-0.09993
-0.09642
-0.09116
-0.09379
-0.09818
-0.09993
-0.09642
-0.08766
-0.07802
-0.06487
-0.05698
-0.04821
-0.04120
-0.03682
-0.03156
-0.02980
-0.02279
-0.00964
0.00175
0.00526
0.00175
-0.01052
-0.02542
-0.04383
-0.06048
-0.07188
-0.07802
-0.09029
-0.09818
-0.11045
-0.12184
-0.12535
-0.12535
-0.12535
-0.11834
-0.11483
-0.11483
-0.11483
-0.12184
-0.12535
-0.12535
-0.12535
-0.11834
-0.11133
-0.10957
-0.10957
-0.11308
-0.11483
-0.11483
-0.11483
-0.11133
-0.10344
-0.09993
-0.09993
-0.09993
-0.10694
-0.11659
-0.13324
-0.16041
-0.18671
-0.17795
-0.12009
-0.02104
0.07889
0.18671
0.27525
0.28314
0.16129
-0.07188
-0.33310
-0.54348
-0.68812
-0.79681
-0.86343
-0.87308
-0.81697
-0.70740
-0.56890
-0.41725
-0.28577
-0.19548
-0.13675
-0.09730
-0.06487
-0.04208
-0.02805
-0.01841
-0.01490
-0.01841
-0.02016
-0.01666
-0.01140
-0.00701
-0.00175
0.00000
0.00000
0.00000
-0.00351
-0.00526
-0.00175
0.00614
0.01315
0.01490
0.01490
0.01490
0.01490
0.01490
0.01490
0.01841
0.02367
0.03156
0.03857
0.03682
0.03156
0.02717
0.02542
0.03156
0.03857
0.04295
0.04471
0.04471
0.04208
0.04032
0.04032
0.04646
0.05347
0.05785
0.06311
0.06136
0.05698
0.05172
0.05347
0.05785
0.06662
0.07626
0.08328
0.08503
0.08503
0.08503
0.08503
0.08503
0.09116
0.10168
0.10782
0.10957
0.11308
0.11483
0.11220
0.10957
0.11659
0.12623
0.13324
0.13850
0.14288
0.14464
0.14201
0.14025
0.14288
0.15165
0.15778
0.16304
0.16830
0.16655
0.16217
0.16041
0.16304
0.17093
0.17795
0.18584
0.19285
0.19197
0.19022
0.18671
0.18496
0.18846
0.19635
0.20337
0.20512
0.20512
0.20512
0.20161
0.19986
0.19986
0.20337
0.20775
0.21301
0.21213
0.20687
0.19898
0.19197
0.18671
0.18233
0.17970
0.17970
0.17356
0.16041
0.14902
0.13850
0.12886
0.11922
0.11220
0.10344
0.09116
0.07539
0.06048
0.04558
0.03068
0.01928
0.01227
0.00351
-0.00263
-0.01403
-0.02893
-0.04383
-0.05610
-0.06574
-0.07276
-0.07539
-0.07539
-0.07802
-0.07977
-0.08590
-0.09642
-0.09993
-0.09993
-0.09993
-0.09993
-0.09730
-0.09818
-0.09993
-0.10344
-0.10782
-0.10694
-0.10168
-0.09993
-0.09993
-0.09993
-0.09993
-0.10256
-0.10519
-0.10519
-0.10519
-0.10519
-0.10168
-0.09993
-0.09993
-0.09993
-0.10256
-0.10782
-0.10694
-0.10168
-0.09993
-0.09993
-0.10256
-0.10519
-0.10782
-0.10957
-0.10694
-0.10168
-0.09116
-0.08240
-0.07977
-0.07714
-0.07188
-0.06750
-0.05873
-0.04909
-0.03594
-0.02454
-0.01403
-0.00964
-0.00964
-0.01578
-0.02279
-0.02805
-0.02980
-0.03857
-0.05347
-0.07188
-0.08853
-0.10081
-0.11396
-0.12272
-0.12184
-0.11746
-0.11483
-0.11746
-0.12272
-0.12798
-0.12973
-0.12710
-0.12184
-0.11396
-0.10957
-0.11308
-0.11746
-0.12272
-0.12535
-0.12535
-0.12184
-0.11746
-0.11220
-0.10957
-0.11571
-0.12272
-0.12535
-0.12535
-0.12184
-0.11746
-0.11220
-0.11571
-0.13675
-0.17532
-0.19460
-0.15778
-0.07013
0.03769
0.15253
0.25859
0.30856
0.24194
0.03506
-0.24895
-0.50140
-0.66796
-0.78103
-0.85905
-0.88798
-0.85642
-0.77665
-0.66533
-0.52332
-0.37693
-0.25333
-0.16304
-0.10519
-0.07100
-0.05435
-0.04734
-0.04208
-0.03419
-0.02717
-0.01928
-0.01227
-0.00701
-0.00789
-0.01578
-0.02279
-0.02191
-0.01490
-0.00701
-0.00263
0.00000
0.00263
0.00526
0.00526
0.00263
0.00000
0.00263
0.01052
0.01753
0.02016
0.02016
0.02016
0.02016
0.02279
0.02805
0.03243
0.03769
0.04032
0.03769
0.03243
0.02454
0.02016
0.02542
0.03506
0.04295
0.04471
0.04471
0.04471
0.04208
0.04032
0.04295
0.04734
0.05522
0.06311
0.06750
0.07013
0.07013
0.07013
0.07276
0.08065
0.08766
0.09555
0.09993
0.09993
0.09730
0.09204
0.09029
0.09555
0.10519
0.11308
0.12009
0.12535
0.12535
0.12272
0.12009
0.12272
0.13061
0.13762
0.14551
0.15253
0.15515
0.15515
0.15515
0.15778
0.16567
0.17532
0.17970
0.17970
0.17970
0.17970
0.17970
0.17970
0.18233
0.19022
0.19986
0.20512
0.20512
0.20512
0.20249
0.20249
0.20512
0.20775
0.21476
0.22265
0.22265
0.21739
0.21213
0.20775
0.20512
0.20512
0.20512
0.20775
0.20775
0.19986
0.18759
0.17444
0.16217
0.15253
0.14990
0.14727
0.14025
0.12973
0.11483
0.09204
0.07276
0.05522
0.04032
0.03243
0.02454
0.01490
0.00263
-0.01753
-0.03769
-0.04997
-0.05522
-0.05522
-0.06048
-0.07013
-0.07977
-0.09292
-0.10256
-0.11045
-0.11746
-0.12009
-0.12009
-0.12272
-0.12535
-0.12973
-0.14025
-0.14464
-0.14288
-0.13762
-0.13499
-0.13236
-0.12973
-0.12973
-0.13236
-0.13762
-0.14288
-0.14288
-0.13499
-0.12710
-0.12535
-0.12535
-0.12710
-0.13499
-0.14025
-0.13762
-0.12973
-0.12535
-0.12535
-0.12535
-0.12535
-0.12710
-0.13236
-0.13236
-0.12798
-0.12009
-0.11220
-0.10782
-0.10519
-0.10256
-0.09555
-0.08503
-0.07539
-0.06311
-0.04734
-0.03769
-0.03506
-0.03506
-0.03506
-0.03506
-0.03506
-0.03506
-0.03945
-0.05259
-0.06925
-0.08941
-0.10957
-0.12710
-0.13762
-0.14025
-0.14025
-0.14025
-0.14025
-0.14201
-0.14727
-0.14990
-0.14990
-0.14990
-0.14727
-0.14288
-0.14025
-0.14201
-0.14727
-0.14990
-0.14990
-0.14727
-0.14288
-0.13762
-0.13236
-0.12973
-0.13236
-0.13499
-0.13499
-0.13236
-0.12798
-0.12535
-0.12535
-0.13412
-0.15866
-0.19109
-0.20775
-0.17006
-0.07889
0.02893
0.13587
0.23931
0.28752
0.21739
0.01490
-0.26648
-0.51280
-0.67058
-0.77840
-0.85554
-0.88535
-0.85993
-0.78629
-0.67058
-0.52420
-0.37605
-0.25421
-0.17006
-0.11922
-0.09116
-0.07276
-0.06048
-0.04821
-0.03506
-0.02805
-0.02279
-0.02016
-0.02191
-0.02717
-0.02980
-0.02980
-0.02805
-0.02016
-0.01315
-0.00789
-0.00526
-0.00526
-0.00701
-0.00964
-0.00789
-0.00263
0.00263
0.00701
0.01227
0.01315
0.00789
0.00526
0.00701
0.01227
0.01753
0.02191
0.02542
0.02542
0.02279
0.01753
0.01490
0.01753
0.02454
0.03243
0.03682
0.04032
0.04032
0.03769
0.03506
0.03682
0.04471
0.05435
0.06224
0.06487
0.06311
0.05785
0.05522
0.05961
0.06750
0.07451
0.08240
0.08503
0.08503
0.08240
0.07977
0.07977
0.08240
0.09116
0.10431
0.10957
0.11220
0.11308
0.10957
0.10957
0.11220
0.11922
0.12886
0.13499
0.13938
0.14464
0.14464
0.14464
0.14902
0.15691
0.16392
0.17006
0.17006
0.17006
0.16830
0.16480
0.16743
0.17181
0.17707
0.18233
0.18671
0.19022
0.18759
0.18321
0.17970
0.18233
0.18934
0.19898
0.20512
0.20512
0.20249
0.19548
0.18584
0.17970
0.18233
0.18671
0.19197
0.19460
0.19109
0.18058
0.17093
0.16129
0.15515
0.15515
0.15077
0.14113
0.13061
0.11659
0.09642
0.07889
0.06574
0.05610
0.04558
0.03594
0.02367
0.00877
-0.00614
-0.02104
-0.03419
-0.04208
-0.04734
-0.05172
-0.05698
-0.06399
-0.07363
-0.08240
-0.08941
-0.09467
-0.09467
-0.09467
-0.09467
-0.09730
-0.10168
-0.10694
-0.11220
-0.11308
-0.10782
-0.10344
-0.09993
-0.09993
-0.10168
-0.10694
-0.11220
-0.11308
-0.10782
-0.10519
-0.10344
-0.09993
-0.09993
-0.10168
-0.10694
-0.10957
-0.10957
-0.10782
-0.10344
-0.09993
-0.09993
-0.10168
-0.10694
-0.10957
-0.10957
-0.10782
-0.10344
-0.09993
-0.09818
-0.09467
-0.09730
-0.09993
-0.09642
-0.08415
-0.06750
-0.05084
-0.04120
-0.03506
-0.03506
-0.03506
-0.03331
-0.02980
-0.02805
-0.02279
-0.02191
-0.03068
-0.04734
-0.06750
-0.08766
-0.10344
-0.11220
-0.11659
-0.12184
-0.12535
-0.12710
-0.13412
-0.14201
-0.14464
-0.14288
-0.13587
-0.12973
-0.12973
-0.12973
-0.13149
-0.13499
-0.13499
-0.13324
-0.12798
-0.12535
-0.12272
-0.12009
-0.12184
-0.12535
-0.12535
-0.12535
-0.12360
-0.11659
-0.10782
-0.10519
-0.10870
-0.12447
-0.15077
-0.18233
-0.20161
-0.16567
-0.07714
0.02454
0.12272
0.22440
0.28840
0.25333
0.09116
-0.16392
-0.41199
-0.59082
-0.71967
-0.81697
-0.86869
-0.85554
-0.78103
-0.65656
-0.50316
-0.35326
-0.23931
-0.16567
-0.11746
-0.08590
-0.06311
-0.04471
-0.03156
-0.02104
-0.01490
-0.01490
-0.01841
-0.02542
-0.02542
-0.02191
-0.01315
-0.00789
-0.00526
-0.00526
-0.00701
-0.01140
-0.01490
-0.01490
-0.01140
-0.00526
-0.00351
0.00000
0.00000
0.00000
0.00000
0.00175
0.00877
0.01666
0.02191
0.02542
0.02542
0.02542
0.02367
0.02016
0.02191
0.02805
0.03682
0.04032
0.04032
0.04032
0.04032
0.03857
0.03682
0.04032
0.04295
0.05172
0.05522
0.05347
0.04997
0.04997
0.05172
0.05873
0.06487
0.06837
0.07626
0.07977
0.07802
0.07539
0.07626
0.08152
0.08853
0.09818
0.10519
0.10519
0.10344
0.09993
0.10168
0.10694
0.11308
0.12447
0.13675
0.14201
0.14376
0.13850
0.13499
0.13675
0.14288
0.15165
0.15691
0.16129
0.16304
0.16041
0.16129
0.16480
0.16830
0.17619
0.18145
0.18846
0.19460
0.19197
0.18321
0.17970
0.18145
0.18846
0.19811
0.20687
0.21038
0.20863
0.20337
0.19811
0.19460
0.19635
0.20161
0.20512
0.20512
0.20161
0.19197
0.18321
0.17970
0.17970
0.17970
0.17882
0.17006
0.15691
0.14551
0.12886
0.11220
0.10081
0.08853
0.08328
0.07714
0.06662
0.05347
0.03419
0.01403
-0.00175
-0.00614
-0.01315
-0.02279
-0.03331
-0.04471
-0.06136
-0.07802
-0.08766
-0.09467
-0.09642
-0.09993
-0.10168
-0.10782
-0.11834
-0.12798
-0.13675
-0.14025
-0.13850
-0.13499
-0.13499
-0.13762
-0.14639
-0.15165
-0.15691
-0.15866
-0.15340
-0.14814
-0.14201
-0.13675
-0.14113
-0.14639
-0.15165
-0.15515
-0.15340
-0.14990
-0.14814
-0.14201
-0.13324
-0.13149
-0.13762
-0.14464
-0.14464
-0.14201
-0.13061
-0.11746
-0.10957
-0.10957
-0.10870
-0.10344
-0.09730
-0.08678
-0.07451
-0.05873
-0.05347
-0.05172
-0.05522
-0.05610
-0.05873
-0.05522
-0.05522
-0.05610
-0.06399
-0.07889
-0.09379
-0.11045
-0.12798
-0.13675
-0.14113
-0.14639
-0.14990
-0.14990
-0.15165
-0.15603
-0.16041
-0.16041
-0.16041
-0.15691
-0.14990
-0.14990
-0.14990
-0.15165
-0.15778
-0.16392
-0.15866
-0.15340
-0.14902
-0.14376
-0.14288
-0.14990
-0.15165
-0.15515
-0.15340
-0.14990
-0.14902
-0.14464
-0.14639
-0.15778
-0.19022
-0.22703
-0.23580
-0.18233
-0.07363
0.04120
0.14288
0.23405
0.25771
0.15515
-0.07977
-0.36992
-0.59520
-0.73633
-0.83100
-0.89937
-0.91953
-0.88535
-0.79769
-0.66533
-0.50929
-0.35765
-0.24369
-0.16743
-0.12360
-0.10081
-0.08766
-0.07714
-0.06662
-0.05259
-0.04208
-0.03506
-0.03594
-0.04032
-0.04032
-0.03857
-0.03419
-0.02893
-0.02367
-0.02016
-0.02016
-0.02104
-0.02630
-0.02980
-0.02893
-0.02279
-0.01227
-0.00526
-0.00526
-0.00526
-0.00614
-0.01140
-0.01403
-0.00877
-0.00263
0.00701
0.01490
0.01490
0.01490
0.01403
0.00964
0.01140
0.01578
0.02279
0.02980
0.02980
0.02805
0.02016
0.02104
0.02630
0.03243
0.04032
0.04208
0.04997
0.04997
0.04909
0.04383
0.04120
0.04734
0.05698
0.06574
0.07100
0.07363
0.07013
0.07013
0.07100
0.07714
0.08590
0.09204
0.10081
0.10519
0.10519
0.10519
0.10607
0.11133
0.11746
0.12710
0.13499
0.13587
0.14025
0.13850
0.13499
0.13762
0.14727
0.15515
0.15603
0.16129
0.16480
0.16392
0.15866
0.15603
0.16217
0.17181
0.18233
0.19109
0.19372
0.18934
0.18408
0.17970
0.17970
0.18233
0.19109
0.19635
0.19898
0.19460
0.19372
0.18934
0.18408
0.18233
0.19109
0.19635
0.19898
0.19285
0.18321
0.17269
0.16392
0.15866
0.15428
0.14814
0.13938
0.13061
0.11220
0.09730
0.08152
0.06925
0.06311
0.05259
0.04295
0.03068
0.01227
-0.00263
-0.01841
-0.03243
-0.04208
-0.05084
-0.05610
-0.06224
-0.07188
-0.08328
-0.09642
-0.10168
-0.10957
-0.11133
-0.11483
-0.11571
-0.12097
-0.12623
-0.13061
-0.13499
-0.13587
-0.13938
-0.13412
-0.12886
-0.12535
-0.12623
-0.13061
-0.13587
-0.13938
-0.13412
-0.12886
-0.12535
-0.12535
-0.12535
-0.12623
-0.13061
-0.13499
-0.13412
-0.12886
-0.12535
-0.12535
-0.12535
-0.12535
-0.12623
-0.12973
-0.12886
-0.12184
-0.10782
-0.09818
-0.08941
-0.08503
-0.08415
-0.07977
-0.07802
-0.06750
-0.05347
-0.04208
-0.02980
-0.02980
-0.02980
-0.02980
-0.03068
-0.03682
-0.04646
-0.05785
-0.07188
-0.08328
-0.10344
-0.12272
-0.13675
-0.14551
-0.14902
-0.14376
-0.14025
-0.14025
-0.14113
-0.14551
-0.14990
-0.14990
-0.14902
-0.14376
-0.13938
-0.13499
-0.13587
-0.14113
-0.14551
-0.14990
-0.14902
-0.14288
-0.13412
-0.12886
-0.12535
-0.12623
-0.13061
-0.13499
-0.13412
-0.12973
-0.13061
-0.13938
-0.16567
-0.19898
-0.21476
-0.17444
-0.07714
0.03331
0.14902
0.25421
0.28927
0.20249
-0.01841
-0.31119
-0.55049
-0.70389
-0.81697
-0.88359
-0.89850
-0.85028
-0.75123
-0.62763
-0.48738
-0.34800
-0.24281
-0.16743
-0.11922
-0.08766
-0.07363
-0.06399
-0.05961
-0.05435
-0.04821
-0.03857
-0.02893
-0.02542
-0.02542
-0.02980
-0.02980
-0.02980
-0.02893
-0.01928
-0.01403
-0.00964
-0.00614
-0.00964
-0.01052
-0.01490
-0.01403
-0.00964
-0.00351
0.00614
0.00964
0.00438
0.00000
-0.00088
-0.00438
0.00175
0.01052
0.01578
0.02016
0.02016
0.01928
0.01490
0.01490
0.01578
0.02104
0.03068
0.03419
0.02893
0.02454
0.02016
0.02104
0.02630
0.03594
0.04558
0.05084
0.05522
0.05522
0.05435
0.04997
0.05084
0.05610
0.06662
0.07539
0.08065
0.08503
0.08503
0.08503
0.08503
0.08590
0.09730
0.11045
0.11483
0.11483
0.11396
0.10957
0.10957
0.11045
0.11659
0.13149
0.14113
0.15077
0.15428
0.14902
0.14551
0.15077
0.15515
0.15603
0.16567
0.17006
0.17006
0.17006
0.17006
0.17006
0.17093
0.17970
0.18058
0.18496
0.18496
0.18408
0.17970
0.17970
0.18058
0.18584
0.19109
0.19986
0.19986
0.19986
0.19460
0.18934
0.18496
0.18584
0.19022
0.19460
0.19372
0.18408
0.17269
0.15428
0.14376
0.13499
0.13499
0.13412
0.12360
0.10870
0.09379
0.07802
0.06311
0.04909
0.03857
0.02893
0.01928
0.00877
-0.00614
-0.02191
-0.03682
-0.05084
-0.05522
-0.06048
-0.06574
-0.07626
-0.08678
-0.10081
-0.10607
-0.11483
-0.11483
-0.10957
-0.10957
-0.11045
-0.11571
-0.12535
-0.13061
-0.13499
-0.13412
-0.12973
-0.12447
-0.12009
-0.12009
-0.12009
-0.12535
-0.12973
-0.12973
-0.12447
-0.11922
-0.11483
-0.11045
-0.11571
-0.12009
-0.12535
-0.12535
-0.12447
-0.11396
-0.10431
-0.10081
-0.10607
-0.11571
-0.12009
-0.12447
-0.11922
-0.10957
-0.09905
-0.08415
-0.06925
-0.05961
-0.05435
-0.04997
-0.04383
-0.03419
-0.02980
-0.02454
-0.02016
-0.02016
-0.02104
-0.02980
-0.03156
-0.04558
-0.05610
-0.07100
-0.08065
-0.09116
-0.10607
-0.12009
-0.12535
-0.13061
-0.13499
-0.13499
-0.12973
-0.13061
-0.13499
-0.14113
-0.14990
-0.14990
-0.14902
-0.13412
