-0.00268
-0.01031
-0.01398
-0.01194
-0.00502
0.00396
0.01107
0.01270
0.00775
-0.00055
-0.00594
-0.00381
0.00440
0.01241
0.01488
0.01143
0.00485
-0.00257
-0.00948
-0.01358
-0.01227
-0.00650
-0.00167
-0.00247
-0.00822
-0.01459
-0.01806
-0.01707
-0.01100
-0.00076
0.01073
0.02014
0.02550
0.02656
0.02487
0.02279
0.02114
0.01834
0.01286
0.00514
-0.00416
-0.01556
-0.02851
-0.03915
-0.04273
-0.03804
-0.02835
-0.01840
-0.01151
-0.00837
-0.00716
-0.00490
0.00069
0.01035
0.02338
0.03740
0.04848
0.05321
0.05118
0.04499
0.03802
0.03236
0.02795
0.02268
0.01337
-0.00243
-0.02491
-0.05178
-0.07846
-0.09903
-0.11080
-0.12003
-0.13808
-0.16440
-0.17552
-0.14061
-0.04863
0.08733
0.24742
0.40750
0.52039
0.52099
0.37806
0.13877
-0.09927
-0.26629
-0.35972
-0.40824
-0.42071
-0.38379
-0.29260
-0.16417
-0.02587
0.09652
0.18353
0.22722
0.23368
0.21582
0.18369
0.14257
0.09658
0.05032
0.00845
-0.02484
-0.04701
-0.05927
-0.06619
-0.07205
-0.07744
-0.07936
-0.07402
-0.06008
-0.04005
-0.01866
0.00012
0.01390
0.02099
0.02144
0.01909
0.01971
0.02559
0.03326
0.03725
0.03477
0.02670
0.01569
0.00444
-0.00473
-0.00996
-0.01061
-0.00816
-0.00581
-0.00659
-0.01120
-0.01750
-0.02178
-0.02074
-0.01351
-0.00262
0.00728
0.01243
0.01163
0.00560
-0.00306
-0.00920
-0.00772
0.00117
0.01132
0.01642
0.01495
0.00885
0.00078
-0.00604
-0.00802
-0.00422
0.00206
0.00597
0.00486
-0.00074
-0.00792
-0.01272
-0.01232
-0.00696
0.00074
0.00781
0.01165
0.01015
0.00327
-0.00541
-0.01031
-0.00821
-0.00095
0.00627
0.00921
0.00725
0.00228
-0.00368
-0.00890
-0.01091
-0.00713
0.00205
0.01167
0.01512
0.00976
-0.00064
-0.00914
-0.01137
-0.00785
-0.00155
0.00500
0.00954
0.00894
0.00172
-0.00802
-0.01259
-0.00868
-0.00069
0.00530
0.00755
0.00688
0.00332
-0.00236
-0.00672
-0.00677
-0.00294
0.00256
0.00763
0.00936
0.00532
-0.00247
-0.00795
-0.00731
-0.00258
0.00220
0.00538
0.00671
0.00484
-0.00095
-0.00758
-0.01020
-0.00749
-0.00251
0.00188
0.00553
0.00775
0.00564
-0.00137
-0.00785
-0.00710
0.00123
0.01083
0.01504
0.01160
0.00273
-0.00676
-0.01224
-0.01203
-0.00769
-0.00180
0.00318
0.00482
0.00205
-0.00340
-0.00829
-0.01007
-0.00729
0.00017
0.00930
0.01447
0.01208
0.00442
-0.00257
-0.00457
-0.00136
0.00453
0.01003
0.01267
0.01081
0.00420
-0.00505
-0.01269
-0.01507
-0.01236
-0.00798
-0.00484
-0.00366
-0.00498
-0.00965
-0.01576
-0.01796
-0.01235
-0.00060
0.01236
0.02288
0.02941
0.03106
0.02815
0.02319
0.01906
0.01614
0.01211
0.00433
-0.00803
-0.02323
-0.03719
-0.04502
-0.04386
-0.03492
-0.02288
-0.01295
-0.00803
-0.00758
-0.00852
-0.00699
0.00001
0.01293
0.02885
0.04315
0.05247
0.05583
0.05361
0.04701
0.03871
0.03194
0.02726
0.02103
0.00859
-0.01131
-0.03646
-0.06386
-0.08977
-0.10885
-0.11954
-0.13051
-0.15221
-0.17602
-0.17025
-0.10765
0.00825
0.15429
0.31295
0.46210
0.54485
0.49032
0.28893
0.02533
-0.19104
-0.31708
-0.37908
-0.40563
-0.39328
-0.33316
-0.23567
-0.11925
0.00257
0.11376
0.19310
0.22956
0.23075
0.21051
0.17586
0.13014
0.08045
0.03526
-0.00181
-0.03121
-0.05258
-0.06452
-0.06887
-0.07130
-0.07549
-0.07829
-0.07306
-0.05746
-0.03552
-0.01286
0.00661
0.01966
0.02398
0.02160
0.01880
0.02076
0.02730
0.03423
0.03682
0.03267
0.02294
0.01109
-0.00003
-0.00871
-0.01277
-0.01076
-0.00547
-0.00284
-0.00588
-0.01204
-0.01705
-0.01887
-0.01695
-0.01069
-0.00107
0.00759
0.01036
0.00630
-0.00079
-0.00591
-0.00614
-0.00148
0.00594
0.01287
0.01616
0.01380
0.00615
-0.00347
-0.00994
-0.00973
-0.00370
0.00358
0.00738
0.00576
-0.00002
-0.00657
-0.00999
-0.00817
-0.00245
0.00367
0.00752
0.00796
0.00410
-0.00360
-0.01116
-0.01308
-0.00772
0.00122
0.00877
0.01192
0.00974
0.00342
-0.00332
-0.00660
-0.00539
-0.00129
0.00363
0.00720
0.00697
0.00203
-0.00513
-0.00990
-0.00899
-0.00281
0.00488
0.00953
0.00877
0.00339
-0.00372
-0.00912
-0.01008
-0.00608
0.00059
0.00618
0.00793
0.00540
0.00010
-0.00539
-0.00815
-0.00595
0.00088
0.00854
0.01200
0.00899
0.00156
-0.00594
-0.00983
-0.00857
-0.00312
0.00361
0.00812
0.00807
0.00339
-0.00365
-0.00949
-0.01118
-0.00798
-0.00129
0.00617
0.01089
0.00988
0.00324
-0.00488
-0.00912
-0.00702
-0.00016
0.00765
0.01234
0.01095
0.00361
-0.00571
-0.01151
-0.01064
-0.00432
0.00308
0.00703
0.00558
-0.00007
-0.00689
-0.01158
-0.01160
-0.00642
0.00154
0.00816
0.01066
0.00905
0.00498
0.00012
-0.00355
-0.00337
0.00204
0.01005
0.01497
0.01293
0.00506
-0.00432
-0.01101
-0.01267
-0.00947
-0.00441
-0.00159
-0.00340
-0.00928
-0.01637
-0.02073
-0.01909
-0.01083
0.00149
0.01356
0.02155
0.02399
0.02257
0.02078
0.02114
0.02324
0.02415
0.02069
0.01120
-0.00371
-0.02082
-0.03483
-0.04121
-0.03970
-0.03395
-0.02731
-0.02048
-0.01394
-0.00987
-0.00942
-0.00928
-0.00379
0.00928
0.02628
0.04107
0.04961
0.05128
0.04790
0.04245
0.03793
0.03567
0.03436
0.03063
0.02064
0.00216
-0.02379
-0.05309
-0.07999
-0.09922
-0.11022
-0.12162
-0.14530
-0.17721
-0.18773
-0.14446
-0.04455
0.08847
0.23666
0.39110
0.51474
0.53381
0.40037
0.15729
-0.08808
-0.25745
-0.34907
-0.39620
-0.41091
-0.38194
-0.30410
-0.18927
-0.05760
0.06873
0.16834
0.22779
0.24642
0.23244
0.19634
0.14807
0.09622
0.04766
0.00791
-0.02010
-0.03838
-0.05235
-0.06503
-0.07483
-0.07949
-0.07905
-0.07349
-0.06088
-0.04087
-0.01838
-0.00082
0.00845
0.01222
0.01517
0.01945
0.02473
0.03027
0.03483
0.03605
0.03210
0.02378
0.01380
0.00460
-0.00214
-0.00530
-0.00516
-0.00385
-0.00395
-0.00709
-0.01348
-0.02092
-0.02483
-0.02133
-0.01095
0.00127
0.00924
0.00960
0.00363
-0.00365
-0.00737
-0.00579
-0.00000
0.00799
0.01542
0.01874
0.01553
0.00675
-0.00361
-0.01061
-0.01078
-0.00433
0.00405
0.00814
0.00538
-0.00139
-0.00737
-0.00984
-0.00853
-0.00422
0.00122
0.00479
0.00425
0.00036
-0.00377
-0.00551
-0.00392
0.00077
0.00697
0.01125
0.01049
0.00485
-0.00250
-0.00817
-0.01004
-0.00722
-0.00059
0.00687
0.01097
0.00849
-0.00024
-0.01027
-0.01495
-0.01132
-0.00208
0.00743
0.01267
0.01125
0.00385
-0.00506
-0.00972
-0.00752
-0.00061
0.00663
0.01047
0.00897
0.00263
-0.00538
-0.01082
-0.01113
-0.00687
-0.00057
0.00503
0.00791
0.00691
0.00235
-0.00339
-0.00649
-0.00427
0.00219
0.00840
0.01016
0.00649
-0.00066
-0.00838
-0.01365
-0.01348
-0.00690
0.00306
0.01072
0.01215
0.00767
0.00041
-0.00580
-0.00746
-0.00329
0.00359
0.00762
0.00614
0.00146
-0.00287
-0.00561
-0.00687
-0.00590
-0.00178
0.00447
0.00949
0.00971
0.00408
-0.00482
-0.01217
-0.01387
-0.00903
-0.00041
0.00733
0.01036
0.00757
0.00103
-0.00504
-0.00671
-0.00322
0.00267
0.00758
0.00995
0.00950
0.00595
-0.00009
-0.00559
-0.00673
-0.00270
0.00304
0.00590
0.00390
-0.00194
-0.00911
-0.01466
-0.01620
-0.01352
-0.00879
-0.00428
-0.00094
0.00044
-0.00070
-0.00209
0.00153
0.01323
0.02929
0.04139
0.04290
0.03240
0.01346
-0.00695
-0.02133
-0.02605
-0.02351
-0.01948
-0.01859
-0.02230
-0.02884
-0.03408
-0.03370
-0.02620
-0.01356
0.00093
0.01459
0.02518
0.03052
0.03038
0.02844
0.03016
0.03756
0.04682
0.05197
0.04983
0.04074
0.02593
0.00675
-0.01364
-0.03076
-0.04304
-0.05426
-0.06930
-0.08872
-0.11154
-0.14083
-0.17573
-0.19589
-0.16742
-0.07436
0.06479
0.21864
0.36545
0.47910
0.50952
0.41157
0.20232
-0.03390
-0.21395
-0.31815
-0.37528
-0.40465
-0.39474
-0.33016
-0.21655
-0.07722
0.05959
0.16727
0.22750
0.23892
0.21680
0.18090
0.14327
0.10629
0.06863
0.03078
-0.00453
-0.03500
-0.05984
-0.07802
-0.08715
-0.08547
-0.07447
-0.05873
-0.04365
-0.03272
-0.02554
-0.01835
-0.00795
0.00516
0.01850
0.03069
0.04023
0.04319
0.03625
0.02254
0.01059
0.00658
0.00940
0.01385
0.01562
0.01250
0.00361
-0.00941
-0.02147
-0.02671
-0.02302
-0.01353
-0.00394
0.00120
0.00058
-0.00377
-0.00820
-0.00981
-0.00758
-0.00201
0.00535
0.01164
0.01361
0.00992
0.00280
-0.00334
-0.00503
-0.00175
0.00447
0.01028
0.01204
0.00761
-0.00133
-0.00951
-0.01210
-0.00849
-0.00193
0.00377
0.00629
0.00479
-0.00034
-0.00703
-0.01145
-0.00980
-0.00183
0.00765
0.01239
0.01024
0.00397
-0.00282
-0.00811
-0.00994
-0.00622
0.00196
0.00927
0.01046
0.00507
-0.00294
-0.00885
-0.00959
-0.00471
0.00302
0.00891
0.00970
0.00577
-0.00021
-0.00551
-0.00806
-0.00654
-0.00159
0.00390
0.00693
0.00634
0.00245
-0.00342
-0.00841
-0.00912
-0.00467
0.00204
0.00682
0.00736
0.00384
-0.00196
-0.00729
-0.00911
-0.00566
0.00196
0.00972
0.01283
0.00935
0.00200
-0.00421
-0.00655
-0.00558
-0.00237
0.00257
0.00684
0.00609
-0.00090
-0.00947
-0.01375
-0.01217
-0.00651
0.00136
0.00915
0.01318
0.01126
0.00520
-0.00112
-0.00466
-0.00381
0.00103
0.00648
0.00807
0.00424
-0.00277
-0.00930
-0.01248
-0.01091
-0.00545
0.00077
0.00415
0.00325
-0.00066
-0.00482
-0.00653
-0.00412
0.00232
0.01051
0.01664
0.01742
0.01223
0.00381
-0.00332
-0.00604
-0.00446
-0.00088
0.00242
0.00344
0.00003
-0.00817
-0.01747
-0.02201
-0.01914
-0.01168
-0.00423
0.00093
0.00350
0.00323
0.00077
-0.00059
0.00336
0.01362
0.02658
0.03643
0.03856
0.03141
0.01688
-0.00005
-0.01356
-0.02023
-0.02114
-0.02068
-0.02276
-0.02784
-0.03333
-0.03625
-0.03456
-0.02712
-0.01417
0.00126
0.01410
0.02065
0.02166
0.02147
0.02426
0.03100
0.03990
0.04863
0.05490
0.05575
0.04855
0.03360
0.01468
-0.00345
-0.01808
-0.03019
-0.04402
-0.06359
-0.08831
-0.11416
-0.14050
-0.16994
-0.19439
-0.18721
-0.12336
-0.00706
0.13405
0.28043
0.42219
0.52250
0.51284
0.35724
0.10950
-0.12430
-0.27881
-0.36327
-0.41035
-0.42449
-0.38865
-0.29645
-0.16263
-0.01473
0.11541
0.20176
0.23676
0.23250
0.20739
0.17399
0.13772
0.10010
0.06087
0.02038
-0.01839
-0.05102
-0.07405
-0.08573
-0.08634
-0.07908
-0.06887
-0.05894
-0.04941
-0.03922
-0.02786
-0.01489
0.00043
0.01769
0.03344
0.04219
0.04082
0.03213
0.02270
0.01745
0.01702
0.01940
0.02145
0.01940
0.01088
-0.00229
-0.01494
-0.02264
-0.02414
-0.02016
-0.01228
-0.00396
-0.00000
-0.00251
-0.00805
-0.01092
-0.00898
-0.00451
0.00020
0.00502
0.00926
0.01025
0.00684
0.00198
-0.00047
0.00020
0.00255
0.00553
0.00819
0.00851
0.00481
-0.00193
-0.00835
-0.01075
-0.00725
0.00060
0.00799
0.00989
0.00469
-0.00492
-0.01357
-0.01579
-0.00956
0.00121
0.00918
0.01030
0.00678
0.00256
-0.00154
-0.00597
-0.00817
-0.00466
0.00281
0.00791
0.00731
0.00370
0.00025
-0.00289
-0.00496
-0.00270
0.00461
0.01175
0.01234
0.00511
-0.00573
-0.01438
-0.01691
-0.01310
-0.00574
0.00180
0.00702
0.00783
0.00373
-0.00209
-0.00468
-0.00210
0.00362
0.00975
0.01405
0.01346
0.00580
-0.00596
-0.01453
-0.01520
-0.00984
-0.00292
0.00324
0.00746
0.00734
0.00187
-0.00500
-0.00720
-0.00301
0.00342
0.00705
0.00648
0.00329
-0.00098
-0.00537
-0.00790
-0.00593
0.00055
0.00765
0.01081
0.00844
0.00169
-0.00714
-0.01422
-0.01482
-0.00738
0.00385
0.01225
0.01410
0.00982
0.00202
-0.00553
-0.00880
-0.00590
0.00118
0.00755
0.00871
0.00381
-0.00396
-0.01028
-0.01302
-0.01198
-0.00703
0.00116
0.00915
0.01222
0.00850
0.00057
-0.00681
-0.00910
-0.00392
0.00661
0.01579
0.01725
0.01054
0.00081
-0.00644
-0.00865
-0.00572
0.00051
0.00584
0.00557
-0.00159
-0.01192
-0.01984
-0.02219
-0.01929
-0.01301
-0.00500
0.00289
0.00827
0.00948
0.00764
0.00672
0.01095
0.02127
0.03376
0.04133
0.03796
0.02312
0.00253
-0.01641
-0.02981
-0.03706
-0.03782
-0.03264
-0.02561
-0.02242
-0.02449
-0.02728
-0.02499
-0.01561
-0.00151
0.01333
0.02585
0.03450
0.03838
0.03758
0.03476
0.03441
0.03864
0.04443
0.04638
0.04143
0.03002
0.01344
-0.00719
-0.02914
-0.04813
-0.06217
-0.07367
-0.08700
-0.10702
-0.13861
-0.17834
-0.20302
-0.17816
-0.08772
0.05116
0.20963
0.36830
0.49942
0.54342
0.44300
0.21465
-0.04161
-0.22728
-0.32450
-0.37441
-0.40188
-0.39321
-0.33365
-0.23083
-0.10174
0.03556
0.15479
0.22830
0.24849
0.23145
0.19710
0.15486
0.10888
0.06559
0.03039
0.00210
-0.02434
-0.05112
-0.07527
-0.09127
-0.09491
-0.08607
-0.06914
-0.05044
-0.03446
-0.02249
-0.01356
-0.00547
0.00433
0.01691
0.03022
0.04010
0.04348
0.04004
0.03152
0.02037
0.00933
0.00158
0.00014
0.00509
0.01081
0.00920
-0.00188
-0.01542
-0.02286
-0.02232
-0.01708
-0.00987
-0.00268
0.00105
-0.00102
-0.00636
-0.00985
-0.00886
-0.00412
0.00273
0.00975
0.01433
0.01449
0.01038
0.00392
-0.00207
-0.00448
-0.00193
0.00319
0.00654
0.00578
0.00157
-0.00447
-0.01042
-0.01308
-0.00960
-0.00126
0.00647
0.00906
0.00679
0.00255
-0.00183
-0.00508
-0.00475
0.00011
0.00583
0.00730
0.00388
-0.00130
-0.00636
-0.01088
-0.01228
-0.00717
0.00309
0.01189
0.01342
0.00746
-0.00164
-0.00842
-0.00926
-0.00403
0.00400
0.01044
0.01214
0.00840
0.00112
-0.00609
-0.01006
-0.00943
-0.00480
0.00130
0.00498
0.00374
-0.00104
-0.00565
-0.00752
-0.00591
-0.00123
0.00452
0.00791
0.00709
0.00350
-0.00049
-0.00397
-0.00606
-0.00424
0.00280
0.01091
0.01307
0.00727
-0.00138
-0.00734
-0.00962
-0.00886
-0.00464
0.00152
0.00489
0.00286
-0.00175
-0.00520
-0.00684
-0.00665
-0.00279
0.00516
0.01286
0.01406
0.00693
-0.00367
-0.01050
-0.01022
-0.00479
0.00233
0.00898
0.01297
0.01123
0.00317
-0.00686
-0.01258
-0.01131
-0.00541
0.00079
0.00422
0.00387
0.00032
-0.00488
-0.00911
-0.00937
-0.00450
0.00288
0.00823
0.00936
0.00727
0.00359
-0.00032
-0.00193
0.00134
0.00853
0.01464
0.01505
0.00933
0.00051
-0.00812
-0.01454
-0.01734
-0.01562
-0.01056
-0.00589
-0.00506
-0.00816
-0.01225
-0.01399
-0.01127
-0.00372
0.00677
0.01685
0.02390
0.02722
0.02723
0.02496
0.02201
0.01939
0.01626
0.01073
0.00172
-0.01071
-0.02549
-0.03933
-0.04697
-0.04512
-0.03571
-0.02401
-0.01435
-0.00838
-0.00571
-0.00445
-0.00142
0.00647
0.02001
0.03631
0.04969
0.05491
0.05095
0.04224
0.03536
0.03335
0.03328
0.02968
0.01946
0.00305
-0.01762
-0.04095
-0.06565
-0.08898
-0.10603
-0.11539
-0.12612
-0.14936
-0.17564
-0.17062
-0.10532
0.01617
0.16883
0.33123
0.47578
0.54564
0.47912
0.27458
0.01302
-0.20366
-0.33158
-0.39252
-0.41724
-0.40630
-0.34572
-0.23708
-0.10172
0.03251
0.14144
0.21062
0.23936
0.23682
0.21210
0.17035
0.11785
0.06515
0.02172
-0.00986
-0.03239
-0.04875
-0.06018
-0.06825
-0.07502
-0.08040
-0.08085
-0.07223
-0.05376
-0.02957
-0.00665
0.00923
0.01697
0.01923
0.01907
0.01890
0.02180
0.02945
0.03809
0.04036
0.03307
0.02034
0.00814
-0.00119
-0.00758
-0.01007
-0.00816
-0.00464
-0.00429
-0.00944
-0.01757
-0.02298
-0.02138
-0.01344
-0.00384
0.00318
0.00623
0.00546
0.00182
-0.00215
-0.00334
-0.00063
0.00476
0.01075
0.01458
0.01326
0.00645
-0.00202
-0.00706
-0.00652
-0.00189
0.00373
0.00725
0.00649
0.00133
-0.00589
-0.01155
-0.01281
-0.00885
-0.00128
0.00607
0.00903
0.00610
-0.00041
-0.00664
-0.00928
-0.00644
0.00113
0.00913
0.01254
0.00991
0.00358
-0.00345
-0.00881
-0.01007
-0.00560
0.00273
0.00955
0.01040
0.00532
-0.00229
-0.00910
-0.01245
-0.00976
-0.00088
0.00894
0.01216
0.00664
-0.00211
-0.00751
-0.00779
-0.00451
0.00102
0.00729
0.01103
0.00896
0.00125
-0.00778
-0.01252
-0.01046
-0.00389
0.00291
0.00736
0.00854
0.00553
-0.00130
-0.00807
-0.00930
-0.00324
0.00604
0.01228
0.01198
0.00624
-0.00135
-0.00763
-0.01086
-0.00992
-0.00459
0.00281
0.00753
0.00598
-0.00051
-0.00665
-0.00835
-0.00595
-0.00182
0.00303
0.00812
0.01095
0.00887
0.00303
-0.00234
-0.00444
-0.00361
-0.00110
0.00214
0.00412
0.00223
-0.00354
-0.00915
-0.00982
-0.00459
0.00304
0.00864
0.00991
0.00656
-0.00086
-0.01006
-0.01610
-0.01425
-0.00495
0.00573
0.01173
0.01200
0.00901
0.00457
-0.00041
-0.00360
-0.00212
0.00396
0.01076
0.01363
0.01019
0.00162
-0.00800
-0.01433
-0.01565
-0.01265
-0.00680
-0.00125
-0.00104
-0.00833
-0.01768
-0.02035
-0.01331
-0.00111
0.01041
0.01848
0.02240
0.02290
0.02292
0.02503
0.02751
0.02601
0.01907
0.00864
-0.00399
-0.01880
-0.03370
-0.04398
-0.04579
-0.03918
-0.02795
-0.01719
-0.01026
-0.00746
-0.00670
-0.00493
0.00057
0.01057
0.02325
0.03568
0.04537
0.05013
0.04826
0.04096
0.03317
0.02948
0.02921
0.02691
0.01793
0.00211
-0.01818
-0.04162
-0.06713
-0.09007
-0.10403
-0.11054
-0.12272
-0.14932
-0.17394
-0.16135
-0.08996
0.03196
0.18481
0.35091
0.49307
0.54151
0.43990
0.21212
-0.04121
-0.22688
-0.32713
-0.37781
-0.40237
-0.39011
-0.32619
-0.21622
-0.08176
0.05030
0.15400
0.21451
0.23530
0.22907
0.20395
0.16293
0.11160
0.05917
0.01381
-0.01953
-0.03987
-0.05160
-0.06142
-0.07158
-0.07849
-0.07871
-0.07266
-0.06168
-0.04581
-0.02622
-0.00678
0.00839
0.01733
0.02006
0.01857
0.01741
0.02130
0.03044
0.03926
0.04109
0.03360
0.01975
0.00505
-0.00546
-0.00944
-0.00847
-0.00685
-0.00780
-0.01070
-0.01298
-0.01401
-0.01520
-0.01602
-0.01301
-0.00454
0.00514
0.00909
0.00474
-0.00350
-0.00861
-0.00689
0.00042
0.00933
0.01552
0.01632
0.01214
0.00547
-0.00168
-0.00746
-0.00865
-0.00363
0.00362
0.00683
0.00441
-0.00062
-0.00592
-0.01029
-0.01065
-0.00449
0.00479
0.00981
0.00744
0.00157
-0.00308
-0.00605
-0.00818
-0.00744
-0.00151
0.00685
0.01107
0.00804
0.00119
-0.00451
-0.00741
-0.00743
-0.00330
0.00483
0.01192
0.01171
0.00383
-0.00556
-0.01040
-0.00968
-0.00552
0.00060
0.00713
0.01042
0.00739
-0.00002
-0.00626
-0.00829
-0.00707
-0.00332
0.00313
0.00888
0.00805
0.00026
-0.00751
-0.00943
-0.00632
-0.00120
0.00493
0.01034
0.01087
0.00460
-0.00445
-0.01018
-0.01026
-0.00617
0.00062
0.00897
0.01514
0.01379
0.00406
-0.00773
-0.01372
-0.01153
-0.00462
0.00226
0.00618
0.00590
0.00165
-0.00453
-0.00907
-0.00877
-0.00315
0.00482
0.01047
0.01062
0.00567
-0.00088
-0.00494
-0.00484
-0.00217
0.00080
0.00364
0.00636
0.00655
0.00161
-0.00627
-0.01081
-0.00846
-0.00150
0.00538
0.00851
0.00545
-0.00349
-0.01272
-0.01472
-0.00806
0.00094
0.00624
0.00820
0.00919
0.00808
0.00334
-0.00175
-0.00208
0.00291
0.00925
0.01293
0.01210
0.00703
-0.00038
-0.00810
-0.01494
-0.01905
-0.01761
-0.01079
-0.00403
-0.00316
-0.00802
-0.01319
-0.01360
-0.00797
0.00197
0.01321
0.02268
0.02823
0.02942
0.02729
0.02317
0.01766
0.01109
0.00478
0.00019
-0.00427
-0.01319
-0.02813
-0.04331
-0.05004
-0.04478
-0.03121
-0.01598
-0.00433
0.00158
0.00264
0.00204
0.00385
0.01122
0.02432
0.03933
0.05041
0.05396
0.05070
0.04380
0.03569
0.02761
0.02077
0.01519
0.00757
-0.00690
-0.02966
-0.05752
-0.08538
-0.10792
-0.12214
-0.13307
-0.15050
-0.17012
-0.16402
-0.10447
0.00776
0.15244
0.31436
0.46942
0.55311
0.48942
0.27517
0.00723
-0.20187
-0.31855
-0.37869
-0.41023
-0.40252
-0.34140
-0.23633
-0.10867
0.02164
0.13289
0.20485
0.23285
0.22918
0.20775
0.17421
0.13042
0.08064
0.03122
-0.01157
-0.04247
-0.05937
-0.06540
-0.06698
-0.06866
-0.07067
-0.07058
-0.06612
-0.05619
-0.04082
-0.02176
-0.00284
0.01198
0.02149
0.02673
0.02856
0.02823
0.02899
0.03306
0.03747
0.03644
0.02787
0.01453
0.00059
-0.01012
-0.01447
-0.01247
-0.00827
-0.00650
-0.00866
-0.01365
-0.01926
-0.02254
-0.02066
-0.01284
-0.00100
0.01027
0.01496
0.01017
0.00039
-0.00580
-0.00453
0.00090
0.00662
0.01220
0.01667
0.01588
0.00766
-0.00342
-0.01022
-0.01040
-0.00665
-0.00164
0.00313
0.00506
0.00199
-0.00382
-0.00755
-0.00751
-0.00531
-0.00142
0.00441
0.00915
0.00823
0.00174
-0.00513
-0.00817
-0.00707
-0.00273
0.00394
0.00984
0.01016
0.00339
-0.00580
-0.01084
-0.00948
-0.00426
0.00202
0.00825
0.01260
0.01139
0.00333
-0.00678
-0.01176
-0.00880
-0.00104
0.00627
0.00913
0.00606
-0.00107
-0.00788
-0.01037
-0.00733
-0.00036
0.00671
0.00930
0.00558
-0.00149
-0.00721
-0.00941
-0.00803
-0.00274
0.00568
0.01273
0.01314
0.00650
-0.00255
-0.00897
-0.01013
-0.00587
0.00149
0.00806
0.01074
0.00867
0.00254
-0.00549
-0.01141
-0.01159
-0.00623
0.00087
0.00586
0.00702
0.00418
-0.00167
-0.00774
-0.00991
-0.00575
0.00274
0.01015
0.01210
0.00818
0.00102
-0.00553
-0.00789
-0.00479
0.00159
0.00732
0.00935
0.00661
-0.00001
-0.00752
-0.01204
-0.01110
-0.00501
0.00314
0.00853
0.00734
-0.00027
-0.00959
-0.01441
-0.01145
-0.00237
0.00797
0.01514
0.01703
0.01319
0.00489
-0.00348
-0.00608
-0.00138
0.00575
0.00952
0.00856
0.00403
-0.00380
-0.01364
-0.02105
-0.02163
-0.01541
-0.00650
0.00030
0.00200
-0.00136
-0.00663
-0.00931
-0.00622
0.00333
0.01737
0.03115
0.03847
0.03561
0.02480
0.01242
0.00329
-0.00262
-0.00757
-0.01229
-0.01647
-0.02184
-0.03072
-0.04071
-0.04439
-0.03707
-0.02231
-0.00762
0.00287
0.00878
0.01036
0.00937
0.01094
0.01977
0.03486
0.05014
0.05949
0.06010
0.05262
0.03988
0.02539
0.01215
0.00147
-0.00790
-0.01901
-0.03458
-0.05586
-0.08141
-0.10643
-0.12771
-0.14967
-0.17493
-0.18605
-0.15171
-0.06022
0.06854
0.21268
0.36499
0.49870
0.54267
0.43500
0.20205
-0.05073
-0.23556
-0.34406
-0.40857
-0.43804
-0.41379
-0.32667
-0.19372
-0.04585
0.08601
0.17860
0.22374
0.22994
0.21289
0.18455
0.15058
0.11310
0.07282
0.03052
-0.01093
-0.04638
-0.07075
-0.08181
-0.08132
-0.07392
-0.06492
-0.05806
-0.05421
-0.05088
-0.04301
-0.02646
-0.00261
0.02101
0.03613
0.03963
0.03472
0.02771
0.02402
0.02495
0.02768
0.02870
0.02657
0.02071
0.00979
-0.00587
-0.02120
-0.02873
-0.02502
-0.01405
-0.00403
-0.00103
-0.00518
-0.01210
-0.01679
-0.01623
-0.00991
-0.00019
0.00853
0.01276
0.01216
0.00827
0.00289
-0.00120
-0.00062
0.00494
0.01092
0.01206
0.00739
-0.00022
-0.00746
-0.01183
-0.01123
-0.00545
0.00241
0.00793
0.00874
0.00510
-0.00167
-0.00907
-0.01270
-0.00909
-0.00019
0.00747
0.00919
0.00590
0.00107
-0.00339
-0.00666
-0.00711
-0.00350
0.00275
0.00808
0.00939
0.00583
-0.00096
-0.00732
-0.00915
-0.00492
0.00256
0.00827
0.00932
0.00619
0.00058
-0.00548
-0.00900
-0.00771
-0.00285
0.00182
0.00382
0.00306
0.00002
-0.00449
-0.00780
-0.00589
0.00261
0.01327
0.01819
0.01288
0.00048
-0.01146
-0.01737
-0.01591
-0.00833
0.00211
0.01025
0.01189
0.00723
0.00004
-0.00607
-0.00884
-0.00656
0.00056
0.00859
0.01258
0.01106
0.00572
-0.00182
-0.00971
-0.01386
-0.01044
-0.00123
0.00675
0.00795
0.00309
-0.00309
-0.00714
-0.00822
-0.00621
-0.00113
0.00526
0.00949
0.00888
0.00374
-0.00267
-0.00582
-0.00270
0.00533
0.01252
0.01310
0.00628
-0.00352
-0.01137
-0.01527
-0.01505
-0.01031
-0.00156
0.00752
0.01140
0.00733
-0.00172
-0.00919
-0.01015
-0.00475
0.00285
0.00797
0.00831
0.00488
0.00092
-0.00102
-0.00061
0.00176
0.00668
0.01358
0.01797
0.01424
0.00222
-0.01132
-0.01895
-0.01899
-0.01466
-0.00923
-0.00428
-0.00203
-0.00556
-0.01434
-0.02158
-0.01936
-0.00661
0.01023
0.02405
0.03190
0.03367
0.03031
0.02485
0.02129
0.01983
0.01594
0.00643
-0.00631
-0.01848
-0.03006
-0.04179
-0.04952
-0.04710
-0.03477
-0.02030
-0.01099
-0.00746
-0.00565
-0.00203
0.00473
0.01499
0.02857
0.04338
0.05493
0.05894
0.05442
0.04423
0.03305
0.02502
0.02140
0.01878
0.01110
-0.00502
-0.02800
-0.05444
-0.08135
-0.10397
-0.11739
-0.12499
-0.13877
-0.16071
-0.16738
-0.12657
-0.02976
0.10556
0.26156
0.42063
0.53350
0.52296
0.35478
0.09311
-0.14567
-0.29344
-0.36401
-0.39666
-0.40054
-0.36142
-0.27479
-0.15487
-0.02386
0.09485
0.18070
0.22467
0.23325
0.21918
0.19008
0.14829
0.09791
0.04698
0.00312
-0.03011
-0.05265
-0.06618
-0.07290
-0.07484
-0.07352
-0.07024
-0.06545
-0.05778
-0.04480
-0.02615
-0.00537
0.01207
0.02260
0.02641
0.02638
0.02586
0.02705
0.02996
0.03243
0.03163
0.02609
0.01649
0.00526
-0.00428
-0.00944
-0.00992
-0.00795
-0.00655
-0.00772
-0.01170
-0.01665
-0.01938
-0.01772
-0.01212
-0.00465
0.00256
0.00718
0.00705
0.00258
-0.00242
-0.00396
-0.00097
0.00532
0.01275
0.01796
0.01730
0.01032
0.00055
-0.00798
-0.01282
-0.01200
-0.00510
0.00381
0.00817
0.00532
-0.00177
-0.00895
-0.01342
-0.01256
-0.00521
0.00529
0.01270
0.01346
0.00841
0.00038
-0.00694
-0.00895
-0.00340
0.00612
0.01217
0.00992
0.00061
-0.01035
-0.01712
-0.01610
-0.00785
0.00284
0.01030
0.01214
0.00925
0.00337
-0.00316
-0.00676
-0.00459
0.00231
0.00943
0.01206
0.00826
0.00002
-0.00791
-0.01148
-0.01013
-0.00604
-0.00150
0.00205
0.00328
0.00133
-0.00286
-0.00654
-0.00664
-0.00200
0.00543
0.01146
0.01269
0.00888
0.00209
-0.00518
-0.01007
-0.00935
-0.00233
0.00680
0.01172
0.00956
0.00225
-0.00618
-0.01173
-0.01135
-0.00503
0.00331
0.00874
0.00866
0.00326
-0.00518
-0.01237
-0.01371
-0.00812
0.00098
0.00885
0.01261
0.01133
0.00568
-0.00145
-0.00578
-0.00494
-0.00031
0.00491
0.00823
0.00794
0.00290
-0.00519
-0.01085
-0.00948
-0.00295
0.00257
0.00390
0.00269
0.00046
-0.00365
-0.00912
-0.01190
-0.00847
-0.00033
0.00729
0.01019
0.00804
0.00328
-0.00130
-0.00334
-0.00090
0.00584
0.01292
0.01512
0.01106
0.00379
-0.00350
-0.00951
-0.01254
-0.01033
-0.00402
0.00100
0.00036
-0.00508
-0.01124
-0.01534
-0.01669
-0.01454
-0.00767
0.00285
0.01203
0.01467
0.01116
0.00786
0.01057
0.01901
0.02808
0.03253
0.02956
0.01920
0.00384
-0.01295
-0.02729
-0.03541
-0.03526
-0.02932
-0.02376
-0.02286
-0.02509
-0.02612
-0.02365
-0.01738
-0.00630
0.01004
0.02774
0.03970
0.04227
0.03897
0.03635
0.03784
0.04240
0.04715
0.04910
0.04494
0.03151
0.00849
-0.01923
-0.04395
-0.06156
-0.07422
-0.08567
-0.09795
-0.11569
-0.14573
-0.18214
-0.19532
-0.15071
-0.04160
0.10712
0.26747
0.41977
0.52666
0.52392
0.37381
0.12462
-0.11551
-0.27265
-0.35346
-0.39646
-0.41073
-0.37933
-0.29705
-0.17938
-0.04595
0.08416
0.18686
0.24167
0.24772
0.22191
0.18163
0.13566
0.08927
0.04852
0.01670
-0.00873
-0.03250
-0.05605
-0.07648
-0.08944
-0.09164
-0.08259
-0.06585
-0.04771
-0.03250
-0.02031
-0.00970
-0.00045
0.00809
0.01820
0.03053
0.04134
0.04556
0.04163
0.03186
0.01958
0.00809
0.00090
-0.00004
0.00333
0.00585
0.00323
-0.00455
-0.01364
-0.01971
-0.02074
-0.01727
-0.01103
-0.00425
0.00039
0.00075
-0.00299
-0.00781
-0.00959
-0.00605
0.00169
0.01016
0.01600
0.01719
0.01281
0.00386
-0.00533
-0.00904
-0.00531
0.00190
0.00686
0.00711
0.00381
-0.00131
-0.00685
-0.01039
-0.00880
-0.00168
0.00670
0.01037
0.00678
-0.00122
-0.00826
-0.01071
-0.00841
-0.00295
0.00409
0.01056
0.01286
0.00810
-0.00203
-0.01131
-0.01376
-0.00834
0.00078
0.00769
0.00908
0.00581
0.00054
-0.00464
-0.00774
-0.00590
0.00178
0.01102
0.01494
0.01035
0.00056
-0.00821
-0.01187
-0.01020
-0.00514
0.00118
0.00619
0.00665
0.00136
-0.00601
-0.00988
-0.00840
-0.00363
0.00251
0.00863
0.01152
0.00838
0.00142
-0.00397
-0.00540
-0.00430
-0.00152
0.00355
0.00885
0.00916
0.00190
-0.00838
-0.01358
-0.01001
-0.00141
0.00580
0.00870
0.00801
0.00442
-0.00172
-0.00775
-0.00951
-0.00555
0.00133
0.00686
0.00814
0.00454
-0.00212
-0.00809
-0.00986
-0.00658
-0.00005
0.00699
0.01172
0.01139
0.00529
-0.00327
-0.00911
-0.00939
-0.00464
0.00295
0.00970
0.01108
0.00534
-0.00382
-0.01047
-0.01152
-0.00756
-0.00072
0.00590
0.00854
0.00533
-0.00163
-0.00806
-0.01087
-0.00896
-0.00254
0.00610
0.01218
0.01169
0.00554
-0.00111
-0.00381
-0.00175
0.00361
0.01004
0.01419
0.01238
0.00368
-0.00830
-0.01746
-0.01941
-0.01419
-0.00601
-0.00060
-0.00167
-0.00815
-0.01458
-0.01532
-0.00930
0.00010
0.00942
0.01780
0.02514
0.02962
0.02894
0.02334
0.01597
0.00995
0.00587
0.00226
-0.00295
-0.01153
-0.02353
-0.03564
-0.04261
-0.04146
-0.03348
-0.02213
-0.01065
-0.00190
0.00214
0.00252
0.00319
0.00778
0.01711
0.02987
0.04334
0.05315
0.05533
0.04984
0.04068
0.03189
0.02466
0.01808
0.01019
-0.00205
-0.02134
-0.04693
-0.07402
-0.09720
-0.11501
-0.13183
-0.15313
-0.17427
-0.17453
-0.12984
-0.03406
0.09912
0.25380
0.41212
0.52842
0.53032
0.37961
0.12844
-0.11436
-0.27739
-0.36641
-0.41433
-0.42596
-0.38527
-0.29070
-0.16175
-0.02337
0.10066
0.18848
0.22972
0.23270
0.21432
0.18474
0.14562
0.09903
0.05130
0.00911
-0.02397
-0.04695
-0.06028
-0.06636
-0.06931
-0.07241
-0.07517
-0.07367
-0.06452
-0.04798
-0.02725
-0.00606
0.01183
0.02266
0.02494
0.02178
0.01911
0.02113
0.02759
0.03474
0.03813
0.03495
0.02508
0.01117
-0.00215
-0.01039
-0.01202
-0.00927
-0.00602
-0.00570
-0.01001
-0.01753
-0.02373
-0.02464
-0.02004
-0.01181
-0.00121
0.00970
0.01611
0.01379
0.00444
-0.00454
-0.00634
-0.00014
0.00929
0.01608
0.01680
0.01140
0.00248
-0.00611
-0.01072
-0.00937
-0.00304
0.00409
0.00708
0.00406
-0.00263
-0.00896
-0.01190
-0.01030
-0.00491
0.00190
0.00736
0.00960
0.00765
0.00172
-0.00539
-0.00846
-0.00439
0.00369
0.00921
0.00918
0.00548
0.00010
-0.00658
-0.01216
-0.01187
-0.00435
0.00522
0.01020
0.00855
0.00284
-0.00328
-0.00681
-0.00578
-0.00037
0.00649
0.01070
0.00961
0.00317
-0.00603
-0.01359
-0.01517
-0.00907
0.00204
0.01205
0.01513
0.00987
-0.00001
-0.00899
-0.01330
-0.01164
-0.00473
0.00418
0.01023
0.01024
0.00513
-0.00125
-0.00519
-0.00484
-0.00073
0.00446
0.00740
0.00635
0.00189
-0.00403
-0.00884
-0.00982
-0.00557
0.00221
0.00904
0.01042
0.00494
-0.00450
-0.01254
-0.01474
-0.00998
-0.00044
0.00945
0.01476
0.01290
0.00574
-0.00201
-0.00651
-0.00652
-0.00270
0.00303
0.00764
0.00827
0.00393
-0.00362
-0.01055
-0.01292
-0.00945
-0.00229
0.00502
0.00948
0.00899
0.00329
-0.00445
-0.00924
-0.00873
-0.00467
-0.00008
0.00343
0.00522
0.00496
0.00314
0.00141
0.00170
0.00493
0.00993
0.01357
0.01268
0.00640
-0.00309
-0.01184
-0.01659
-0.01640
-0.01258
-0.00749
-0.00401
-0.00482
-0.00994
-0.01521
-0.01510
-0.00769
0.00434
0.01673
0.02602
0.03007
0.02867
0.02376
0.01799
0.01325
0.01021
0.00769
0.00266
-0.00713
-0.02020
-0.03255
-0.04093
-0.04315
-0.03737
-0.02473
-0.01154
-0.00455
-0.00409
-0.00485
-0.00233
0.00449
0.01539
0.02942
0.04337
0.05281
0.05477
0.04897
0.03811
0.02767
0.02249
0.02170
0.01861
0.00704
-0.01313
-0.03747
-0.06192
-0.08404
-0.10138
-0.11394
-0.12809
-0.14967
-0.16820
-0.15593
-0.09157
0.02091
0.16414
0.32319
0.46870
0.53583
0.45904
0.24474
-0.01363
-0.21334
-0.32312
-0.37487
-0.39741
-0.38560
-0.32582
-0.22280
-0.09649
0.03018
0.13551
0.20389
0.23326
0.23276
0.21113
0.17240
0.12161
0.06760
0.01860
-0.02047
-0.04649
-0.05911
-0.06328
-0.06617
-0.07057
-0.07392
-0.07285
-0.06563
-0.05156
-0.03191
-0.01091
0.00684
0.01911
0.02537
0.02581
0.02312
0.02218
0.02561
0.03100
0.03387
0.03143
0.02327
0.01085
-0.00210
-0.01060
-0.01199
-0.00853
-0.00524
-0.00533
-0.00841
-0.01267
-0.01678
-0.01926
-0.01787
-0.01113
-0.00074
0.00825
0.01072
0.00590
-0.00141
-0.00501
-0.00262
0.00343
0.00969
0.01396
0.01467
0.01050
0.00217
-0.00636
-0.01019
-0.00741
-0.00086
0.00445
0.00550
0.00309
-0.00060
-0.00475
-0.00891
-0.01078
-0.00777
-0.00071
0.00606
0.00847
0.00572
0.00033
-0.00396
-0.00497
-0.00269
0.00222
0.00850
0.01220
0.00867
-0.00126
-0.01053
-0.01342
-0.01063
-0.00524
0.00145
0.00765
0.00930
0.00467
-0.00217
-0.00575
-0.00450
0.00001
0.00600
0.01093
0.01124
0.00559
-0.00299
-0.00995
-0.01246
-0.00946
-0.00181
0.00612
0.00823
0.00278
-0.00530
-0.00997
-0.00973
-0.00618
-0.00002
0.00808
0.01437
0.01410
0.00704
-0.00183
-0.00721
-0.00721
-0.00308
0.00245
0.00611
0.00560
0.00120
-0.00451
-0.00867
-0.00953
-0.00641
0.00007
0.00717
0.01051
0.00734
-0.00044
-0.00752
-0.00988
-0.00747
-0.00231
0.00396
0.00928
0.01027
0.00511
-0.00286
-0.00746
-0.00577
-0.00010
0.00582
0.00961
0.00945
0.00391
-0.00558
-0.01389
-0.01550
-0.00898
0.00170
0.00998
0.01137
0.00610
-0.00207
-0.00899
-0.01201
-0.01008
-0.00366
0.00477
0.01117
0.01236
0.00833
0.00214
-0.00244
-0.00305
0.00073
0.00721
0.01251
0.01224
0.00524
-0.00468
-0.01211
-0.01464
-0.01351
-0.01098
-0.00851
-0.00663
-0.00572
-0.00651
-0.00893
-0.01042
-0.00708
0.00211
0.01366
0.02274
0.02652
0.02493
0.02054
0.01740
0.01727
0.01705
0.01240
0.00277
-0.00911
-0.02126
-0.03277
-0.04090
-0.04198
-0.03579
-0.02631
-0.01724
-0.00931
-0.00295
0.00016
0.00080
0.00409
0.01390
0.02753
0.03918
0.04644
0.04975
0.04839
0.04167
0.03283
0.02689
0.02460
0.02131
0.01184
-0.00527
-0.02844
-0.05504
-0.08134
-0.10229
-0.11641
-0.13074
-0.15348
-0.17633
-0.17071
-0.11127
0.00008
0.14224
0.29821
0.44766
0.53755
0.49659
0.30706
0.04538
-0.17778
-0.31132
-0.37776
-0.40898
-0.40346
-0.34747
-0.24603
-0.12002
0.00878
0.12005
0.19590
0.23024
0.23178
0.21276
0.17887
0.13243
0.07981
0.03084
-0.00781
-0.03521
-0.05296
-0.06276
-0.06736
-0.07033
-0.07299
-0.07330
-0.06864
-0.05787
-0.04090
-0.01929
0.00207
0.01703
0.02300
0.02250
0.02041
0.02106
0.02651
0.03498
0.04128
0.04069
0.03202
0.01740
0.00082
-0.01252
-0.01821
-0.01610
-0.01068
-0.00732
-0.00836
-0.01285
-0.01827
-0.02145
-0.01956
-0.01195
-0.00129
0.00801
0.01261
0.01153
0.00636
0.00067
-0.00151
0.00179
0.00863
0.01410
0.01377
0.00730
-0.00143
-0.00798
-0.01056
-0.00956
-0.00567
-0.00004
0.00467
0.00546
0.00174
-0.00389
-0.00764
-0.00729
-0.00310
0.00267
0.00695
0.00762
0.00472
0.00023
-0.00325
-0.00391
-0.00169
0.00192
0.00490
0.00558
0.00300
-0.00232
-0.00784
-0.01037
-0.00832
-0.00260
0.00405
0.00831
0.00774
0.00269
-0.00354
-0.00693
-0.00540
0.00000
0.00594
0.00936
0.00967
0.00762
0.00283
-0.00469
-0.01120
-0.01165
-0.00596
0.00065
0.00392
0.00367
0.00099
-0.00342
-0.00735
-0.00725
-0.00192
0.00570
0.01103
0.01106
0.00567
-0.00218
-0.00774
-0.00774
-0.00270
0.00429
0.00975
0.01046
0.00470
-0.00523
-0.01313
-0.01414
-0.00891
-0.00131
0.00596
0.01118
0.01137
0.00502
-0.00371
-0.00813
-0.00659
-0.00280
0.00058
0.00379
0.00567
0.00310
-0.00356
-0.00863
-0.00721
-0.00060
0.00640
0.01109
0.01290
0.01012
0.00128
-0.01005
-0.01611
-0.01254
-0.00288
0.00567
0.00891
0.00695
0.00155
-0.00498
-0.00930
-0.00851
-0.00306
0.00365
0.00848
0.00951
0.00519
-0.00364
-0.01138
-0.01160
-0.00420
0.00464
0.00992
0.01147
0.01048
0.00690
0.00164
-0.00233
-0.00287
-0.00052
0.00282
0.00475
0.00246
-0.00481
-0.01368
-0.01926
-0.01941
-0.01505
-0.00800
-0.00060
0.00406
0.00410
0.00081
-0.00178
0.00064
0.00993
0.02379
0.03645
0.04178
0.03633
0.02094
0.00112
-0.01515
-0.02296
-0.02413
-0.02401
-0.02574
-0.02908
-0.03275
-0.03513
-0.03358
-0.02592
-0.01285
0.00224
0.01561
0.02462
0.02808
0.02744
0.02734
0.03233
0.04193
0.05068
0.05358
0.04972
0.04009
0.02515
0.00636
-0.01202
-0.02611
-0.03703
-0.05024
-0.06902
-0.09056
-0.11194
-0.13729
-0.16981
-0.19343
-0.17441
-0.09185
0.04046
0.19129
0.33898
0.46251
0.51565
0.44455
0.24875
0.00524
-0.19170
-0.30787
-0.37042
-0.40546
-0.40339
-0.34489
-0.23363
-0.09472
0.04215
0.15060
0.21307
0.22927
0.21459
0.18604
0.15229
0.11615
0.07960
0.04376
0.00815
-0.02682
-0.05755
-0.07890
-0.08780
-0.08522
-0.07521
-0.06224
-0.04955
-0.03882
-0.03006
-0.02139
-0.01034
0.00369
0.01857
0.03109
0.03875
0.04019
0.03550
0.02698
0.01857
0.01347
0.01235
0.01349
0.01338
0.00811
-0.00292
-0.01482
-0.02126
-0.02056
-0.01553
-0.00894
-0.00265
0.00048
-0.00188
-0.00818
-0.01381
-0.01491
-0.01000
-0.00035
0.00969
0.01493
0.01371
0.00873
0.00337
-0.00079
-0.00260
-0.00048
0.00534
0.01088
0.01089
0.00389
-0.00591
-0.01222
-0.01201
-0.00693
-0.00027
0.00563
0.00874
0.00674
-0.00027
-0.00774
-0.01037
-0.00759
-0.00285
0.00143
0.00523
0.00768
0.00613
0.00018
-0.00589
-0.00668
-0.00125
0.00586
0.00915
0.00693
0.00150
-0.00419
-0.00837
-0.00963
-0.00658
0.00033
0.00748
0.01022
0.00669
-0.00031
-0.00573
-0.00648
-0.00332
0.00114
0.00500
0.00706
0.00595
0.00111
-0.00539
-0.00956
-0.00858
-0.00327
0.00286
0.00647
0.00601
0.00167
-0.00459
-0.00893
-0.00791
-0.00193
0.00463
0.00785
0.00751
0.00563
0.00326
0.00021
-0.00269
-0.00304
0.00041
0.00507
0.00636
0.00238
-0.00432
-0.00979
-0.01181
-0.00994
-0.00457
0.00265
0.00836
0.00920
0.00463
-0.00210
-0.00646
-0.00628
-0.00224
0.00387
0.00954
0.01117
0.00667
-0.00114
-0.00681
-0.00773
-0.00513
-0.00070
0.00415
0.00672
0.00474
-0.00063
-0.00599
-0.00907
-0.00872
-0.00389
0.00439
0.01122
0.01122
0.00400
-0.00544
-0.01156
-0.01271
-0.01021
-0.00491
0.00313
0.01133
0.01443
0.01021
0.00325
-0.00001
0.00177
0.00542
0.00839
0.00960
0.00696
-0.00138
-0.01259
-0.01963
-0.01806
-0.01067
-0.00408
-0.00216
-0.00411
-0.00758
-0.01111
-0.01302
-0.01001
0.00033
0.01494
0.02615
0.02930
0.02730
0.02526
0.02293
0.01664
0.00683
-0.00127
-0.00515
-0.00825
-0.01456
-0.02357
-0.03186
-0.03655
-0.03599
-0.03006
-0.02111
-0.01290
-0.00775
-0.00524
-0.00279
0.00302
0.01422
0.02911
0.04343
0.05376
0.05827
0.05534
0.04539
0.03369
0.02646
0.02326
0.01706
0.00305
-0.01621
-0.03611
-0.05658
-0.07936
-0.10171
-0.12003
-0.13897
-0.16508
-0.18593
-0.16858
-0.09168
0.03120
0.17350
0.32437
0.46757
0.54342
0.47773
0.26688
0.00355
-0.20516
-0.32531
-0.38604
-0.41174
-0.39690
-0.33370
-0.23073
-0.10445
0.02607
0.13623
0.20537
0.23188
0.22914
0.20806
0.17211
0.12572
0.07685
0.03114
-0.00922
-0.04107
-0.06086
-0.06957
-0.07256
-0.07377
-0.07320
-0.06977
-0.06326
-0.05294
-0.03724
-0.01662
0.00446
0.01999
0.02702
0.02745
0.02557
0.02444
0.02485
0.02642
0.02839
0.02906
0.02576
0.01700
0.00490
-0.00581
-0.01178
-0.01304
-0.01137
-0.00870
-0.00731
-0.00901
-0.01316
-0.01706
-0.01835
-0.01583
-0.00881
0.00147
0.01047
0.01318
0.00896
0.00232
-0.00143
-0.00029
0.00428
0.00938
0.01210
0.01033
0.00429
-0.00292
-0.00759
-0.00822
-0.00569
-0.00140
0.00327
0.00595
0.00385
-0.00294
-0.00966
-0.01037
-0.00407
0.00412
0.00838
0.00744
0.00383
-0.00012
-0.00379
-0.00669
-0.00731
-0.00438
0.00114
0.00585
0.00648
0.00279
-0.00225
-0.00496
-0.00347
0.00157
0.00745
0.01053
0.00840
0.00184
-0.00573
-0.01100
-0.01257
-0.01015
-0.00396
0.00434
0.01098
0.01201
0.00653
-0.00199
-0.00790
-0.00747
-0.00149
0.00571
0.00951
0.00771
0.00113
-0.00730
-0.01357
-0.01416
-0.00836
0.00083
0.00906
0.01324
0.01165
0.00415
-0.00551
-0.01022
-0.00603
0.00303
0.00969
0.01086
0.00757
0.00076
-0.00815
-0.01452
-0.01366
-0.00622
0.00286
0.00914
0.01017
0.00529
-0.00274
-0.00827
-0.00771
-0.00252
0.00334
0.00694
0.00724
0.00459
0.00016
-0.00468
-0.00789
-0.00666
-0.00040
0.00691
0.00990
0.00722
0.00181
-0.00289
-0.00541
-0.00566
-0.00388
-0.00043
0.00341
0.00515
0.00271
-0.00340
-0.00987
-0.01261
-0.00929
-0.00134
0.00645
0.00944
0.00693
0.00194
-0.00185
-0.00215
0.00168
0.00824
0.01437
0.01686
0.01372
0.00474
-0.00718
-0.01578
-0.01608
-0.00993
-0.00408
-0.00264
-0.00446
-0.00793
-0.01329
-0.01881
-0.01903
-0.01042
0.00314
0.01372
0.01757
0.01774
0.01852
0.02030
0.02164
0.02312
0.02544
0.02510
0.01684
0.00063
-0.01727
-0.03088
-0.03854
-0.04027
-0.03568
-0.02684
-0.01925
-0.01673
-0.01759
-0.01767
-0.01411
-0.00532
0.00897
0.02543
0.03858
0.04588
0.04859
0.04778
0.04353
0.03801
0.03505
0.03507
0.03343
0.02460
0.00722
-0.01533
-0.03867
-0.06083
-0.08074
-0.09575
-0.10619
-0.12200
-0.15335
-0.18767
-0.18710
-0.12246
-0.00267
0.14317
0.30011
0.45470
0.55216
0.51108
0.31020
0.03666
-0.18594
-0.30732
-0.36264
-0.39334
-0.39729
-0.35504
-0.26566
-0.14430
-0.00961
0.11483
0.20338
0.24387
0.24365
0.21728
0.17522
0.12536
0.07636
0.03464
0.00134
-0.02500
-0.04531
-0.06059
-0.07273
-0.08231
-0.08696
-0.08331
-0.07015
-0.04950
-0.02618
-0.00617
0.00656
0.01225
0.01411
0.01553
0.01905
0.02574
0.03377
0.03873
0.03700
0.02850
0.01631
0.00486
-0.00205
-0.00318
-0.00069
0.00146
0.00010
-0.00574
-0.01476
-0.02346
-0.02707
-0.02252
-0.01160
-0.00024
0.00609
0.00624
0.00273
-0.00161
-0.00491
-0.00492
0.00028
0.00865
0.01437
0.01375
0.00854
0.00235
-0.00270
-0.00478
-0.00230
0.00330
0.00790
0.00867
0.00519
-0.00217
-0.01128
-0.01697
-0.01480
-0.00593
0.00397
0.00980
0.00949
0.00360
-0.00484
-0.01048
-0.00871
-0.00028
0.00826
0.01082
0.00775
0.00351
-0.00006
-0.00411
-0.00734
-0.00571
0.00069
0.00583
0.00534
0.00161
-0.00149
-0.00429
-0.00773
-0.00835
-0.00218
0.00804
0.01416
0.01123
0.00192
-0.00730
-0.01174
-0.01011
-0.00340
0.00544
0.01153
0.01065
0.00298
-0.00665
-0.01274
-0.01269
-0.00724
0.00080
0.00786
0.01091
0.00877
0.00259
-0.00442
-0.00815
-0.00591
0.00128
0.00890
0.01212
0.00913
0.00187
-0.00605
-0.01141
-0.01188
-0.00666
0.00167
0.00788
0.00841
0.00376
-0.00363
-0.01067
-0.01274
-0.00649
0.00461
0.01209
0.01137
0.00548
-0.00076
-0.00560
-0.00810
-0.00589
0.00163
0.01030
0.01385
0.00964
0.00082
-0.00716
-0.01128
-0.01132
-0.00695
0.00154
0.00933
0.00947
0.00116
-0.00853
-0.01294
-0.01135
-0.00563
0.00293
0.01100
0.01307
0.00734
-0.00137
-0.00708
-0.00784
-0.00417
0.00358
0.01338
0.01988
0.01788
0.00731
-0.00594
-0.01415
-0.01328
-0.00582
0.00129
0.00260
-0.00189
-0.00866
-0.01512
-0.02010
-0.02142
-0.01645
-0.00572
0.00613
0.01415
0.01674
0.01588
0.01506
0.01731
0.02334
0.03029
0.03254
0.02568
0.01020
-0.00908
-0.02640
-0.03719
-0.03891
-0.03275
-0.02362
-0.01663
-0.01399
-0.01539
-0.01887
-0.02048
-0.01598
-0.00453
0.01064
0.02517
0.03565
0.03990
0.03837
0.03518
0.03527
0.03970
0.04479
0.04558
0.03900
0.02446
0.00342
-0.02047
-0.04244
-0.05924
-0.07055
-0.07844
-0.08857
-0.11089
-0.15036
-0.19063
-0.19509
-0.13621
-0.02060
0.12512
0.28378
0.43853
0.53680
0.50348
0.31836
0.06061
-0.15525
-0.28032
-0.34507
-0.38704
-0.40187
-0.36671
-0.27785
-0.15184
-0.01127
0.11741
0.20679
0.24378
0.23761
0.20701
0.16467
0.11730
0.07229
0.03609
0.00876
-0.01445
-0.03672
-0.05747
-0.07464
-0.08608
-0.08910
-0.08153
-0.06434
-0.04245
-0.02226
-0.00835
-0.00129
0.00240
0.00762
0.01656
0.02715
0.03573
0.04004
0.03901
0.03207
0.02043
0.00799
-0.00072
-0.00340
-0.00115
0.00241
0.00307
-0.00142
-0.00940
-0.01633
-0.01853
-0.01565
-0.00967
-0.00295
0.00188
0.00220
-0.00262
-0.00968
-0.01399
-0.01154
-0.00212
0.00967
0.01695
0.01594
0.00899
0.00171
-0.00201
-0.00179
0.00126
0.00619
0.01124
0.01251
0.00623
-0.00613
-0.01715
-0.02003
-0.01452
-0.00495
0.00475
0.01170
0.01292
0.00739
-0.00165
-0.00897
-0.01103
-0.00684
0.00193
0.00999
0.01106
0.00424
-0.00441
-0.00879
-0.00841
-0.00530
0.00057
0.00844
0.01296
0.00901
-0.00082
-0.00849
-0.00932
-0.00485
0.00151
0.00717
0.00932
0.00584
-0.00179
-0.00901
-0.01220
-0.01034
-0.00346
0.00681
0.01486
0.01404
0.00448
-0.00601
-0.01076
-0.00992
-0.00591
0.00053
0.00692
0.00810
0.00286
-0.00323
-0.00521
-0.00425
-0.00263
0.00104
0.00725
0.01131
0.00853
0.00078
-0.00610
-0.00894
-0.00795
-0.00358
0.00276
0.00682
0.00494
-0.00113
-0.00638
-0.00826
-0.00702
-0.00265
0.00444
0.01115
0.01326
0.00909
0.00049
-0.00823
-0.01250
-0.01045
-0.00426
0.00233
0.00702
0.00868
0.00615
0.00004
-0.00569
-0.00657
-0.00196
0.00482
0.00980
0.01022
0.00486
-0.00454
-0.01264
-0.01403
-0.00820
0.00007
0.00528
0.00528
0.00138
-0.00371
-0.00749
-0.00801
-0.00410
0.00334
0.01042
0.01285
0.01010
0.00538
0.00162
-0.00017
0.00071
0.00458
0.00917
0.01034
0.00557
-0.00395
-0.01451
-0.02194
-0.02329
-0.01834
-0.00987
-0.00203
0.00198
0.00122
-0.00282
-0.00685
-0.00707
-0.00092
0.01111
0.02512
0.03593
0.03967
0.03488
0.02281
0.00767
-0.00502
-0.01211
-0.01491
-0.01713
-0.02148
-0.02817
-0.03541
-0.04026
-0.03915
-0.02978
-0.01408
0.00170
0.01163
0.01450
0.01345
0.01279
0.01613
0.02510
0.03799
0.05015
0.05619
0.05261
0.04019
0.02490
0.01364
0.00736
0.00088
-0.00988
-0.02459
-0.04285
-0.06544
-0.08923
-0.10901
-0.12763
-0.15307
-0.17763
-0.17163
-0.11065
-0.00029
0.13770
0.28869
0.43167
0.51292
0.46934
0.29332
0.05627
-0.14923
-0.28253
-0.36001
-0.40299
-0.40561
-0.35300
-0.24817
-0.11325
0.02270
0.13178
0.19588
0.21598
0.20885
0.19071
0.16585
0.13126
0.08769
0.04240
0.00218
-0.03139
-0.05787
-0.07358
-0.07600
-0.06997
-0.06383
-0.06043
-0.05631
-0.04876
-0.03882
-0.02724
-0.01240
0.00566
0.02245
0.03235
0.03389
0.03037
0.02624
0.02392
0.02364
0.02477
0.02571
0.02338
0.01500
0.00140
-0.01245
-0.02089
-0.02155
-0.01625
-0.00924
-0.00488
-0.00540
-0.00958
-0.01381
-0.01499
-0.01205
-0.00525
0.00399
0.01215
0.01481
0.01032
0.00193
-0.00447
-0.00467
0.00100
0.00837
0.01276
0.01216
0.00737
0.00023
-0.00706
-0.01134
-0.00984
-0.00333
0.00366
0.00665
0.00433
-0.00168
-0.00824
-0.01171
-0.00982
-0.00314
0.00556
0.01276
0.01486
0.00961
-0.00119
-0.01112
-0.01348
-0.00713
0.00252
0.00862
0.00853
0.00421
-0.00135
-0.00615
-0.00844
-0.00660
-0.00092
0.00547
0.00856
0.00656
0.00111
-0.00419
-0.00627
-0.00414
0.00078
0.00581
0.00855
0.00765
0.00281
-0.00456
-0.01066
-0.01143
-0.00648
0.00049
0.00560
0.00750
0.00591
0.00057
-0.00669
-0.01117
-0.00919
-0.00175
0.00673
0.01210
0.01211
0.00673
-0.00114
-0.00649
-0.00599
-0.00092
0.00436
0.00662
0.00548
0.00160
-0.00440
-0.01044
-0.01259
-0.00863
-0.00110
0.00525
0.00780
0.00626
0.00121
-0.00491
-0.00769
-0.00475
0.00154
0.00702
0.00957
0.00883
0.00454
-0.00233
-0.00824
-0.00911
-0.00400
0.00387
0.00957
0.00994
0.00542
-0.00133
-0.00771
-0.01147
-0.01044
-0.00460
0.00200
0.00442
0.00184
-0.00268
-0.00624
-0.00725
-0.00406
0.00346
0.01146
0.01454
0.01114
0.00430
-0.00230
-0.00676
-0.00739
-0.00222
0.00751
0.01540
0.01460
0.00504
-0.00624
-0.01272
-0.01391
-0.01267
-0.01028
-0.00682
-0.00435
-0.00578
-0.01067
-0.01441
-0.01263
-0.00493
0.00593
0.01686
0.02569
0.03067
0.03067
0.02625
0.01969
0.01311
0.00676
-0.00006
-0.00710
-0.01362
-0.02033
-0.02862
-0.03717
-0.04103
-0.03605
-0.02385
-0.01113
-0.00342
-0.00068
0.00071
0.00327
0.00756
0.01455
0.02552
0.03882
0.04924
0.05186
0.04608
0.03601
0.02754
0.02391
0.02253
0.01730
0.00497
-0.01271
-0.03366
-0.05760
-0.08184
-0.10076
-0.11510
-0.13513
-0.16442
-0.18258
-0.15669
-0.07302
0.05288
0.19876
0.34950
0.47529
0.51558
0.41881
0.20491
-0.03611
-0.22095
-0.33245
-0.39508
-0.41792
-0.38630
-0.29621
-0.17033
-0.04006
0.07228
0.15375
0.19870
0.21147
0.20351
0.18316
0.15129
0.10799
0.05905
0.01365
-0.02142
-0.04394
-0.05568
-0.06104
-0.06437
-0.06703
-0.06784
-0.06572
-0.05991
-0.04863
-0.03059
-0.00858
0.01096
0.02275
0.02596
0.02342
0.01957
0.01881
0.02293
0.02934
0.03341
0.03213
0.02443
0.01060
-0.00567
-0.01694
-0.01801
-0.01159
-0.00506
-0.00292
-0.00483
-0.00893
-0.01360
-0.01649
-0.01490
-0.00806
0.00160
0.00954
0.01162
0.00682
-0.00151
-0.00784
-0.00861
-0.00397
0.00380
0.01143
0.01484
0.01151
0.00353
-0.00354
-0.00550
-0.00247
0.00253
0.00654
0.00796
0.00580
-0.00060
-0.00981
-0.01708
-0.01702
-0.00869
0.00263
0.00989
0.01015
0.00540
-0.00095
-0.00640
-0.00856
-0.00524
0.00308
0.01177
0.01487
0.00977
-0.00048
-0.00947
-0.01221
-0.00844
-0.00166
0.00431
0.00740
0.00682
0.00257
-0.00350
-0.00761
-0.00686
-0.00202
0.00340
0.00644
0.00635
0.00377
-0.00010
-0.00373
-0.00560
-0.00509
-0.00266
0.00072
0.00385
0.00483
0.00191
-0.00379
-0.00773
-0.00612
-0.00006
0.00617
0.00981
0.01018
0.00637
-0.00183
-0.01059
-0.01373
-0.00879
0.00071
0.00916
0.01270
0.00970
0.00128
-0.00792
-0.01211
-0.00910
-0.00176
0.00509
0.00827
0.00681
0.00115
-0.00608
-0.00979
-0.00630
0.00206
0.00859
0.00910
0.00521
0.00055
-0.00343
-0.00665
-0.00759
-0.00409
0.00303
0.00885
0.00864
0.00269
-0.00435
-0.00836
-0.00813
-0.00374
0.00385
0.01071
0.01133
0.00434
-0.00536
-0.01159
-0.01217
-0.00834
-0.00174
0.00567
0.01042
0.00907
0.00157
-0.00769
-0.01280
-0.01045
-0.00183
0.00874
0.01674
0.01945
0.01652
0.00960
0.00163
-0.00435
-0.00655
-0.00553
-0.00426
-0.00625
-0.01238
-0.01965
-0.02374
-0.02232
-0.01590
-0.00631
0.00397
0.01194
0.01565
0.01605
0.01613
0.01816
0.02250
0.02807
0.03221
0.03058
0.01976
0.00094
-0.01972
-0.03495
-0.04079
-0.03797
-0.03047
-0.02310
-0.01928
-0.01935
-0.02075
-0.01999
-0.01461
-0.00404
0.01019
0.02491
0.03671
0.04306
0.04290
0.03808
0.03388
0.03498
0.04006
0.04290
0.03907
0.02842
0.01149
-0.01128
-0.03617
-0.05751
-0.07353
-0.08625
-0.09785
-0.11334
-0.14106
-0.17671
-0.18950
-0.14296
-0.03329
0.10970
0.26002
0.40584
0.51198
0.50868
0.35599
0.10761
-0.12470
-0.27085
-0.34199
-0.37726
-0.38705
-0.35814
-0.28478
-0.17582
-0.04653
0.08130
0.18060
0.23327
0.24116
0.21868
0.17904
0.13128
0.08401
0.04433
0.01370
-0.01129
-0.03401
-0.05516
-0.07342
-0.08613
-0.08965
-0.08178
-0.06480
-0.04476
-0.02723
-0.01415
-0.00483
0.00190
0.00734
0.01374
0.02303
0.03396
0.04186
0.04239
0.03501
0.02284
0.01028
0.00133
-0.00184
-0.00010
0.00298
0.00338
-0.00085
-0.00853
-0.01654
-0.02181
-0.02219
-0.01667
-0.00674
0.00234
0.00470
-0.00024
-0.00680
-0.00914
-0.00622
0.00004
0.00814
0.01590
0.01899
0.01449
0.00489
-0.00418
-0.00872
-0.00770
-0.00198
0.00544
0.00993
0.00818
0.00090
-0.00792
-0.01372
-0.01367
-0.00777
0.00115
0.00869
0.01117
0.00767
0.00066
-0.00549
-0.00721
-0.00382
0.00225
0.00708
0.00756
0.00310
-0.00403
-0.00971
-0.01063
-0.00676
-0.00097
0.00418
0.00771
0.00865
0.00573
-0.00018
-0.00509
-0.00529
-0.00082
0.00494
0.00824
0.00727
0.00272
-0.00314
-0.00809
-0.01042
-0.00846
-0.00180
0.00636
0.01029
0.00683
-0.00146
-0.00899
-0.01174
-0.00891
-0.00208
0.00569
0.01069
0.01029
0.00486
-0.00203
-0.00607
-0.00516
-0.00023
0.00597
0.00991
0.00872
0.00247
-0.00528
-0.01041
-0.01131
-0.00856
-0.00324
0.00317
0.00795
0.00790
0.00250
-0.00420
-0.00667
-0.00341
0.00207
0.00575
0.00645
0.00434
-0.00049
-0.00637
-0.00944
-0.00711
-0.00094
0.00543
0.00964
0.01044
0.00658
-0.00138
-0.00911
-0.01114
-0.00576
0.00347
0.01079
0.01199
0.00609
-0.00421
-0.01337
-0.01598
-0.01083
-0.00160
0.00644
0.00985
0.00745
0.00028
-0.00772
-0.01117
-0.00749
0.00113
0.01041
0.01712
0.01899
0.01459
0.00516
-0.00462
-0.00961
-0.00812
-0.00265
0.00262
0.00406
-0.00022
-0.00920
-0.01830
-0.02215
-0.01910
-0.01185
-0.00371
0.00328
0.00695
0.00577
0.00232
0.00252
0.00965
0.02115
0.03202
0.03826
0.03673
0.02540
0.00647
-0.01294
-0.02573
-0.02997
-0.02830
-0.02453
-0.02195
-0.02291
-0.02717
-0.03089
-0.02915
-0.02001
-0.00568
0.00972
0.02226
0.02891
0.02885
0.02513
0.02381
0.02940
0.04075
0.05153
0.05482
0.04825
0.03467
0.01785
-0.00077
-0.01973
-0.03535
-0.04598
-0.05611
-0.07162
-0.09400
-0.12379
-0.16173
-0.19580
-0.19475
-0.13241
-0.01681
0.12117
0.26352
0.40345
0.50470
0.49840
0.34964
0.11265
-0.10945
-0.25633
-0.34044
-0.39337
-0.41489
-0.38372
-0.29339
-0.16131
-0.01587
0.11292
0.19975
0.23470
0.22769
0.19795
0.16055
0.12291
0.08779
0.05485
0.02195
-0.01127
-0.04182
-0.06585
-0.08095
-0.08569
-0.07997
-0.06673
-0.05163
-0.03930
-0.03083
-0.02455
-0.01795
-0.00860
0.00477
0.02061
0.03450
0.04175
0.04054
0.03289
0.02323
0.01594
0.01313
0.01376
0.01459
0.01214
0.00466
-0.00656
-0.01748
-0.02336
-0.02182
-0.01447
-0.00596
-0.00109
-0.00174
-0.00610
-0.01069
-0.01292
-0.01173
-0.00667
0.00190
0.01151
0.01742
0.01584
0.00801
-0.00016
-0.00338
-0.00131
0.00303
0.00703
0.00927
0.00812
0.00242
-0.00621
-0.01304
-0.01352
-0.00708
0.00214
0.00840
0.00837
0.00277
-0.00467
-0.00960
-0.00947
-0.00473
0.00204
0.00777
0.00971
0.00637
-0.00079
-0.00727
-0.00888
-0.00516
0.00125
0.00737
0.01092
0.01008
0.00435
-0.00404
-0.01078
-0.01228
-0.00796
-0.00056
0.00584
0.00845
0.00713
0.00333
-0.00125
-0.00469
-0.00493
-0.00147
0.00308
0.00470
0.00198
-0.00238
-0.00478
-0.00452
-0.00301
-0.00062
0.00315
0.00664
0.00608
0.00025
-0.00672
-0.00923
-0.00604
-0.00063
0.00395
0.00770
0.01057
0.00971
0.00300
-0.00603
-0.01045
-0.00736
-0.00030
0.00553
0.00738
0.00433
-0.00309
-0.01127
-0.01440
-0.00963
0.00007
0.00904
0.01363
0.01308
0.00775
-0.00090
-0.00907
-0.01185
-0.00751
0.00039
0.00626
0.00720
0.00407
-0.00065
-0.00445
-0.00530
-0.00258
0.00226
0.00692
0.00943
0.00794
0.00140
-0.00770
-0.01335
-0.01140
-0.00415
0.00261
0.00565
0.00497
0.00083
-0.00572
-0.01058
-0.00924
-0.00185
0.00693
0.01271
0.01374
0.01005
0.00334
-0.00275
-0.00470
-0.00176
0.00402
0.00928
0.01074
0.00663
-0.00188
-0.01103
-0.01675
-0.01686
-0.01208
-0.00566
-0.00159
-0.00241
-0.00771
-0.01389
-0.01572
-0.00993
0.00224
0.01625
0.02767
0.03378
0.03356
0.02797
0.01959
0.01102
0.00389
-0.00074
-0.00319
-0.00671
-0.01537
-0.02908
-0.04198
-0.04690
-0.04117
-0.02797
-0.01352
-0.00309
0.00188
0.00381
0.00587
0.00936
0.01495
0.02424
0.03703
0.04838
0.05238
0.04847
0.04097
0.03306
0.02496
0.01713
0.01040
0.00282
-0.00982
-0.02962
-0.05501
-0.08199
-0.10503
-0.12111
-0.13547
-0.15545
-0.17189
-0.15592
-0.08544
0.03331
0.18008
0.33861
0.47726
0.52919
0.43528
0.21632
-0.02874
-0.21057
-0.31455
-0.37218
-0.39896
-0.38295
-0.31542
-0.20726
-0.08003
0.04311
0.14051
0.19887
0.21962
0.21421
0.19310
0.16084
0.11913
0.07154
0.02480
-0.01376
-0.04028
-0.05579
-0.06377
-0.06726
-0.06844
-0.06892
-0.06855
-0.06467
-0.05432
-0.03722
-0.01621
0.00461
0.02119
0.03034
0.03120
0.02680
0.02284
0.02332
0.02695
0.02873
0.02547
0.01831
0.00990
0.00152
-0.00584
-0.01010
-0.01015
-0.00778
-0.00575
-0.00548
-0.00743
-0.01167
-0.01631
-0.01768
-0.01361
-0.00556
0.00296
0.00856
0.00880
0.00382
-0.00230
-0.00438
-0.00103
0.00498
0.01053
0.01386
0.01332
0.00783
-0.00070
-0.00774
-0.00960
-0.00587
0.00073
0.00586
0.00598
0.00100
-0.00585
-0.01086
-0.01176
-0.00776
-0.00013
0.00729
0.01025
0.00762
0.00194
-0.00324
-0.00582
-0.00511
-0.00120
0.00474
0.00953
0.00920
0.00273
-0.00595
-0.01130
-0.01091
-0.00587
0.00150
0.00807
0.00984
0.00520
-0.00223
-0.00681
-0.00627
-0.00242
0.00229
0.00640
0.00850
0.00713
0.00230
-0.00370
-0.00760
-0.00733
-0.00332
0.00183
0.00501
0.00437
0.00027
-0.00528
-0.00967
-0.01055
-0.00653
0.00159
0.00997
0.01365
0.01048
0.00292
-0.00411
-0.00680
-0.00442
0.00080
0.00544
0.00711
0.00530
0.00054
-0.00583
-0.01062
-0.00987
-0.00295
0.00537
0.00915
0.00689
0.00138
-0.00464
-0.00982
-0.01178
-0.00777
0.00126
0.00975
0.01228
0.00810
0.00054
-0.00595
-0.00779
-0.00377
0.00370
0.00957
0.00991
0.00494
-0.00172
-0.00650
-0.00808
-0.00669
-0.00262
0.00331
0.00825
0.00825
0.00206
-0.00685
-0.01297
-0.01289
-0.00681
0.00207
0.00889
0.00986
0.00514
-0.00179
-0.00754
-0.00984
-0.00639
0.00308
0.01359
0.01786
0.01369
0.00573
-0.00051
-0.00348
-0.00414
-0.00285
0.00013
0.00276
0.00205
-0.00301
-0.01038
-0.01653
-0.01865
-0.01560
-0.00858
-0.00122
0.00233
0.00088
-0.00265
-0.00362
0.00086
0.01077
0.02377
0.03582
0.04178
0.03743
0.02277
0.00335
-0.01289
-0.02132
-0.02314
-0.02252
-0.02263
-0.02468
-0.02864
-0.03290
-0.03406
-0.02887
-0.01717
-0.00246
0.01049
0.01874
0.02232
0.02316
0.02399
0.02785
0.03644
0.04749
0.05508
0.05435
0.04554
0.03229
0.01694
-0.00032
-0.01804
-0.03308
-0.04520
-0.05889
-0.07766
-0.10039
-0.12672
-0.15904
-0.18946
-0.19022
-0.13293
-0.01901
0.12282
0.26883
0.40668
0.50219
0.49204
0.34315
0.10796
-0.11166
-0.25509
-0.33474
-0.38376
-0.40480
-0.37807
-0.29461
-0.16743
-0.02325
0.10612
0.19367
0.22978
0.22516
0.19891
0.16505
0.12968
0.09467
0.05996
0.02450
-0.01158
-0.04526
-0.07153
-0.08616
-0.08782
-0.07881
-0.06435
-0.05038
-0.04047
-0.03398
-0.02747
-0.01802
-0.00486
0.01108
0.02728
0.03902
0.04191
0.03646
0.02787
0.02061
0.01561
0.01310
0.01370
0.01508
0.01171
0.00098
-0.01267
-0.02221
-0.02451
-0.02062
-0.01247
-0.00265
0.00427
0.00409
-0.00279
-0.01098
-0.01432
-0.01031
-0.00125
0.00786
0.01269
0.01171
0.00638
0.00002
-0.00412
-0.00446
-0.00129
0.00421
0.01011
0.01288
0.00891
-0.00118
-0.01128
-0.01475
-0.00999
-0.00055
0.00810
0.01133
0.00765
-0.00022
-0.00730
-0.01009
-0.00783
-0.00177
0.00513
0.00888
0.00711
0.00124
-0.00502
-0.00878
-0.00906
-0.00571
0.00078
0.00782
0.01085
0.00699
-0.00153
-0.00854
-0.00892
-0.00249
0.00629
0.01164
0.01061
0.00489
-0.00149
-0.00615
-0.00885
-0.00887
-0.00473
0.00254
0.00824
0.00800
0.00211
-0.00503
-0.00918
-0.00898
-0.00525
0.00053
0.00638
0.00948
0.00752
0.00120
-0.00546
-0.00813
-0.00532
0.00100
0.00712
0.00982
0.00778
0.00189
-0.00527
-0.01001
-0.00885
-0.00153
0.00707
0.01030
0.00606
-0.00169
-0.00789
-0.01047
-0.00908
-0.00336
0.00517
0.01179
0.01191
0.00547
-0.00327
-0.00963
-0.01119
-0.00763
-0.00054
0.00639
0.00897
0.00600
0.00019
-0.00454
-0.00592
-0.00363
0.00140
0.00709
0.01060
0.00963
0.00391
-0.00407
-0.01019
-0.01126
-0.00712
-0.00041
0.00521
0.00672
0.00307
-0.00391
-0.01000
-0.01120
-0.00667
0.00072
0.00694
0.00971
0.00879
0.00453
-0.00162
-0.00564
-0.00343
0.00408
0.01112
0.01320
0.01079
0.00614
0.00008
-0.00645
-0.01058
-0.01015
-0.00668
-0.00391
-0.00453
-0.00898
-0.01554
-0.02027
-0.01896
-0.01074
0.00107
0.01202
0.01928
0.02201
0.02129
0.01978
0.01994
0.02166
0.02234
0.01925
0.01134
-0.00078
-0.01514
-0.02827
-0.03612
-0.03678
-0.03212
-0.02566
-0.01931
-0.01344
-0.00907
-0.00741
-0.00704
-0.00398
0.00455
0.01740
0.03051
0.03943
0.04161
0.03814
0.03331
0.03110
0.03207
0.03386
0.03319
0.02679
0.01252
-0.00871
-0.03303
-0.05613
-0.07436
-0.08554
-0.09354
-0.11062
-0.14481
-0.18001
-0.17906
-0.11667
-0.00143
0.14310
0.30141
0.44713
0.51692
0.44652
0.24564
0.00721
-0.17580
-0.28327
-0.34668
-0.38378
-0.38085
-0.32417
-0.22089
-0.09227
0.03562
0.13703
0.19706
0.21867
0.21368
0.18961
0.14988
0.10133
0.05415
0.01548
-0.01260
-0.03042
-0.04027
-0.04760
-0.05782
-0.07057
-0.07916
-0.07708
-0.06384
-0.04425
-0.02344
-0.00446
0.01011
0.01725
0.01695
0.01476
0.01737
0.02522
0.03269
0.03504
0.03201
0.02487
0.01443
0.00278
-0.00626
-0.00962
-0.00716
-0.00191
0.00119
-0.00164
-0.00976
-0.01828
-0.02169
-0.01765
-0.00849
0.00030
0.00420
0.00318
0.00030
-0.00228
-0.00390
-0.00331
0.00077
0.00719
0.01273
0.01446
0.01102
0.00335
-0.00479
-0.00891
-0.00734
-0.00176
0.00505
0.00996
0.00947
0.00247
-0.00692
-0.01204
-0.01003
-0.00369
0.00272
0.00684
0.00709
0.00231
-0.00541
-0.01082
-0.01049
-0.00574
0.00039
0.00614
0.00966
0.00858
0.00314
-0.00250
-0.00423
-0.00174
0.00282
0.00724
0.00918
0.00627
-0.00145
-0.01002
-0.01413
-0.01115
-0.00299
0.00528
0.00904
0.00730
0.00260
-0.00221
-0.00604
-0.00774
-0.00487
0.00281
0.01020
0.01109
0.00493
-0.00313
-0.00817
-0.00879
-0.00575
-0.00009
0.00616
0.00943
0.00683
-0.00056
-0.00791
-0.01073
-0.00793
-0.00130
0.00609
0.01077
0.01024
0.00466
-0.00297
-0.00840
-0.00842
-0.00295
0.00456
0.00929
0.00826
0.00194
-0.00620
-0.01175
-0.01178
-0.00645
0.00131
0.00768
0.01000
0.00761
0.00149
-0.00576
-0.01002
-0.00779
0.00017
0.00866
0.01269
0.01151
0.00693
-0.00003
-0.00799
-0.01270
-0.00994
-0.00106
0.00700
0.00833
0.00291
-0.00511
-0.01167
-0.01388
-0.00993
-0.00095
0.00819
0.01250
0.01050
0.00368
-0.00487
-0.01000
-0.00675
0.00400
0.01475
0.01852
0.01494
0.00795
0.00038
-0.00680
-0.01157
-0.01074
-0.00424
0.00214
0.00126
-0.00759
-0.01778
-0.02273
-0.02141
-0.01549
-0.00560
0.00623
0.01457
0.01593
0.01342
0.01260
0.01547
0.02145
0.02945
0.03496
0.03039
0.01351
-0.00793
-0.02412
-0.03254
-0.03569
-0.03423
-0.02785
-0.02012
-0.01654
-0.01790
-0.01986
-0.01844
-0.01268
-0.00241
0.01188
0.02634
0.03504
0.03606
0.03343
0.03189
0.03254
0.03464
0.03802
0.04140
0.04071
0.03154
0.01254
-0.01286
-0.03739
-0.05490
-0.06585
-0.07540
-0.08692
-0.10327
-0.13104
-0.16904
-0.19108
-0.15854
-0.05829
0.08672
0.24768
0.40359
0.51239
0.50504
0.34879
0.10516
-0.11320
-0.24518
-0.31380
-0.36102
-0.38804
-0.37018
-0.29778
-0.18287
-0.04557
0.08789
0.18712
0.23464
0.23685
0.21159
0.17151
0.12404
0.07787
0.04019
0.01149
-0.01166
-0.03154
-0.04956
-0.06677
-0.08072
-0.08568
-0.07867
-0.06285
-0.04399
-0.02655
-0.01339
-0.00552
-0.00098
0.00375
0.01093
0.02087
0.03196
0.03992
0.04005
0.03214
0.02121
0.01234
0.00670
0.00344
0.00244
0.00345
0.00403
0.00055
-0.00795
-0.01770
-0.02314
-0.02194
-0.01619
-0.00902
-0.00243
0.00160
0.00088
-0.00404
-0.00831
-0.00678
0.00063
0.00910
0.01413
0.01458
0.01137
0.00571
-0.00057
-0.00457
-0.00390
0.00120
0.00731
0.00978
0.00597
-0.00251
-0.01071
-0.01414
-0.01177
-0.00541
0.00249
0.00893
0.00996
0.00377
-0.00559
-0.01087
-0.00895
-0.00283
0.00375
0.00962
0.01297
0.01000
0.00029
-0.00977
-0.01258
-0.00709
0.00138
0.00722
0.00831
0.00505
-0.00125
-0.00786
-0.01071
-0.00706
0.00131
0.00892
0.01154
0.00933
0.00464
-0.00117
-0.00694
-0.00969
-0.00681
0.00019
0.00627
0.00719
0.00262
-0.00438
-0.01001
-0.01169
-0.00828
-0.00026
0.00905
0.01412
0.01126
0.00225
-0.00686
-0.01051
-0.00708
0.00088
0.00859
0.01168
0.00865
0.00171
-0.00521
-0.00919
-0.00920
-0.00542
0.00104
0.00771
0.01104
0.00824
-0.00014
-0.00952
-0.01435
-0.01244
-0.00573
0.00222
0.00808
0.00904
0.00411
-0.00374
-0.00848
-0.00582
0.00297
0.01246
0.01746
0.01590
0.00864
-0.00184
-0.01219
-0.01814
-0.01588
-0.00579
0.00555
0.00970
0.00366
-0.00751
-0.01502
-0.01343
-0.00398
0.00750
0.01524
0.01627
0.01078
0.00162
-0.00683
-0.01075
-0.00844
-0.00068
0.00944
0.01703
0.01756
0.00990
-0.00230
-0.01221
-0.01434
-0.00893
-0.00178
0.00097
-0.00218
-0.00853
-0.01468
-0.01824
-0.01754
-0.01164
-0.00138
0.00995
0.01785
0.01953
0.01649
0.01330
0.01349
0.01714
0.02204
0.02491
0.02155
0.00945
-0.00833
-0.02425
-0.03289
-0.03462
-0.03244
-0.02796
-0.02233
-0.01783
-0.01590
-0.01505
-0.01275
-0.00777
0.00060
0.01320
0.02854
0.04113
0.04546
0.04174
0.03602
0.03421
0.03672
0.03945
0.03837
0.03141
0.01719
-0.00419
-0.02871
-0.05055
-0.06769
-0.08169
-0.09319
-0.10444
-0.12411
-0.15664
-0.18276
-0.16542
-0.08436
0.04631
0.20136
0.36381
0.50012
0.53874
0.41974
0.17507
-0.07731
-0.23979
-0.31238
-0.35055
-0.37893
-0.37580
-0.32000
-0.21754
-0.08858
0.04424
0.15487
0.22182
0.24193
0.22807
0.19402
0.14802
0.09760
0.05166
0.01596
-0.00957
-0.02827
-0.04371
-0.05849
-0.07297
-0.08360
-0.08471
-0.07392
-0.05504
-0.03496
-0.01842
-0.00650
0.00139
0.00584
0.00833
0.01218
0.02041
0.03144
0.03925
0.03937
0.03289
0.02350
0.01337
0.00433
-0.00025
0.00145
0.00571
0.00603
-0.00043
-0.01116
-0.02184
-0.02868
-0.02870
-0.02128
-0.00994
-0.00020
0.00442
0.00365
-0.00044
-0.00403
-0.00337
0.00213
0.00932
0.01456
0.01597
0.01282
0.00553
-0.00285
-0.00702
-0.00350
0.00554
0.01264
0.01089
0.00031
-0.01211
-0.01909
-0.01859
-0.01250
-0.00300
0.00743
0.01441
0.01376
0.00587
-0.00374
-0.00913
-0.00846
-0.00360
0.00268
0.00787
0.00930
0.00528
-0.00237
-0.00851
-0.00906
-0.00462
0.00118
0.00566
0.00797
0.00732
0.00314
-0.00317
-0.00827
-0.00915
-0.00501
0.00210
0.00825
0.01001
0.00642
-0.00057
-0.00702
-0.00893
-0.00484
0.00248
0.00770
0.00724
0.00196
-0.00457
-0.00957
-0.01161
-0.00917
-0.00186
0.00705
0.01218
0.01096
0.00517
-0.00180
-0.00696
-0.00771
-0.00297
0.00466
0.00982
0.00912
0.00383
-0.00266
-0.00795
-0.00993
-0.00651
0.00101
0.00716
0.00765
0.00349
-0.00209
-0.00746
-0.01107
-0.00993
-0.00318
0.00500
0.00889
0.00699
0.00239
-0.00141
-0.00292
-0.00174
0.00241
0.00848
0.01293
0.01163
0.00370
-0.00691
-0.01449
-0.01584
-0.01151
-0.00397
0.00356
0.00743
0.00536
-0.00113
-0.00735
-0.00922
-0.00584
0.00114
0.00871
0.01309
0.01174
0.00606
0.00017
-0.00298
-0.00272
0.00113
0.00741
0.01162
0.00915
0.00079
-0.00827
-0.01428
-0.01638
-0.01415
-0.00795
-0.00127
0.00096
-0.00284
-0.00932
-0.01363
-0.01314
-0.00780
0.00156
0.01368
0.02595
0.03449
0.03610
0.03020
0.01950
0.00890
0.00243
-0.00031
-0.00416
-0.01333
-0.02647
-0.03789
-0.04304
-0.04123
-0.03377
-0.02219
-0.00933
0.00009
0.00309
0.00219
0.00324
0.00950
0.02008
0.03301
0.04636
0.05610
0.05719
0.04868
0.03577
0.02506
0.01879
0.01421
0.00750
-0.00364
-0.02107
-0.04634
-0.07642
-0.10218
-0.11776
-0.13065
-0.15230
-0.17526
-0.16988
-0.11213
-0.00688
0.12642
0.27818
0.43352
0.53543
0.50337
0.31619
0.05576
-0.16229
-0.29032
-0.35786
-0.39804
-0.40424
-0.35740
-0.26039
-0.13418
-0.00179
0.11369
0.19159
0.22557
0.22687
0.21010
0.18081
0.13932
0.08994
0.04083
-0.00195
-0.03567
-0.05821
-0.06893
-0.07151
-0.07169
-0.07175
-0.06978
-0.06391
-0.05396
-0.03963
-0.02059
0.00046
0.01768
0.02632
0.02659
0.02309
0.02089
0.02197
0.02495
0.02788
0.02974
0.02876
0.02168
0.00793
-0.00681
-0.01471
-0.01368
-0.00845
-0.00451
-0.00396
-0.00679
-0.01240
-0.01849
-0.02092
-0.01681
-0.00732
0.00310
0.00990
0.01072
0.00605
-0.00101
-0.00592
-0.00525
0.00102
0.00969
0.01621
0.01700
0.01130
0.00180
-0.00695
-0.01113
-0.00935
-0.00324
0.00317
0.00608
0.00469
0.00084
-0.00367
-0.00747
-0.00845
-0.00523
0.00043
0.00463
0.00486
0.00158
-0.00267
-0.00518
-0.00460
-0.00139
0.00318
0.00756
0.00930
0.00614
-0.00104
-0.00776
-0.00972
-0.00613
0.00068
0.00727
0.01041
0.00805
0.00094
-0.00679
-0.01019
-0.00769
-0.00189
0.00385
0.00782
0.00888
0.00573
-0.00109
-0.00788
-0.01020
-0.00648
0.00061
0.00631
0.00722
0.00320
-0.00325
-0.00870
-0.01013
-0.00625
0.00132
0.00863
0.01197
0.01003
0.00418
-0.00276
-0.00778
-0.00845
-0.00370
0.00449
0.01066
0.00976
0.00250
-0.00514
-0.00847
-0.00763
-0.00456
-0.00009
0.00445
0.00598
0.00254
-0.00403
-0.00970
-0.01129
-0.00759
0.00031
0.00885
0.01342
0.01152
0.00475
-0.00265
-0.00689
-0.00634
-0.00118
0.00663
0.01273
0.01206
0.00349
-0.00776
-0.01443
-0.01349
-0.00725
0.00022
0.00575
0.00698
0.00254
-0.00606
-0.01411
-0.01641
-0.01087
0.00021
0.01172
0.01869
0.01863
0.01271
0.00516
0.00087
0.00213
0.00683
0.01012
0.00817
0.00099
-0.00810
-0.01552
-0.01972
-0.02048
-0.01723
-0.01012
-0.00262
0.00004
-0.00357
-0.00902
-0.01074
-0.00667
0.00224
0.01397
0.02525
0.03224
0.03345
0.03039
0.02471
0.01665
0.00702
-0.00161
-0.00763
-0.01291
-0.02059
-0.03073
-0.03964
-0.04354
-0.04099
-0.03222
-0.01877
-0.00487
0.00414
0.00662
0.00643
0.00882
0.01614
0.02749
0.04008
0.04994
0.05362
0.05030
0.04203
0.03207
0.02307
0.01571
0.00865
-0.00006
-0.01189
-0.02868
-0.05208
-0.07969
-0.10452
-0.12348
-0.14305
-0.16673
-0.17778
-0.14804
-0.06785
0.04658
0.18001
0.32891
0.46731
0.52430
0.43543
0.22024
-0.02144
-0.20091
-0.30600
-0.36948
-0.40431
-0.39387
-0.32718
-0.21638
-0.08453
0.04466
0.14725
0.20614
0.22216
0.21131
0.18903
0.16041
0.12391
0.07938
0.03143
-0.01219
-0.04426
-0.06181
-0.06755
-0.06755
-0.06706
-0.06780
-0.06815
-0.06491
-0.05528
-0.03861
-0.01726
0.00421
0.02099
0.03006
0.03169
0.02889
0.02506
0.02213
0.02102
0.02223
0.02463
0.02452
0.01838
0.00710
-0.00407
-0.01042
-0.01158
-0.01000
-0.00789
-0.00697
-0.00905
-0.01434
-0.01962
-0.02020
-0.01403
-0.00328
0.00739
0.01329
0.01196
0.00482
-0.00340
-0.00773
-0.00598
0.00061
0.00851
0.01390
0.01452
0.01058
0.00403
-0.00265
-0.00697
-0.00691
-0.00236
0.00370
0.00671
0.00400
-0.00325
-0.01127
-0.01605
-0.01478
-0.00718
0.00345
0.01155
0.01334
0.00943
0.00293
-0.00346
-0.00721
-0.00555
0.00158
0.00915
0.01067
0.00458
-0.00476
-0.01180
-0.01345
-0.00914
-0.00046
0.00860
0.01305
0.01042
0.00271
-0.00536
-0.00981
-0.00913
-0.00379
0.00422
0.01115
0.01235
0.00586
-0.00459
-0.01167
-0.01080
-0.00375
0.00383
0.00761
0.00668
0.00226
-0.00365
-0.00870
-0.01040
-0.00725
0.00009
0.00846
0.01340
0.01162
0.00355
-0.00599
-0.01076
-0.00820
-0.00138
0.00471
0.00764
0.00759
0.00481
-0.00057
-0.00675
-0.01014
-0.00760
0.00042
0.00870
0.01055
0.00403
-0.00604
-0.01297
-0.01366
-0.00868
0.00019
0.00982
0.01542
0.01366
0.00642
-0.00087
-0.00448
-0.00433
-0.00145
0.00325
0.00701
0.00562
-0.00220
-0.01213
-0.01766
-0.01571
-0.00838
0.00012
0.00697
0.01071
0.00964
0.00325
-0.00454
-0.00716
-0.00203
0.00695
0.01435
0.01768
0.01607
0.00882
-0.00211
-0.01074
-0.01186
-0.00644
-0.00051
0.00083
-0.00307
-0.00966
-0.01576
-0.01883
-0.01770
-0.01286
-0.00602
0.00115
0.00724
0.01069
0.01069
0.00930
0.01115
0.01928
0.03110
0.03924
0.03703
0.02344
0.00335
-0.01623
-0.03031
-0.03692
-0.03612
-0.03009
-0.02338
-0.02048
-0.02208
-0.02489
-0.02484
-0.01951
-0.00801
0.00840
0.02508
0.03602
0.03895
0.03696
0.03468
0.03452
0.03685
0.04112
0.04497
0.04401
0.03438
0.01592
-0.00725
-0.02927
-0.04682
-0.06074
-0.07329
-0.08599
-0.10285
-0.13149
-0.17105
-0.19799
-0.17620
-0.08982
0.04301
0.19507
0.35072
0.48335
0.53094
0.43555
0.21604
-0.02914
-0.20874
-0.30862
-0.36465
-0.39525
-0.38691
-0.32809
-0.22707
-0.10047
0.03306
0.14801
0.21945
0.24066
0.22515
0.19064
0.14809
0.10428
0.06491
0.03190
0.00290
-0.02438
-0.04945
-0.07047
-0.08509
-0.09000
-0.08297
-0.06614
-0.04618
-0.02983
-0.01960
-0.01365
-0.00858
-0.00141
0.00946
0.02272
0.03405
0.03959
0.03893
0.03374
0.02534
0.01540
0.00724
0.00384
0.00488
0.00673
0.00531
-0.00095
-0.01023
-0.01888
-0.02338
-0.02161
-0.01412
-0.00501
0.00046
0.00022
-0.00338
-0.00676
-0.00732
-0.00368
0.00329
0.00967
0.01170
0.00952
0.00561
0.00114
-0.00333
-0.00533
-0.00230
0.00479
0.01170
0.01414
0.00996
0.00029
-0.01001
-0.01509
-0.01283
-0.00600
0.00129
0.00629
0.00725
0.00335
-0.00345
-0.00842
-0.00786
-0.00237
0.00426
0.00821
0.00768
0.00324
-0.00257
-0.00680
-0.00781
-0.00529
0.00040
0.00719
0.01061
0.00717
-0.00114
-0.00792
-0.00871
-0.00431
0.00214
0.00826
0.01183
0.01021
0.00291
-0.00649
-0.01259
-0.01205
-0.00570
0.00216
0.00671
0.00605
0.00194
-0.00306
-0.00748
-0.00958
-0.00662
0.00169
0.01051
0.01350
0.00885
0.00032
-0.00689
-0.00957
-0.00676
0.00044
0.00848
0.01265
0.01022
0.00254
-0.00601
-0.01089
-0.01023
-0.00562
-0.00019
0.00398
0.00582
0.00396
-0.00186
-0.00828
-0.01004
-0.00510
0.00325
0.00977
0.01124
0.00729
-0.00018
-0.00723
-0.00946
-0.00525
0.00273
0.00985
0.01247
0.00950
0.00245
-0.00528
-0.01025
-0.01077
-0.00727
-0.00167
0.00298
0.00360
-0.00053
-0.00642
-0.00964
-0.00799
-0.00257
0.00411
0.00986
0.01287
0.01179
0.00683
0.00057
-0.00312
-0.00151
0.00455
0.01033
0.01086
0.00554
-0.00216
-0.00939
-0.01565
-0.01937
-0.01711
-0.00887
-0.00086
0.00029
-0.00543
-0.01224
-0.01456
-0.01033
-0.00015
0.01371
0.02720
0.03562
0.03653
0.03116
0.02246
0.01231
0.00169
-0.00731
-0.01240
-0.01473
-0.01879
-0.02690
-0.03557
-0.03900
-0.03485
-0.02512
-0.01317
-0.00212
0.00494
0.00635
0.00461
0.00549
0.01289
0.02518
0.03764
0.04693
0.05165
0.05052
0.04309
0.03193
0.02129
0.01311
0.00586
-0.00328
-0.01699
-0.03718
-0.06219
-0.08547
-0.10272
-0.12028
-0.14755
-0.17648
-0.17718
-0.12414
-0.02159
0.10756
0.24912
0.39096
0.48933
0.47634
0.32674
0.10075
-0.10542
-0.24413
-0.33086
-0.38766
-0.40530
-0.36412
-0.26575
-0.13356
0.00258
0.11483
0.18411
0.20908
0.20460
0.18697
0.16238
0.12968
0.08917
0.04550
0.00488
-0.02772
-0.04968
-0.06125
-0.06514
-0.06474
-0.06262
-0.06033
-0.05795
-0.05340
-0.04383
-0.02839
-0.00933
0.00916
0.02271
0.02870
0.02787
0.02378
0.02063
0.02120
0.02547
0.03003
0.03003
0.02327
0.01178
-0.00070
-0.01146
-0.01858
-0.02038
-0.01650
-0.00918
-0.00273
-0.00140
-0.00607
-0.01259
-0.01500
-0.01119
-0.00396
0.00299
0.00750
0.00791
0.00371
-0.00198
-0.00393
-0.00003
0.00701
0.01324
0.01615
0.01404
0.00609
-0.00548
-0.01502
-0.01718
-0.01090
-0.00030
0.00835
0.01091
0.00758
0.00136
-0.00482
-0.00858
-0.00777
-0.00223
0.00452
0.00785
0.00589
0.00004
-0.00689
-0.01154
-0.01076
-0.00396
0.00556
0.01265
0.01356
0.00793
-0.00120
-0.00890
-0.01113
-0.00715
0.00045
0.00771
0.01128
0.00935
0.00244
-0.00608
-0.01096
-0.00885
-0.00163
0.00522
0.00789
0.00614
0.00116
-0.00540
-0.01015
-0.00961
-0.00400
0.00265
0.00658
0.00681
0.00405
-0.00029
-0.00412
-0.00520
-0.00236
0.00366
0.01010
0.01283
0.00887
-0.00050
-0.00990
-0.01417
-0.01197
-0.00521
0.00290
0.00837
0.00777
0.00160
-0.00497
-0.00686
-0.00398
0.00003
0.00268
0.00438
0.00542
0.00399
-0.00095
-0.00619
-0.00651
-0.00067
0.00704
0.01169
0.01185
0.00822
0.00123
-0.00793
-0.01547
-0.01668
-0.01036
-0.00073
0.00574
0.00556
0.00022
-0.00617
-0.00966
-0.00745
0.00088
0.01163
0.01821
0.01648
0.00873
0.00075
-0.00415
-0.00630
-0.00570
-0.00104
0.00638
0.01116
0.00882
0.00047
-0.00895
-0.01518
-0.01644
-0.01275
-0.00585
0.00044
0.00193
-0.00260
-0.00982
-0.01446
-0.01330
-0.00636
0.00478
0.01762
0.02807
0.03218
0.02984
0.02488
0.02025
0.01525
0.00837
0.00022
-0.00833
-0.01858
-0.03135
-0.04304
-0.04750
-0.04191
-0.02908
-0.01452
-0.00325
0.00191
0.00172
0.00066
0.00368
0.01260
0.02542
0.03814
0.04677
0.04915
0.04583
0.03927
0.03214
0.02613
0.02151
0.01697
0.00990
-0.00255
-0.02212
-0.04791
-0.07534
-0.09772
-0.11235
-0.12572
-0.14664
-0.16873
-0.16531
-0.11096
-0.00585
0.13019
0.27920
0.42001
0.50344
0.46619
0.29419
0.05693
-0.14681
-0.27259
-0.34183
-0.38194
-0.38649
-0.33808
-0.24217
-0.12362
-0.00506
0.09845
0.17382
0.21291
0.21914
0.20323
0.17303
0.13177
0.08388
0.03695
-0.00258
-0.03216
-0.05115
-0.05961
-0.06085
-0.06169
-0.06667
-0.07251
-0.07130
-0.05896
-0.03873
-0.01675
0.00245
0.01604
0.02218
0.02178
0.01937
0.02012
0.02560
0.03249
0.03556
0.03220
0.02404
0.01411
0.00361
-0.00688
-0.01433
-0.01497
-0.00952
-0.00398
-0.00369
-0.00838
-0.01418
-0.01804
-0.01827
-0.01338
-0.00375
0.00632
0.01128
0.00927
0.00286
-0.00390
-0.00730
-0.00464
0.00380
0.01342
0.01811
0.01500
0.00609
-0.00384
-0.01003
-0.00986
-0.00419
0.00304
0.00759
0.00742
0.00263
-0.00531
-0.01296
-0.01546
-0.01048
-0.00101
0.00747
0.01168
0.01110
0.00619
-0.00158
-0.00857
-0.01043
-0.00563
0.00282
0.00929
0.00971
0.00452
-0.00250
-0.00774
-0.00921
-0.00570
0.00240
0.01064
0.01258
0.00607
-0.00418
-0.01142
-0.01222
-0.00705
0.00142
0.00897
0.01155
0.00838
0.00208
-0.00450
-0.00950
-0.01033
-0.00488
0.00411
0.00958
0.00737
0.00029
-0.00644
-0.01019
-0.00989
-0.00423
0.00546
0.01316
0.01307
0.00605
-0.00171
-0.00578
-0.00634
-0.00427
0.00103
0.00803
0.01101
0.00569
-0.00469
-0.01243
-0.01379
-0.01098
-0.00646
-0.00012
0.00706
0.01088
0.00828
0.00154
-0.00373
-0.00367
0.00146
0.00813
0.01196
0.01023
0.00333
-0.00587
-0.01333
-0.01542
-0.01092
-0.00243
0.00509
0.00797
0.00576
0.00034
-0.00537
-0.00805
-0.00547
0.00120
0.00764
0.00993
0.00742
0.00193
-0.00441
-0.00932
-0.00987
-0.00440
0.00511
0.01386
0.01733
0.01349
0.00395
-0.00589
-0.00970
-0.00578
0.00097
0.00381
0.00020
-0.00735
-0.01495
-0.02025
-0.02204
-0.01878
-0.00975
0.00231
0.01188
0.01528
0.01367
0.01115
0.01160
0.01698
0.02607
0.03357
0.03317
0.02275
0.00546
-0.01394
-0.03105
-0.04108
-0.04053
-0.03140
-0.02108
-0.01583
-0.01600
-0.01808
-0.01888
-0.01622
-0.00803
0.00579
0.02142
0.03307
0.03780
0.03724
0.03512
0.03446
0.03650
0.04032
0.04286
0.04032
0.03020
0.01259
-0.00978
-0.03252
-0.05217
-0.06764
-0.07878
-0.08679
-0.09894
-0.12633
-0.16584
-0.18736
-0.15417
-0.05863
0.07505
0.22243
0.36927
0.48115
0.49315
0.36485
0.13987
-0.07949
-0.22257
-0.29600
-0.34022
-0.36895
-0.36426
-0.30943
-0.20741
-0.07644
0.05675
0.16308
0.22341
0.23770
0.21941
0.18265
0.13684
0.08964
0.04824
0.01656
-0.00688
-0.02685
-0.04717
-0.06729
-0.08249
-0.08799
-0.08279
-0.06916
-0.05017
-0.02965
-0.01296
-0.00393
-0.00069
0.00286
0.01072
0.02180
0.03273
0.04084
0.04372
0.03900
0.02694
0.01217
0.00098
-0.00305
-0.00070
0.00381
0.00503
-0.00023
-0.01013
-0.01943
-0.02395
-0.02257
-0.01611
-0.00702
0.00047
0.00293
0.00082
-0.00247
-0.00432
-0.00380
-0.00022
0.00654
0.01386
0.01717
0.01392
0.00567
-0.00362
-0.00988
-0.01020
-0.00451
0.00336
0.00831
0.00809
0.00386
-0.00202
-0.00690
-0.00783
-0.00393
0.00153
0.00398
0.00231
-0.00140
-0.00536
-0.00850
-0.00860
-0.00366
0.00472
0.01171
0.01342
0.00945
0.00211
-0.00548
-0.01050
-0.01082
-0.00557
0.00308
0.00953
0.00883
0.00167
-0.00622
-0.00961
-0.00728
-0.00098
0.00653
0.01204
0.01255
0.00699
-0.00254
-0.01114
-0.01373
-0.00878
-0.00004
0.00654
0.00797
0.00528
0.00021
-0.00613
-0.01078
-0.00917
-0.00064
0.00883
0.01233
0.00893
0.00260
-0.00346
-0.00820
-0.00971
-0.00554
0.00316
0.01083
0.01233
0.00725
-0.00088
-0.00773
-0.01044
-0.00838
-0.00305
0.00286
0.00648
0.00580
0.00103
-0.00491
-0.00837
-0.00750
-0.00279
0.00381
0.00932
0.01059
0.00639
-0.00103
-0.00697
-0.00753
-0.00258
0.00436
0.00922
0.00972
0.00531
-0.00280
-0.01078
-0.01367
-0.00944
-0.00121
0.00535
0.00665
0.00319
-0.00235
-0.00743
-0.00980
-0.00736
-0.00006
0.00873
0.01419
0.01360
0.00764
-0.00035
-0.00568
-0.00475
0.00207
0.01009
0.01384
0.01085
0.00263
-0.00728
-0.01563
-0.02030
-0.02003
-0.01467
-0.00650
-0.00009
0.00072
-0.00391
-0.00979
-0.01163
-0.00617
0.00618
0.02124
0.03304
0.03719
0.03337
0.02470
0.01480
0.00558
-0.00236
-0.00862
-0.01352
-0.01903
-0.02669
-0.03471
-0.03879
-0.03613
-0.02760
-0.01619
-0.00486
0.00379
0.00761
0.00647
0.00395
0.00591
0.01573
0.03087
0.04488
0.05251
0.05234
0.04580
0.03553
0.02485
0.01652
0.01055
0.00396
-0.00672
-0.02355
-0.04660
-0.07289
-0.09691
-0.11679
-0.13863
-0.16590
-0.18283
-0.15947
-0.08077
0.03874
0.17616
0.32009
0.44964
0.50780
0.43402
0.23508
-0.00311
-0.19157
-0.30755
-0.37569
-0.40731
-0.38761
-0.31021
-0.19440
-0.06750
0.05000
0.14170
0.19526
0.21107
0.20211
0.18116
0.15234
0.11527
0.07210
0.02813
-0.01127
-0.04215
-0.06160
-0.06896
-0.06757
-0.06351
-0.06116
-0.06015
-0.05687
-0.04817
-0.03361
-0.01556
0.00217
0.01619
0.02453
0.02690
0.02505
0.02216
0.02082
0.02172
0.02447
0.02765
0.02768
0.02045
0.00632
-0.00823
-0.01608
-0.01568
-0.01076
-0.00577
-0.00317
-0.00415
-0.00906
-0.01613
-0.02095
-0.01922
-0.01069
0.00037
0.00901
0.01279
0.01151
0.00629
0.00003
-0.00329
-0.00126
0.00500
0.01157
0.01412
0.01052
0.00260
-0.00516
-0.00920
-0.00887
-0.00528
0.00002
0.00447
0.00489
0.00017
-0.00682
-0.01123
-0.00996
-0.00372
0.00414
0.00983
0.01095
0.00714
0.00017
-0.00658
-0.00936
-0.00631
0.00094
0.00792
0.01039
0.00711
0.00023
-0.00651
-0.00981
-0.00815
-0.00246
0.00397
0.00739
0.00603
0.00111
-0.00437
-0.00738
-0.00609
-0.00069
0.00640
0.01163
0.01197
0.00630
-0.00368
-0.01314
-0.01608
-0.01003
0.00089
0.00917
0.01043
0.00609
-0.00036
-0.00668
-0.01073
-0.00923
-0.00123
0.00859
0.01369
0.01204
0.00615
-0.00147
-0.00884
-0.01206
-0.00752
0.00236
0.00997
0.01003
0.00368
-0.00472
-0.01116
-0.01252
-0.00753
0.00116
0.00823
0.01030
0.00797
0.00297
-0.00378
-0.00998
-0.01114
-0.00485
0.00528
0.01227
0.01199
0.00572
-0.00217
-0.00732
-0.00722
-0.00230
0.00394
0.00739
0.00622
0.00149
-0.00467
-0.01010
-0.01250
-0.01002
-0.00304
0.00514
0.00998
0.00870
0.00244
-0.00446
-0.00786
-0.00656
-0.00171
0.00469
0.01004
0.01145
0.00806
0.00236
-0.00171
-0.00182
0.00163
0.00622
0.00887
0.00716
0.00029
-0.01014
-0.01979
-0.02348
-0.01924
-0.01050
-0.00298
0.00044
0.00063
-0.00094
-0.00355
-0.00502
-0.00083
0.01152
0.02796
0.03990
0.04136
0.03241
0.01680
-0.00056
-0.01376
-0.01842
-0.01616
-0.01423
-0.01833
-0.02721
-0.03502
-0.03726
-0.03307
-0.02351
-0.01024
0.00371
0.01412
0.01822
0.01690
0.01419
0.01474
0.02118
0.03240
0.04388
0.05018
0.04840
0.03967
0.02739
0.01417
0.00129
-0.00969
-0.01750
-0.02483
-0.03800
-0.05961
-0.08479
-0.10977
-0.13888
-0.17178
-0.18673
-0.15270
-0.06185
0.06384
0.20051
0.33626
0.44597
0.47546
0.38143
0.18686
-0.02733
-0.19348
-0.30288
-0.37536
-0.40968
-0.38486
-0.29551
-0.16438
-0.02517
0.09295
0.17034
0.20213
0.19965
0.18014
0.15449
0.12595
0.09516
0.06186
0.02562
-0.01083
-0.04102
-0.06018
-0.06890
-0.07008
-0.06545
-0.05711
-0.04910
-0.04417
-0.04049
-0.03363
-0.02099
-0.00381
0.01381
0.02724
0.03383
0.03373
0.02874
0.02130
0.01495
0.01353
0.01739
0.02163
0.02044
0.01256
0.00105
-0.01039
-0.01852
-0.02026
-0.01491
-0.00637
-0.00085
-0.00178
-0.00765
-0.01422
-0.01746
-0.01499
-0.00705
0.00315
0.01118
0.01418
0.01174
0.00548
-0.00103
-0.00319
0.00084
0.00740
0.01076
0.00912
0.00505
0.00049
-0.00486
-0.00986
-0.01072
-0.00569
0.00172
0.00621
0.00563
0.00134
-0.00430
-0.00893
-0.00989
-0.00538
0.00297
0.00994
0.01069
0.00522
-0.00203
-0.00681
-0.00787
-0.00537
0.00071
0.00856
0.01315
0.00990
0.00008
-0.00959
-0.01337
-0.01058
-0.00354
0.00501
0.01130
0.01108
0.00389
-0.00527
-0.01047
-0.00960
-0.00400
0.00374
0.01038
0.01246
0.00835
-0.00029
-0.00914
-0.01341
-0.01052
-0.00206
0.00681
0.01089
0.00831
0.00093
-0.00738
-0.01230
-0.01066
-0.00248
0.00803
0.01462
0.01331
0.00517
-0.00465
-0.01072
-0.01050
-0.00473
0.00371
0.01069
0.01204
0.00614
-0.00417
-0.01299
-0.01527
-0.01001
-0.00048
0.00829
0.01242
0.01031
0.00310
-0.00532
-0.01012
-0.00905
-0.00370
0.00289
0.00823
0.01031
0.00766
0.00095
-0.00636
-0.00964
-0.00599
0.00301
0.01107
0.01157
0.00387
-0.00586
-0.01113
-0.01102
-0.00818
-0.00351
0.00311
0.00831
0.00691
-0.00101
-0.00896
-0.01129
-0.00762
0.00005
0.00932
0.01574
0.01502
0.00873
0.00298
0.00068
0.00004
0.00033
0.00282
0.00592
0.00499
-0.00185
-0.01130
-0.01878
-0.02180
-0.02001
-0.01447
-0.00735
-0.00104
0.00275
0.00308
0.00070
-0.00073
0.00373
0.01563
0.03059
0.04115
0.04170
0.03110
0.01277
-0.00656
-0.01982
-0.02372
-0.02092
-0.01787
-0.01986
-0.02696
-0.03434
-0.03663
-0.03180
-0.02100
-0.00676
0.00719
0.01652
0.01987
0.02048
0.02231
0.02602
0.03063
0.03645
0.04337
0.04813
0.04607
0.03564
0.01965
0.00270
-0.01143
-0.02118
-0.02831
-0.03777
-0.05344
-0.07331
-0.09338
-0.11682
-0.14934
-0.17881
-0.17173
-0.10431
0.01142
0.14700
0.28792
0.41733
0.48133
0.41708
0.23081
0.01339
-0.14574
-0.23663
-0.30129
-0.35641
-0.37623
-0.33626
-0.24120
-0.11377
0.01887
0.12781
0.19149
0.20857
0.19525
0.16960
0.14143
0.11265
0.08160
0.04711
0.01088
-0.02319
-0.05118
-0.06980
-0.07669
-0.07260
-0.06250
-0.05232
-0.04472
-0.03898
-0.03380
-0.02775
-0.01808
-0.00244
0.01689
0.03257
0.03799
0.03345
0.02519
0.01878
0.01563
0.01550
0.01812
0.02079
0.01856
0.00964
-0.00197
-0.01110
-0.01582
-0.01636
-0.01341
-0.00917
-0.00700
-0.00842
-0.01204
-0.01534
-0.01599
-0.01204
-0.00316
0.00797
0.01629
0.01754
0.01181
0.00355
-0.00228
-0.00369
-0.00095
0.00504
0.01160
0.01359
0.00748
-0.00388
-0.01310
-0.01516
-0.01079
-0.00364
0.00356
0.00904
0.01077
0.00725
-0.00035
-0.00809
-0.01148
-0.00858
-0.00158
0.00459
0.00631
0.00382
-0.00036
-0.00427
-0.00660
-0.00536
0.00061
0.00869
0.01309
0.01012
0.00194
-0.00574
-0.00913
-0.00808
-0.00394
0.00175
0.00630
0.00645
0.00138
-0.00571
-0.00977
-0.00770
-0.00048
0.00766
0.01231
0.01166
0.00661
-0.00088
-0.00846
-0.01337
-0.01304
-0.00684
0.00264
0.01027
0.01142
0.00546
-0.00359
-0.00993
-0.00985
-0.00366
0.00514
0.01178
0.01227
0.00590
-0.00360
-0.01038
-0.01085
-0.00545
0.00284
0.01006
0.01248
0.00830
-0.00100
-0.01091
-0.01561
-0.01135
-0.00030
0.01009
0.01321
0.00830
-0.00059
-0.00852
-0.01172
-0.00883
-0.00201
0.00430
0.00716
0.00673
0.00411
-0.00028
-0.00504
-0.00676
-0.00267
0.00577
0.01300
0.01382
0.00764
-0.00159
-0.00936
-0.01320
-0.01180
-0.00483
0.00408
0.00793
0.00340
-0.00493
-0.01043
-0.01142
-0.00898
-0.00252
0.00736
0.01479
0.01380
0.00620
-0.00085
-0.00360
-0.00300
0.00084
0.00850
0.01606
0.01662
0.00821
-0.00408
-0.01401
-0.01849
-0.01681
-0.01011
-0.00232
0.00164
-0.00047
-0.00733
-0.01550
-0.02004
-0.01637
-0.00467
0.00920
0.01923
0.02426
0.02631
0.02663
0.02497
0.02145
0.01725
0.01314
0.00770
-0.00167
-0.01507
-0.02880
-0.03858
-0.04249
-0.04003
-0.03118
-0.01857
-0.00798
-0.00362
-0.00381
-0.00344
0.00077
0.00924
0.02123
0.03445
0.04463
0.04827
0.04528
0.03829
0.03082
0.02606
0.02451
0.02241
0.01514
0.00169
-0.01622
-0.03784
-0.06205
-0.08332
-0.09632
-0.10742
-0.13174
-0.16844
-0.18602
-0.14821
-0.05167
0.07862
0.22529
0.37956
0.49972
0.50728
0.36020
0.11660
-0.10886
-0.25038
-0.32549
-0.37058
-0.38406
-0.34649
-0.26152
-0.15182
-0.03475
0.07649
0.16207
0.20674
0.21509
0.20239
0.17603
0.13626
0.08861
0.04371
0.00708
-0.02231
-0.04457
-0.05742
-0.06224
-0.06502
-0.06916
-0.07142
-0.06691
-0.05472
-0.03728
-0.01773
0.00029
0.01290
0.01862
0.01958
0.01930
0.02040
0.02405
0.02928
0.03292
0.03178
0.02498
0.01397
0.00175
-0.00791
-0.01241
-0.01200
-0.00864
-0.00460
-0.00268
-0.00540
-0.01188
-0.01729
-0.01719
-0.01125
-0.00231
0.00597
0.00982
0.00701
-0.00034
-0.00625
-0.00626
-0.00120
0.00540
0.01112
0.01405
0.01158
0.00345
-0.00579
-0.01046
-0.00897
-0.00334
0.00386
0.00982
0.01078
0.00501
-0.00402
-0.00997
-0.00967
-0.00503
0.00055
0.00526
0.00762
0.00530
-0.00190
-0.00941
-0.01148
-0.00699
0.00039
0.00648
0.00888
0.00668
0.00112
-0.00422
-0.00609
-0.00405
0.00057
0.00600
0.00948
0.00795
0.00150
-0.00593
-0.01023
-0.00984
-0.00502
0.00272
0.01013
0.01343
0.01046
0.00164
-0.00940
-0.01607
-0.01324
-0.00284
0.00744
0.01137
0.00826
0.00082
-0.00726
-0.01168
-0.00938
-0.00150
0.00698
0.01125
0.00964
0.00354
-0.00368
-0.00817
-0.00766
-0.00266
0.00434
0.01006
0.01116
0.00604
-0.00297
-0.01043
-0.01179
-0.00668
0.00152
0.00835
0.01037
0.00625
-0.00232
-0.01062
-0.01359
-0.00966
-0.00176
0.00557
0.00944
0.00905
0.00469
-0.00210
-0.00762
-0.00770
-0.00192
0.00546
0.00997
0.01082
0.00906
0.00448
-0.00289
-0.00997
-0.01178
-0.00612
0.00313
0.00822
0.00450
-0.00475
-0.01238
-0.01506
-0.01407
-0.00980
-0.00084
0.01073
0.01816
0.01660
0.00835
0.00026
-0.00213
0.00218
0.00964
0.01468
0.01385
0.00779
-0.00090
-0.00994
-0.01683
-0.01871
-0.01520
-0.00973
-0.00667
-0.00788
-0.01213
-0.01614
-0.01613
-0.01000
0.00151
0.01537
0.02720
0.03261
0.03023
0.02338
0.01711
0.01377
0.01244
0.01125
0.00816
0.00081
-0.01170
-0.02649
-0.03809
-0.04263
-0.03991
-0.03171
-0.02056
-0.01048
-0.00546
-0.00534
-0.00532
-0.00069
0.00958
0.02331
0.03657
0.04525
0.04727
0.04361
0.03681
0.02974
0.02549
0.02543
0.02645
0.02235
0.00922
-0.01176
-0.03638
-0.06035
-0.07994
-0.09338
-0.10543
-0.12710
-0.16120
-0.18635
-0.16703
-0.08654
0.03988
0.18902
0.34614
0.47974
0.52256
0.41883
0.19548
-0.04523
-0.21726
-0.31260
-0.36508
-0.38677
-0.36479
-0.29646
-0.19687
-0.08121
0.03717
0.13775
0.20124
0.22515
0.22014
0.19502
0.15380
0.10318
0.05354
0.01286
-0.01614
-0.03444
-0.04517
-0.05297
-0.06160
-0.07121
-0.07824
-0.07809
-0.06813
-0.04924
-0.02589
-0.00460
0.00957
0.01630
0.01920
0.02156
0.02419
0.02737
0.03187
0.03656
0.03723
0.03048
0.01770
0.00348
-0.00818
-0.01493
-0.01550
-0.01105
-0.00598
-0.00477
-0.00824
-0.01360
-0.01719
-0.01613
-0.00908
0.00188
0.01078
0.01219
0.00643
-0.00151
-0.00751
-0.01020
-0.00881
-0.00275
0.00607
0.01318
0.01468
0.01012
0.00273
-0.00268
-0.00288
0.00163
0.00722
0.00970
0.00639
-0.00258
-0.01354
-0.02020
-0.01769
-0.00723
0.00429
0.01065
0.01128
0.00868
0.00359
-0.00364
-0.00915
-0.00781
-0.00002
0.00748
0.00836
0.00278
-0.00375
-0.00625
-0.00462
-0.00185
0.00087
0.00456
0.00788
0.00644
-0.00065
-0.00774
-0.00931
-0.00590
-0.00090
0.00465
0.01008
0.01208
0.00784
-0.00071
-0.00874
-0.01241
-0.01003
-0.00249
0.00564
0.00855
0.00457
-0.00230
-0.00716
-0.00846
-0.00659
-0.00134
0.00651
0.01284
0.01279
0.00577
-0.00392
-0.01079
-0.01115
-0.00474
0.00441
0.01028
0.00966
0.00414
-0.00267
-0.00773
-0.00893
-0.00535
0.00166
0.00833
0.01024
0.00533
-0.00397
-0.01212
-0.01469
-0.01103
-0.00320
0.00575
0.01217
0.01292
0.00786
0.00035
-0.00553
-0.00736
-0.00452
0.00186
0.00878
0.01218
0.00919
0.00042
-0.00942
-0.01417
-0.01116
-0.00328
0.00425
0.00790
0.00627
-0.00052
-0.00929
-0.01408
-0.01118
-0.00293
0.00545
0.01093
0.01243
0.00884
0.00112
-0.00521
-0.00433
0.00316
0.01103
0.01453
0.01325
0.00788
-0.00096
-0.01033
-0.01565
-0.01507
-0.01078
-0.00612
-0.00380
-0.00574
-0.01144
-0.01658
-0.01626
-0.00990
-0.00082
0.00887
0.01937
0.02896
0.03290
0.02902
0.02168
0.01688
0.01518
0.01199
0.00393
-0.00778
-0.01991
-0.03069
-0.03925
-0.04312
-0.03877
-0.02600
-0.01078
-0.00161
-0.00177
-0.00618
-0.00715
-0.00165
0.00856
0.02155
0.03587
0.04754
0.05131
0.04643
0.03785
0.03063
0.02600
0.02299
0.02024
0.01482
0.00278
-0.01726
-0.04252
-0.06805
-0.08911
-0.10402
-0.11823
-0.14065
-0.16742
-0.17280
-0.12866
-0.03237
0.09682
0.24357
0.39310
0.49860
0.48764
0.33166
0.09419
-0.11969
-0.25639
-0.33321
-0.37731
-0.38362
-0.33804
-0.24861
-0.13720
-0.02064
0.08616
0.16449
0.20391
0.21158
0.19995
0.17308
0.13169
0.08319
0.03830
0.00216
-0.02537
-0.04422
-0.05418
-0.05825
-0.06129
-0.06527
-0.06780
-0.06512
-0.05523
-0.03879
-0.01881
-0.00007
0.01271
0.01750
0.01657
0.01502
0.01687
0.02220
0.02826
0.03249
0.03330
0.02904
0.01902
0.00575
-0.00548
-0.01063
-0.00996
-0.00707
-0.00540
-0.00636
-0.00988
-0.01516
-0.01986
-0.02008
-0.01333
-0.00191
0.00802
0.01157
0.00899
0.00408
0.00007
-0.00205
-0.00218
-0.00018
0.00330
0.00610
0.00575
0.00183
-0.00292
-0.00442
-0.00068
0.00600
0.01060
0.00947
0.00327
-0.00396
-0.00847
-0.00950
-0.00816
-0.00487
0.00080
0.00765
0.01192
0.01004
0.00205
-0.00813
-0.01524
-0.01562
-0.00908
0.00065
0.00782
0.00872
0.00423
-0.00161
-0.00522
-0.00490
-0.00027
0.00728
0.01357
0.01386
0.00763
-0.00056
-0.00588
-0.00728
-0.00607
-0.00328
0.00015
0.00231
0.00143
-0.00200
-0.00501
-0.00475
-0.00148
0.00149
0.00180
0.00032
-0.00163
-0.00501
-0.00961
-0.01062
-0.00347
0.00856
0.01669
0.01690
0.01291
0.00840
0.00203
-0.00703
-0.01376
-0.01209
-0.00305
0.00588
0.00833
0.00364
-0.00484
-0.01271
-0.01560
-0.01052
0.00143
0.01370
0.01823
0.01230
0.00076
-0.00894
-0.01246
-0.00942
-0.00204
0.00555
0.00903
0.00719
0.00255
-0.00179
-0.00449
-0.00508
-0.00275
0.00246
0.00822
0.01088
0.00820
0.00108
-0.00650
-0.00956
-0.00623
-0.00042
0.00164
-0.00233
-0.00937
-0.01568
-0.01886
-0.01652
-0.00724
0.00623
0.01812
0.02491
0.02679
0.02400
0.01618
0.00590
-0.00154
-0.00347
-0.00180
0.00137
0.00583
0.00894
0.00392
-0.01292
-0.03488
-0.04955
-0.05096
-0.04334
-0.03241
-0.01759
0.00426
0.03018
0.05085
0.05905
0.05587
0.04814
0.04116
0.03460
0.02402
0.00571
-0.01904
-0.04258
-0.05436
-0.04894
-0.03228
-0.01782
-0.01431
-0.01893
-0.02298
-0.02127
-0.01435
-0.00504
0.00413
0.01135
0.01597
0.01846
0.01983
0.02160
0.02584
0.03353
0.04231
0.04734
0.04517
0.03645
0.02476
0.01349
0.00371
-0.00578
-0.01711
-0.03207
-0.05102
-0.07175
-0.09097
-0.10969
-0.13450
-0.16528
-0.18124
-0.15139
-0.06498
0.05956
0.19998
0.34381
0.46178
0.49221
0.38845
0.18087
-0.03811
-0.19694
-0.29248
-0.35372
-0.38779
-0.37803
-0.31497
-0.20806
-0.07646
0.05509
0.15764
0.21189
0.22158
0.20564
0.17878
0.14530
0.10695
0.06764
0.03035
-0.00442
-0.03566
-0.06036
-0.07571
-0.08101
-0.07774
-0.06909
-0.05887
-0.04920
-0.03949
-0.02840
-0.01597
-0.00313
0.00986
0.02266
0.03259
0.03580
0.03210
0.02641
0.02340
0.02269
0.02112
0.01753
0.01258
0.00631
-0.00145
-0.00948
-0.01576
-0.01876
-0.01761
-0.01259
-0.00621
-0.00206
-0.00193
-0.00451
-0.00698
-0.00747
-0.00607
-0.00384
-0.00104
0.00267
0.00603
0.00653
0.00412
0.00213
0.00287
0.00504
0.00717
0.00981
0.01176
0.00850
-0.00145
-0.01178
-0.01468
-0.00956
-0.00225
0.00240
0.00362
0.00226
-0.00090
-0.00432
-0.00554
-0.00295
0.00223
0.00650
0.00708
0.00418
-0.00016
-0.00441
-0.00745
-0.00754
-0.00360
0.00266
0.00736
0.00755
0.00352
-0.00161
-0.00442
-0.00361
-0.00034
0.00353
0.00636
0.00646
0.00264
-0.00395
-0.00951
-0.01025
-0.00558
0.00146
0.00678
0.00821
0.00603
0.00170
-0.00304
-0.00631
-0.00636
-0.00270
0.00276
0.00613
0.00449
-0.00096
-0.00577
-0.00673
-0.00438
-0.00106
0.00200
0.00471
0.00673
0.00694
0.00458
0.00047
-0.00311
-0.00404
-0.00189
0.00195
0.00485
0.00410
-0.00092
-0.00718
-0.01008
-0.00804
-0.00368
0.00013
0.00305
0.00509
0.00465
0.00133
-0.00171
-0.00116
0.00199
0.00413
0.00389
0.00283
0.00192
0.00002
-0.00339
-0.00593
-0.00435
0.00131
0.00690
0.00815
0.00460
-0.00107
-0.00629
-0.00980
-0.01041
-0.00714
-0.00129
0.00343
0.00402
0.00081
-0.00326
-0.00503
-0.00303
0.00178
0.00708
0.01120
0.01328
0.01210
0.00702
0.00048
-0.00307
-0.00204
0.00064
0.00154
0.00003
-0.00317
-0.00802
-0.01373
-0.01741
-0.01639
-0.01118
-0.00508
-0.00135
-0.00079
-0.00163
-0.00161
0.00028
0.00443
0.01178
0.02221
0.03220
0.03651
0.03246
0.02135
0.00682
-0.00690
-0.01637
-0.02093
-0.02282
-0.02462
-0.02708
-0.02958
-0.03097
-0.02973
-0.02431
-0.01438
-0.00192
0.00907
0.01521
0.01700
0.01820
0.02172
0.02718
0.03331
0.04012
0.04664
0.04865
0.04239
0.02997
0.01738
0.00692
-0.00437
-0.01867
-0.03455
-0.05108
-0.06939
-0.08935
-0.11054
-0.13621
-0.16579
-0.18069
-0.15127
-0.06571
0.05915
0.20092
0.34507
0.46083
0.48796
0.38283
0.17660
-0.04046
-0.19910
-0.29629
-0.35921
-0.39274
-0.37882
-0.30835
-0.19355
-0.05789
0.07081
0.16518
0.21151
0.21758
0.20087
0.17267
0.13719
0.09839
0.06009
0.02314
-0.01175
-0.04079
-0.06037
-0.07095
-0.07478
-0.07234
-0.06416
-0.05387
-0.04563
-0.03922
-0.03060
-0.01742
-0.00178
0.01276
0.02427
0.03189
0.03443
0.03162
0.02596
0.02153
0.02027
0.02012
0.01747
0.01126
0.00350
-0.00361
-0.00949
-0.01405
-0.01636
-0.01516
-0.01064
-0.00536
-0.00278
-0.00436
-0.00802
-0.01007
-0.00861
-0.00452
0.00052
0.00553
0.00924
0.00956
0.00578
0.00044
-0.00258
-0.00146
0.00264
0.00693
0.00859
0.00649
0.00222
-0.00169
-0.00443
-0.00624
-0.00608
-0.00262
0.00237
0.00454
0.00147
-0.00479
-0.00959
-0.00938
-0.00383
0.00442
0.01165
0.01486
0.01234
0.00432
-0.00580
-0.01246
-0.01220
-0.00675
-0.00082
0.00231
0.00222
0.00004
-0.00252
-0.00368
-0.00266
0.00013
0.00417
0.00887
0.01218
0.01093
0.00415
-0.00462
-0.00955
-0.00768
-0.00129
0.00447
0.00604
0.00311
-0.00275
-0.00924
-0.01324
-0.01191
-0.00529
0.00304
0.00871
0.00953
0.00619
0.00121
-0.00264
-0.00353
-0.00108
0.00344
0.00739
0.00828
0.00569
0.00105
-0.00397
-0.00758
-0.00770
-0.00378
0.00138
0.00377
0.00203
-0.00214
-0.00630
-0.00817
-0.00587
0.00018
0.00624
0.00859
0.00716
0.00426
0.00120
-0.00172
-0.00341
-0.00291
-0.00124
-0.00021
-0.00024
-0.00084
-0.00211
-0.00371
-0.00330
0.00126
0.00817
0.01235
0.01036
0.00352
-0.00412
-0.00934
-0.01083
-0.00878
-0.00442
0.00017
0.00286
0.00242
-0.00069
-0.00437
-0.00613
-0.00444
0.00078
0.00786
0.01301
0.01245
0.00644
-0.00041
-0.00408
-0.00450
-0.00304
0.00028
0.00504
0.00851
0.00795
0.00365
-0.00218
-0.00763
-0.01125
-0.01198
-0.01091
-0.01106
-0.01344
-0.01506
-0.01256
-0.00647
0.00007
0.00579
0.01252
0.02185
0.03201
0.03879
0.03864
0.03037
0.01556
-0.00107
-0.01361
-0.01987
-0.02329
-0.02802
-0.03363
-0.03643
-0.03442
-0.02853
-0.02048
-0.01178
-0.00416
0.00146
0.00632
0.01220
0.01901
0.02575
0.03282
0.04073
0.04727
0.04892
0.04473
0.03649
0.02600
0.01459
0.00399
-0.00488
-0.01355
-0.02509
-0.04161
-0.06252
-0.08425
-0.10397
-0.12480
-0.15106
-0.17288
-0.16333
-0.10080
0.01014
0.14826
0.29484
0.42541
0.49040
0.43610
0.26104
0.03511
-0.15557
-0.27626
-0.34539
-0.38337
-0.38353
-0.33148
-0.23110
-0.10450
0.02151
0.12371
0.18743
0.21144
0.20652
0.18580
0.15683
0.12180
0.08218
0.04121
0.00309
-0.02883
-0.05278
-0.06810
-0.07461
-0.07321
-0.06705
-0.06051
-0.05545
-0.04931
-0.03854
-0.02325
-0.00685
0.00780
0.01970
0.02802
0.03176
0.03173
0.03060
0.03018
0.02946
0.02641
0.02062
0.01328
0.00534
-0.00284
-0.01060
-0.01630
-0.01782
-0.01454
-0.00928
-0.00663
-0.00842
-0.01211
-0.01421
-0.01307
-0.00802
0.00091
0.01081
0.01586
0.01238
0.00346
-0.00352
-0.00415
-0.00027
0.00403
0.00669
0.00709
0.00446
-0.00052
-0.00484
-0.00599
-0.00404
-0.00008
0.00500
0.00898
0.00856
0.00287
-0.00498
-0.01087
-0.01275
-0.01016
-0.00349
0.00484
0.01030
0.00951
0.00330
-0.00384
-0.00734
-0.00587
-0.00169
0.00217
0.00448
0.00511
0.00333
-0.00062
-0.00376
-0.00304
0.00040
0.00275
0.00255
0.00143
0.00031
-0.00171
-0.00412
-0.00422
-0.00078
0.00379
0.00637
0.00609
0.00347
-0.00110
-0.00614
-0.00834
-0.00556
0.00018
0.00443
0.00458
0.00156
-0.00234
-0.00576
-0.00793
-0.00719
-0.00195
0.00623
0.01223
0.01178
0.00584
-0.00058
-0.00369
-0.00359
-0.00203
0.00033
0.00298
0.00394
0.00145
-0.00340
-0.00747
-0.00875
-0.00710
-0.00301
0.00252
0.00720
0.00834
0.00504
-0.00057
-0.00483
-0.00561
-0.00378
-0.00125
0.00149
0.00448
0.00617
0.00468
0.00067
-0.00286
-0.00348
-0.00104
0.00262
0.00488
0.00420
0.00124
-0.00209
-0.00443
-0.00524
-0.00422
-0.00189
0.00001
-0.00017
-0.00232
-0.00514
-0.00722
-0.00703
-0.00318
0.00372
0.01037
0.01323
0.01143
0.00692
0.00262
0.00058
0.00117
0.00312
0.00457
0.00406
0.00124
-0.00313
-0.00769
-0.01120
-0.01276
-0.01168
-0.00833
-0.00526
-0.00555
-0.00937
-0.01305
-0.01266
-0.00727
0.00196
0.01389
0.02664
0.03603
0.03793
0.03214
0.02233
0.01216
0.00306
-0.00486
-0.01170
-0.01792
-0.02418
-0.03028
-0.03481
-0.03619
-0.03371
-0.02749
-0.01820
-0.00758
0.00169
0.00770
0.01108
0.01471
0.02122
0.03071
0.04035
0.04660
0.04779
0.04470
0.03883
0.03114
0.02232
0.01307
0.00310
-0.00897
-0.02413
-0.04221
-0.06215
-0.08197
-0.10017
-0.11954
-0.14507
-0.17081
-0.17236
-0.12351
-0.02110
0.11506
0.26252
0.39898
0.48365
0.46276
0.31696
0.09628
-0.11291
-0.25725
-0.34047
-0.38449
-0.39093
-0.34801
-0.25597
-0.13268
-0.00356
0.10614
0.17801
0.20857
0.20868
0.19183
0.16491
0.12970
0.08862
0.04634
0.00771
-0.02434
-0.04868
-0.06441
-0.07084
-0.06958
-0.06507
-0.06118
-0.05791
-0.05240
-0.04222
-0.02701
-0.00868
0.00871
0.02084
0.02646
0.02792
0.02802
0.02775
0.02745
0.02758
0.02724
0.02401
0.01660
0.00653
-0.00340
-0.01106
-0.01509
-0.01474
-0.01065
-0.00566
-0.00370
-0.00679
-0.01250
-0.01549
-0.01283
-0.00684
-0.00144
0.00251
0.00575
0.00687
0.00403
-0.00050
-0.00187
0.00130
0.00578
0.00846
0.00882
0.00717
0.00370
-0.00049
-0.00353
-0.00417
-0.00224
0.00126
0.00406
0.00401
0.00126
-0.00243
-0.00617
-0.00960
-0.01067
-0.00693
0.00053
0.00684
0.00787
0.00363
-0.00229
-0.00561
-0.00425
0.00023
0.00451
0.00678
0.00726
0.00578
0.00145
-0.00450
-0.00775
-0.00515
0.00087
0.00467
0.00392
0.00111
-0.00126
-0.00342
-0.00540
-0.00499
-0.00091
0.00442
0.00703
0.00516
0.00012
-0.00512
-0.00754
-0.00571
-0.00079
0.00448
0.00752
0.00693
0.00286
-0.00264
-0.00645
-0.00658
-0.00324
0.00180
0.00582
0.00589
0.00132
-0.00483
-0.00830
-0.00724
-0.00236
0.00470
0.01126
0.01373
0.01038
0.00302
-0.00484
-0.01019
-0.01094
-0.00690
-0.00124
0.00157
0.00029
-0.00243
-0.00406
-0.00427
-0.00303
0.00036
0.00524
0.00928
0.01076
0.00932
0.00487
-0.00167
-0.00698
-0.00769
-0.00408
0.00044
0.00320
0.00359
0.00167
-0.00202
-0.00529
-0.00554
-0.00273
0.00038
0.00137
0.00020
-0.00195
-0.00396
-0.00467
-0.00320
-0.00007
0.00316
0.00560
0.00726
0.00740
0.00498
0.00118
-0.00054
0.00171
0.00564
0.00736
0.00568
0.00237
-0.00134
-0.00605
-0.01154
-0.01495
-0.01341
-0.00781
-0.00250
-0.00132
-0.00461
-0.00949
-0.01225
-0.01038
-0.00324
0.00782
0.01935
0.02688
0.02818
0.02530
0.02204
0.01914
0.01393
0.00516
-0.00419
-0.01073
-0.01522
-0.02112
-0.02932
-0.03649
-0.03835
-0.03307
-0.02238
-0.01078
-0.00305
-0.00047
0.00041
0.00414
0.01236
0.02384
0.03618
0.04588
0.04912
0.04536
0.03865
0.03315
0.02863
0.02237
0.01387
0.00448
-0.00679
-0.02302
-0.04447
-0.06644
-0.08346
-0.09567
-0.11108
-0.13788
-0.16867
-0.17491
-0.12743
-0.02412
0.11175
0.25781
0.39664
0.48884
0.47223
0.31913
0.08533
-0.12807
-0.26351
-0.33567
-0.37606
-0.38315
-0.33893
-0.24651
-0.13001
-0.01159
0.09386
0.17103
0.20885
0.21160
0.19451
0.16826
0.13379
0.09054
0.04357
0.00132
-0.03010
-0.04953
-0.05981
-0.06514
-0.06842
-0.06987
-0.06802
-0.06198
-0.05190
-0.03773
-0.01974
-0.00077
0.01397
0.02114
0.02245
0.02253
0.02436
0.02740
0.02959
0.02944
0.02622
0.01953
0.01025
0.00101
-0.00553
-0.00838
-0.00808
-0.00623
-0.00514
-0.00639
-0.00908
-0.01111
-0.01194
-0.01227
-0.01125
-0.00667
0.00090
0.00657
0.00588
0.00027
-0.00451
-0.00490
-0.00216
0.00128
0.00514
0.00964
0.01281
0.01203
0.00752
0.00248
-0.00024
-0.00056
-0.00027
-0.00060
-0.00140
-0.00255
-0.00496
-0.00916
-0.01300
-0.01243
-0.00581
0.00343
0.00956
0.00961
0.00544
0.00120
-0.00067
-0.00083
-0.00054
0.00078
0.00370
0.00560
0.00292
-0.00336
-0.00780
-0.00700
-0.00278
0.00182
0.00580
0.00799
0.00599
-0.00035
-0.00715
-0.01018
-0.00832
-0.00281
0.00400
0.00866
0.00830
0.00369
-0.00121
-0.00325
-0.00245
-0.00041
0.00186
0.00373
0.00387
0.00068
-0.00543
-0.01087
-0.01132
-0.00599
0.00152
0.00699
0.00893
0.00781
0.00412
-0.00082
-0.00394
-0.00271
0.00185
0.00594
0.00663
0.00384
-0.00084
-0.00585
-0.00957
-0.01018
-0.00704
-0.00172
0.00351
0.00719
0.00789
0.00417
-0.00252
-0.00685
-0.00477
0.00124
0.00512
0.00467
0.00281
0.00181
0.00038
-0.00262
-0.00493
-0.00346
0.00163
0.00662
0.00744
0.00297
-0.00380
-0.00817
-0.00780
-0.00398
0.00065
0.00406
0.00447
0.00108
-0.00419
-0.00767
-0.00750
-0.00464
-0.00063
0.00373
0.00735
0.00864
0.00720
0.00479
0.00395
0.00536
0.00707
0.00684
0.00469
0.00186
-0.00179
-0.00711
-0.01259
-0.01469
-0.01216
-0.00777
-0.00518
-0.00598
-0.00939
-0.01290
-0.01324
-0.00869
-0.00021
0.01012
0.02053
0.02873
0.03212
0.03039
0.02595
0.02051
0.01327
0.00369
-0.00609
-0.01353
-0.01905
-0.02520
-0.03243
-0.03732
-0.03618
-0.02932
-0.02047
-0.01285
-0.00726
-0.00337
-0.00008
0.00510
0.01438
0.02680
0.03863
0.04667
0.04995
0.04868
0.04348
0.03587
0.02801
0.02117
0.01445
0.00539
-0.00810
-0.02636
-0.04835
-0.07146
-0.09147
-0.10675
-0.12369
-0.14986
-0.17564
-0.17100
-0.11095
0.00037
0.13990
0.28905
0.42688
0.50503
0.46235
0.28632
0.04569
-0.16137
-0.28856
-0.35499
-0.38826
-0.38435
-0.32802
-0.22588
-0.10389
0.01402
0.11241
0.17978
0.21084
0.21122
0.19212
0.16099
0.12113
0.07729
0.03581
0.00001
-0.02975
-0.05175
-0.06338
-0.06626
-0.06613
-0.06621
-0.06438
-0.05802
-0.04752
-0.03396
-0.01796
-0.00206
0.00969
0.01616
0.02002
0.02307
0.02452
0.02453
0.02546
0.02776
0.02794
0.02315
0.01526
0.00788
0.00149
-0.00529
-0.01090
-0.01183
-0.00845
-0.00590
-0.00791
-0.01288
-0.01700
-0.01810
-0.01521
-0.00820
0.00021
0.00557
0.00649
0.00566
0.00489
0.00306
0.00056
0.00117
0.00659
0.01224
0.01212
0.00583
-0.00187
-0.00672
-0.00763
-0.00518
-0.00021
0.00535
0.00801
0.00517
-0.00172
-0.00775
-0.00926
-0.00677
-0.00286
0.00077
0.00325
0.00339
0.00050
-0.00403
-0.00690
-0.00519
0.00090
0.00761
0.01069
0.00889
0.00420
-0.00103
-0.00561
-0.00820
-0.00683
-0.00142
0.00452
0.00675
0.00442
0.00014
-0.00346
-0.00523
-0.00426
-0.00016
0.00503
0.00744
0.00507
-0.00040
-0.00565
-0.00808
-0.00660
-0.00209
0.00274
0.00537
0.00520
0.00283
-0.00114
-0.00525
-0.00687
-0.00447
0.00052
0.00531
0.00778
0.00670
0.00202
-0.00393
-0.00689
-0.00422
0.00209
0.00683
0.00669
0.00341
0.00059
-0.00143
-0.00461
-0.00808
-0.00792
-0.00306
0.00223
0.00336
0.00048
-0.00285
-0.00403
-0.00287
-0.00012
0.00346
0.00681
0.00855
0.00761
0.00392
-0.00096
-0.00410
-0.00337
0.00021
0.00312
0.00278
-0.00036
-0.00422
-0.00729
-0.00877
-0.00780
-0.00389
0.00161
0.00565
0.00582
0.00248
-0.00178
-0.00477
-0.00593
-0.00497
-0.00093
0.00610
0.01302
0.01513
0.01070
0.00335
-0.00114
-0.00032
0.00309
0.00479
0.00278
-0.00229
-0.00879
-0.01450
-0.01675
-0.01432
-0.00912
-0.00460
-0.00253
-0.00217
-0.00235
-0.00289
-0.00371
-0.00352
-0.00012
0.00773
0.01882
0.02935
0.03462
0.03179
0.02219
0.01060
0.00131
-0.00543
-0.01188
-0.01851
-0.02343
-0.02612
-0.02822
-0.03021
-0.03019
-0.02647
-0.01939
-0.01089
-0.00339
0.00175
0.00577
0.01128
0.01969
0.03082
0.04293
0.05180
0.05280
0.04585
0.03581
0.02667
0.01846
0.01038
0.00292
-0.00451
-0.01519
-0.03247
-0.05549
-0.07825
-0.09545
-0.11090
-0.13493
-0.16585
-0.17833
-0.14153
-0.04870
0.08113
0.22675
0.37017
0.47380
0.47848
0.35206
0.13659
-0.07683
-0.22595
-0.31424
-0.36936
-0.39237
-0.36336
-0.27739
-0.15452
-0.02389
0.08831
0.16359
0.19795
0.20189
0.18865
0.16494
0.13364
0.09770
0.05880
0.01827
-0.01876
-0.04519
-0.05902
-0.06435
-0.06554
-0.06420
-0.06126
-0.05763
-0.05267
-0.04415
-0.03044
-0.01276
0.00464
0.01736
0.02429
0.02741
0.02819
0.02652
0.02329
0.02091
0.02036
0.01994
0.01745
0.01222
0.00510
-0.00213
-0.00755
-0.00986
-0.00885
-0.00580
-0.00402
-0.00698
-0.01415
-0.02010
-0.01943
-0.01201
-0.00243
0.00446
0.00666
0.00504
0.00196
0.00001
0.00114
0.00579
0.01199
0.01555
0.01277
0.00412
-0.00527
-0.01029
-0.01063
-0.00921
-0.00684
-0.00177
0.00562
0.01106
0.01087
0.00534
-0.00255
-0.00918
-0.01068
-0.00496
0.00488
0.01140
0.00948
0.00142
-0.00590
-0.00835
-0.00727
-0.00538
-0.00284
0.00101
0.00414
0.00324
-0.00123
-0.00439
-0.00295
0.00079
0.00304
0.00410
0.00605
0.00706
0.00348
-0.00283
-0.00510
-0.00109
0.00385
0.00485
0.00335
0.00192
-0.00079
-0.00582
-0.00955
-0.00822
-0.00352
0.00016
0.00142
0.00168
0.00147
-0.00005
-0.00238
-0.00313
-0.00080
0.00320
0.00608
0.00617
0.00357
-0.00053
-0.00402
-0.00449
-0.00111
0.00432
0.00891
0.01063
0.00834
0.00164
-0.00730
-0.01357
-0.01371
-0.00908
-0.00337
0.00110
0.00321
0.00206
-0.00121
-0.00334
-0.00261
-0.00035
0.00236
0.00630
0.01121
0.01370
0.01034
0.00185
-0.00658
-0.00952
-0.00601
-0.00000
0.00370
0.00331
-0.00007
-0.00471
-0.00887
-0.01034
-0.00761
-0.00208
0.00244
0.00333
0.00164
0.00035
0.00086
0.00214
0.00294
0.00350
0.00474
0.00625
0.00608
0.00293
-0.00161
-0.00388
-0.00167
0.00354
0.00816
0.00959
0.00699
0.00052
-0.00830
-0.01592
-0.01869
-0.01614
-0.01118
-0.00732
-0.00629
-0.00741
-0.00821
-0.00593
0.00045
0.00984
0.02068
0.03136
0.03846
0.03736
0.02673
0.01105
-0.00304
-0.01172
-0.01489
-0.01480
-0.01518
-0.01920
-0.02613
-0.03138
-0.03139
-0.02686
-0.02006
-0.01167
-0.00259
0.00424
0.00718
0.00896
0.01337
0.02086
0.02969
0.03879
0.04660
0.04932
0.04435
0.03455
0.02575
0.01992
0.01325
0.00188
-0.01303
-0.02870
-0.04677
-0.06988
-0.09379
-0.11301
-0.13333
-0.16253
-0.18443
-0.16232
-0.07908
0.04547
0.18660
0.33535
0.46537
0.50912
0.41034
0.19659
-0.03415
-0.20320
-0.30379
-0.36468
-0.39456
-0.37873
-0.30906
-0.19623
-0.06194
0.06663
0.16173
0.20871
0.21441
0.19713
0.17063
0.13948
0.10398
0.06465
0.02379
-0.01392
-0.04278
-0.05955
-0.06579
-0.06636
-0.06527
-0.06329
-0.05921
-0.05241
-0.04324
-0.03148
-0.01653
0.00032
0.01521
0.02475
0.02891
0.02981
0.02880
0.02595
0.02185
0.01851
0.01782
0.01878
0.01728
0.00986
-0.00216
-0.01331
-0.01879
-0.01796
-0.01309
-0.00646
-0.00041
0.00142
-0.00339
-0.01173
-0.01658
-0.01406
-0.00656
0.00147
0.00765
0.01067
0.00899
0.00333
-0.00190
-0.00229
0.00204
0.00730
0.01019
0.00958
0.00557
-0.00065
-0.00649
-0.00928
-0.00789
-0.00257
0.00461
0.00899
0.00622
-0.00223
-0.00932
-0.00981
-0.00492
0.00083
0.00462
0.00600
0.00501
0.00169
-0.00307
-0.00707
-0.00793
-0.00496
0.00042
0.00590
0.00897
0.00752
0.00208
-0.00321
-0.00451
-0.00234
0.00040
0.00259
0.00409
0.00325
-0.00094
-0.00543
-0.00576
-0.00185
0.00222
0.00379
0.00376
0.00291
-0.00008
-0.00528
-0.00907
-0.00767
-0.00172
0.00473
0.00837
0.00830
0.00476
-0.00098
-0.00586
-0.00683
-0.00389
0.00033
0.00378
0.00567
0.00484
0.00041
-0.00536
-0.00761
-0.00383
0.00336
0.00883
0.00934
0.00501
-0.00174
-0.00779
-0.01063
-0.00931
-0.00476
0.00107
0.00643
0.00960
0.00821
0.00126
-0.00737
-0.01054
-0.00568
0.00198
0.00624
0.00682
0.00645
0.00502
0.00114
-0.00317
-0.00402
-0.00110
0.00203
0.00269
0.00116
-0.00158
-0.00526
-0.00886
-0.01007
-0.00740
-0.00210
0.00253
0.00370
0.00158
-0.00082
-0.00069
0.00196
0.00576
0.01021
0.01452
0.01565
0.01070
0.00130
-0.00682
-0.00933
-0.00687
-0.00306
-0.00057
-0.00025
-0.00254
-0.00748
-0.01344
-0.01747
-0.01752
-0.01365
-0.00715
0.00026
0.00617
0.00826
0.00708
0.00707
0.01249
0.02246
0.03174
0.03564
0.03220
0.02108
0.00390
-0.01412
-0.02634
-0.03015
-0.02865
-0.02613
-0.02380
-0.02149
-0.02076
-0.02252
-0.02296
-0.01674
-0.00456
0.00729
0.01500
0.02032
0.02529
0.02930
0.03196
0.03448
0.03741
0.04000
0.04143
0.04015
0.03311
0.01880
0.00043
-0.01647
-0.02944
-0.04062
-0.05298
-0.06694
-0.08308
-0.10725
-0.14520
-0.18517
-0.19330
-0.14041
-0.03120
0.10661
0.25499
0.40086
0.49847
0.47719
0.31501
0.08226
-0.11825
-0.24350
-0.31862
-0.37029
-0.38905
-0.35509
-0.26823
-0.14499
-0.00822
0.11360
0.19383
0.22365
0.21476
0.18495
0.14630
0.10566
0.06856
0.03872
0.01547
-0.00592
-0.02979
-0.05481
-0.07393
-0.08086
-0.07602
-0.06491
-0.05206
-0.03914
-0.02742
-0.01855
-0.01197
-0.00441
0.00679
0.02028
0.03166
0.03721
0.03639
0.03114
0.02378
0.01601
0.00959
0.00643
0.00670
0.00744
0.00487
-0.00177
-0.00948
-0.01475
-0.01649
-0.01555
-0.01280
-0.00923
-0.00684
-0.00704
-0.00815
-0.00692
-0.00292
0.00122
0.00427
0.00771
0.01133
0.01170
0.00734
0.00186
-0.00047
0.00030
0.00167
0.00292
0.00455
0.00501
0.00162
-0.00510
-0.01046
-0.01019
-0.00488
0.00122
0.00460
0.00488
0.00318
0.00000
-0.00429
-0.00755
-0.00663
-0.00108
0.00522
0.00779
0.00596
0.00218
-0.00150
-0.00413
-0.00429
-0.00108
0.00348
0.00572
0.00439
0.00120
-0.00231
-0.00570
-0.00749
-0.00565
-0.00081
0.00365
0.00528
0.00413
0.00122
-0.00207
-0.00341
-0.00099
0.00396
0.00816
0.00913
0.00605
-0.00078
-0.00910
-0.01466
-0.01422
-0.00824
-0.00028
0.00553
0.00700
0.00514
0.00265
0.00102
0.00022
0.00058
0.00291
0.00616
0.00733
0.00431
-0.00161
-0.00670
-0.00796
-0.00531
-0.00091
0.00318
0.00553
0.00441
-0.00126
-0.00891
-0.01283
-0.00968
-0.00182
0.00584
0.01040
0.01126
0.00839
0.00240
-0.00421
-0.00759
-0.00548
0.00033
0.00507
0.00535
0.00203
-0.00162
-0.00389
-0.00520
-0.00538
-0.00257
0.00345
0.00883
0.00906
0.00421
-0.00150
-0.00483
-0.00562
-0.00469
-0.00256
-0.00062
-0.00081
-0.00340
-0.00637
-0.00757
-0.00626
-0.00242
0.00370
0.01078
0.01563
0.01495
0.00893
0.00224
-0.00061
-0.00003
0.00087
0.00162
0.00347
0.00429
-0.00006
-0.00888
-0.01613
-0.01799
-0.01648
-0.01427
-0.01070
-0.00510
-0.00007
0.00144
0.00017
-0.00048
0.00245
0.01016
0.02168
0.03313
0.03873
0.03460
0.02211
0.00680
-0.00592
-0.01414
-0.01881
-0.02153
-0.02365
-0.02664
-0.03122
-0.03533
-0.03449
-0.02592
-0.01205
0.00109
0.00889
0.01109
0.01114
0.01352
0.02097
0.03245
0.04367
0.04998
0.04962
0.04446
0.03755
0.02973
0.01945
0.00623
-0.00763
-0.02025
-0.03381
-0.05207
-0.07440
-0.09596
-0.11620
-0.14135
-0.17021
-0.18048
-0.14278
-0.05108
0.07456
0.21568
0.36119
0.47507
0.48955
0.36462
0.14507
-0.07124
-0.22099
-0.30937
-0.36374
-0.38625
-0.36142
-0.28503
-0.17040
-0.03960
0.08054
0.16483
0.20351
0.20643
0.19002
0.16421
0.13242
0.09695
0.06011
0.02344
-0.01125
-0.04061
-0.06095
-0.07053
-0.07101
-0.06662
-0.06135
-0.05639
-0.05033
-0.04146
-0.02935
-0.01487
0.00052
0.01493
0.02600
0.03152
0.03083
0.02588
0.02082
0.01928
0.02120
0.02293
0.02118
0.01580
0.00808
-0.00128
-0.01084
-0.01709
-0.01740
-0.01330
-0.00879
-0.00633
-0.00604
-0.00763
-0.01048
-0.01242
-0.01060
-0.00435
0.00335
0.00818
0.00849
0.00648
0.00494
0.00403
0.00274
0.00221
0.00432
0.00765
0.00803
0.00379
-0.00234
-0.00657
-0.00710
-0.00423
0.00001
0.00277
0.00275
0.00110
-0.00102
-0.00387
-0.00689
-0.00746
-0.00390
0.00171
0.00539
0.00504
0.00178
-0.00158
-0.00275
-0.00131
0.00173
0.00497
0.00665
0.00498
0.00020
-0.00439
-0.00566
-0.00404
-0.00196
-0.00025
0.00165
0.00305
0.00234
-0.00046
-0.00358
-0.00527
-0.00451
-0.00067
0.00548
0.01054
0.01048
0.00467
-0.00314
-0.00829
-0.00871
-0.00500
0.00062
0.00485
0.00476
0.00005
-0.00628
-0.01011
-0.00891
-0.00310
0.00446
0.01036
0.01228
0.00944
0.00296
-0.00392
-0.00725
-0.00521
0.00038
0.00544
0.00685
0.00441
0.00013
-0.00414
-0.00763
-0.00939
-0.00787
-0.00293
0.00266
0.00503
0.00286
-0.00161
-0.00467
-0.00402
0.00009
0.00544
0.00941
0.01025
0.00735
0.00156
-0.00440
-0.00708
-0.00534
-0.00122
0.00273
0.00518
0.00478
0.00028
-0.00636
-0.00996
-0.00772
-0.00251
0.00121
0.00242
0.00240
0.00116
-0.00214
-0.00617
-0.00774
-0.00479
0.00177
0.00873
0.01258
0.01197
0.00863
0.00527
0.00309
0.00229
0.00326
0.00529
0.00517
-0.00003
-0.00893
-0.01658
-0.01925
-0.01707
-0.01258
-0.00831
-0.00544
-0.00357
-0.00203
-0.00135
-0.00199
-0.00144
0.00448
0.01628
0.02861
0.03518
0.03398
0.02666
0.01546
0.00294
-0.00734
-0.01289
-0.01500
-0.01748
-0.02254
-0.02872
-0.03272
-0.03241
-0.02779
-0.01980
-0.00983
-0.00014
0.00680
0.01015
0.01135
0.01282
0.01660
0.02380
0.03353
0.04228
0.04611
0.04390
0.03759
0.02933
0.01989
0.00971
-0.00034
-0.01016
-0.02178
-0.03798
-0.05855
-0.07970
-0.10052
-0.12712
-0.16136
-0.18476
-0.16628
-0.09235
0.02199
0.15666
0.30093
0.42894
0.48165
0.40769
0.22422
0.01253
-0.15447
-0.26331
-0.33546
-0.37739
-0.37349
-0.31420
-0.21036
-0.08410
0.03951
0.13523
0.18741
0.19997
0.18968
0.16937
0.14231
0.10908
0.07207
0.03396
-0.00244
-0.03256
-0.05234
-0.06213
-0.06567
-0.06568
-0.06247
-0.05663
-0.05013
-0.04367
-0.03472
-0.02069
-0.00341
0.01162
0.02075
0.02496
0.02686
0.02723
0.02546
0.02216
0.01964
0.01973
0.02117
0.01988
0.01257
0.00053
-0.01066
-0.01589
-0.01485
-0.01120
-0.00849
-0.00793
-0.00928
-0.01171
-0.01331
-0.01177
-0.00643
0.00094
0.00744
0.01046
0.00865
0.00304
-0.00290
-0.00535
-0.00272
0.00328
0.00890
0.01113
0.00971
0.00596
0.00078
-0.00452
-0.00693
-0.00464
-0.00022
0.00240
0.00262
0.00159
-0.00144
-0.00669
-0.01028
-0.00825
-0.00224
0.00307
0.00585
0.00661
0.00469
-0.00008
-0.00448
-0.00471
-0.00091
0.00382
0.00698
0.00703
0.00301
-0.00364
-0.00873
-0.00894
-0.00478
0.00097
0.00596
0.00858
0.00740
0.00230
-0.00415
-0.00770
-0.00594
-0.00069
0.00376
0.00484
0.00317
0.00034
-0.00293
-0.00590
-0.00669
-0.00366
0.00221
0.00719
0.00796
0.00463
-0.00011
-0.00400
-0.00599
-0.00494
-0.00067
0.00391
0.00482
0.00168
-0.00207
-0.00368
-0.00306
-0.00082
0.00243
0.00503
0.00499
0.00232
-0.00115
-0.00395
-0.00543
-0.00476
-0.00130
0.00375
0.00729
0.00676
0.00243
-0.00302
-0.00694
-0.00831
-0.00721
-0.00378
0.00142
0.00625
0.00754
0.00427
-0.00049
-0.00258
-0.00127
0.00104
0.00285
0.00446
0.00523
0.00314
-0.00160
-0.00525
-0.00481
-0.00175
0.00031
0.00023
-0.00070
-0.00180
-0.00355
-0.00555
-0.00637
-0.00532
-0.00295
0.00009
0.00352
0.00643
0.00700
0.00484
0.00278
0.00423
0.00863
0.01173
0.01070
0.00661
0.00157
-0.00394
-0.00941
-0.01239
-0.01099
-0.00729
-0.00577
-0.00823
-0.01232
-0.01499
-0.01511
-0.01248
-0.00667
0.00196
0.01170
0.02029
0.02556
0.02587
0.02201
0.01815
0.01796
0.01941
0.01645
0.00664
-0.00597
-0.01675
-0.02540
-0.03265
-0.03575
-0.03161
-0.02266
-0.01540
-0.01337
-0.01444
-0.01452
-0.01106
-0.00308
0.00909
0.02249
0.03242
0.03626
0.03585
0.03490
0.03507
0.03578
0.03666
0.03761
0.03605
0.02715
0.00925
-0.01285
-0.03300
-0.05020
-0.06617
-0.07920
-0.08828
-0.10266
-0.13442
-0.17433
-0.18627
-0.13849
-0.03390
0.10198
0.25125
0.39766
0.49425
0.47394
0.31651
0.08738
-0.11528
-0.24488
-0.31907
-0.36284
-0.37231
-0.33515
-0.25617
-0.15099
-0.03359
0.07934
0.16595
0.21186
0.21945
0.20026
0.16464
0.12106
0.07789
0.04057
0.00997
-0.01437
-0.03244
-0.04621
-0.05958
-0.07294
-0.08059
-0.07674
-0.06271
-0.04553
-0.03048
-0.01740
-0.00438
0.00748
0.01486
0.01708
0.01797
0.02163
0.02756
0.03136
0.02981
0.02375
0.01630
0.00994
0.00570
0.00355
0.00280
0.00236
0.00073
-0.00401
-0.01252
-0.02169
-0.02545
-0.02057
-0.01060
-0.00229
0.00128
0.00164
0.00069
-0.00126
-0.00336
-0.00340
-0.00021
0.00484
0.00911
0.01060
0.00865
0.00424
0.00001
-0.00130
0.00088
0.00470
0.00779
0.00844
0.00529
-0.00179
-0.00982
-0.01395
-0.01189
-0.00590
0.00033
0.00485
0.00650
0.00401
-0.00183
-0.00700
-0.00781
-0.00446
0.00022
0.00421
0.00657
0.00601
0.00207
-0.00247
-0.00313
0.00119
0.00631
0.00745
0.00449
0.00069
-0.00230
-0.00544
-0.00838
-0.00812
-0.00309
0.00348
0.00662
0.00489
0.00096
-0.00241
-0.00466
-0.00536
-0.00291
0.00281
0.00798
0.00808
0.00308
-0.00281
-0.00629
-0.00714
-0.00573
-0.00161
0.00420
0.00809
0.00696
0.00129
-0.00543
-0.00934
-0.00815
-0.00218
0.00569
0.01164
0.01293
0.00901
0.00171
-0.00561
-0.00985
-0.00968
-0.00555
0.00061
0.00523
0.00432
-0.00259
-0.01022
-0.01154
-0.00494
0.00426
0.00973
0.00982
0.00684
0.00319
-0.00004
-0.00211
-0.00232
-0.00055
0.00251
0.00527
0.00529
0.00094
-0.00567
-0.00943
-0.00755
-0.00266
0.00105
0.00277
0.00402
0.00429
0.00096
-0.00588
-0.01124
-0.01024
-0.00371
0.00343
0.00772
0.00843
0.00524
-0.00057
-0.00411
-0.00110
0.00613
0.01119
0.01166
0.01009
0.00791
0.00336
-0.00366
-0.00927
-0.00994
-0.00715
-0.00572
-0.00843
-0.01338
-0.01677
-0.01694
-0.01455
-0.00965
-0.00155
0.00808
0.01506
0.01707
0.01619
0.01604
0.01839
0.02247
0.02580
0.02532
0.01916
0.00782
-0.00651
-0.02083
-0.03160
-0.03601
-0.03395
-0.02808
-0.02174
-0.01710
-0.01454
-0.01282
-0.01014
-0.00556
0.00113
0.01007
0.02017
0.02830
0.03177
0.03164
0.03147
0.03310
0.03537
0.03673
0.03664
0.03365
0.02480
0.00903
-0.01005
-0.02758
-0.04277
-0.05798
-0.07328
-0.08786
-0.10755
-0.14058
-0.17770
-0.18565
-0.13476
-0.02886
0.10549
0.25038
0.39164
0.48472
0.46326
0.30677
0.08085
-0.11634
-0.23943
-0.30837
-0.35081
-0.36403
-0.33332
-0.25836
-0.15167
-0.02958
0.08617
0.17085
0.21080
0.21129
0.18769
0.15330
0.11602
0.08030
0.04793
0.01867
-0.00791
-0.03162
-0.05202
-0.06815
-0.07805
-0.07973
-0.07296
-0.05987
-0.04386
-0.02803
-0.01464
-0.00490
0.00183
0.00784
0.01484
0.02238
0.02908
0.03391
0.03525
0.03100
0.02184
0.01244
0.00709
0.00549
0.00465
0.00304
0.00068
-0.00326
-0.00993
-0.01776
-0.02238
-0.02086
-0.01467
-0.00763
-0.00227
0.00057
0.00038
-0.00257
-0.00556
-0.00477
0.00105
0.00912
0.01484
0.01491
0.00925
0.00125
-0.00425
-0.00446
-0.00043
0.00448
0.00732
0.00693
0.00354
-0.00193
-0.00798
-0.01195
-0.01095
-0.00480
0.00279
0.00728
0.00691
0.00282
-0.00275
-0.00696
-0.00740
-0.00412
0.00029
0.00350
0.00481
0.00389
0.00074
-0.00247
-0.00247
0.00128
0.00566
0.00745
0.00594
0.00199
-0.00305
-0.00702
-0.00783
-0.00551
-0.00187
0.00175
0.00480
0.00574
0.00263
-0.00363
-0.00844
-0.00746
-0.00099
0.00670
0.01150
0.01186
0.00767
-0.00035
-0.00927
-0.01432
-0.01261
-0.00573
0.00205
0.00690
0.00688
0.00233
-0.00361
-0.00626
-0.00342
0.00256
0.00764
0.00986
0.00908
0.00515
-0.00109
-0.00635
-0.00733
-0.00432
-0.00038
0.00206
0.00240
0.00073
-0.00257
-0.00612
-0.00768
-0.00586
-0.00146
0.00318
0.00590
0.00581
0.00334
-0.00008
-0.00246
-0.00225
0.00042
0.00386
0.00612
0.00593
0.00283
-0.00217
-0.00612
-0.00613
-0.00232
0.00244
0.00548
0.00554
0.00211
-0.00386
-0.00889
-0.00969
-0.00675
-0.00308
-0.00017
0.00226
0.00356
0.00232
-0.00082
-0.00294
-0.00189
0.00208
0.00723
0.01146
0.01277
0.01029
0.00545
0.00119
-0.00066
-0.00079
-0.00083
-0.00138
-0.00286
-0.00692
-0.01459
-0.02288
-0.02582
-0.02013
-0.00862
0.00251
0.00878
0.00990
0.00856
0.00772
0.00894
0.01268
0.01897
0.02633
0.03079
0.02803
0.01711
0.00170
-0.01241
-0.02122
-0.02455
-0.02468
-0.02333
-0.02123
-0.02002
-0.02152
-0.02426
-0.02339
-0.01594
-0.00446
0.00608
0.01319
0.01751
0.02043
0.02317
0.02698
0.03237
0.03823
0.04249
0.04328
0.03957
0.03147
0.01979
0.00543
-0.00984
-0.02315
-0.03362
-0.04453
-0.05933
-0.07855
-0.10447
-0.14144
-0.18073
-0.19180
-0.14569
-0.04604
0.07918
0.21265
0.34843
0.45403
0.46558
0.34778
0.14463
-0.05499
-0.19716
-0.28874
-0.35190
-0.38288
-0.36261
-0.28573
-0.16728
-0.03352
0.08553
0.16528
0.19890
0.19833
0.18022
0.15395
0.12267
0.08926
0.05672
0.02561
-0.00531
-0.03516
-0.05934
-0.07263
-0.07398
-0.06739
-0.05799
-0.04833
-0.03886
-0.03026
-0.02300
-0.01556
-0.00570
0.00630
0.01737
0.02488
0.02846
0.02855
0.02546
0.02071
0.01729
0.01677
0.01710
0.01512
0.01029
0.00421
-0.00257
-0.01045
-0.01746
-0.01950
-0.01536
-0.00913
-0.00562
-0.00526
-0.00547
-0.00524
-0.00556
-0.00613
-0.00444
0.00097
0.00757
0.01053
0.00773
0.00224
-0.00102
-0.00043
0.00186
0.00394
0.00610
0.00805
0.00731
0.00244
-0.00405
-0.00790
-0.00705
-0.00246
0.00298
0.00561
0.00313
-0.00300
-0.00871
-0.01110
-0.00989
-0.00546
0.00185
0.00969
0.01346
0.01018
0.00213
-0.00488
-0.00671
-0.00384
0.00059
0.00383
0.00434
0.00175
-0.00248
-0.00544
-0.00542
-0.00337
-0.00049
0.00361
0.00848
0.01033
0.00555
-0.00386
-0.01122
-0.01173
-0.00609
0.00178
0.00808
0.01027
0.00746
0.00104
-0.00553
-0.00866
-0.00696
-0.00188
0.00334
0.00549
0.00304
-0.00262
-0.00735
-0.00709
-0.00140
0.00591
0.01026
0.01016
0.00710
0.00263
-0.00268
-0.00764
-0.00993
-0.00803
-0.00266
0.00367
0.00761
0.00608
-0.00067
-0.00746
-0.00843
-0.00338
0.00284
0.00648
0.00717
0.00504
0.00002
-0.00558
-0.00785
-0.00529
0.00008
0.00540
0.00865
0.00840
0.00422
-0.00204
-0.00666
-0.00665
-0.00220
0.00332
0.00585
0.00360
-0.00204
-0.00803
-0.01169
-0.01156
-0.00736
-0.00017
0.00734
0.01147
0.00993
0.00427
-0.00092
-0.00247
-0.00127
0.00052
0.00340
0.00867
0.01375
0.01321
0.00525
-0.00575
-0.01318
-0.01339
-0.00785
-0.00220
-0.00180
-0.00685
-0.01284
-0.01583
-0.01479
-0.00962
-0.00080
0.00850
0.01373
0.01337
0.01034
0.00868
0.01051
0.01539
0.02076
0.02317
0.02046
0.01277
0.00161
-0.01044
-0.01997
-0.02480
-0.02579
-0.02512
-0.02343
-0.02064
-0.01806
-0.01708
-0.01650
-0.01337
-0.00625
0.00356
0.01379
0.02267
0.02861
0.03050
0.02963
0.02977
0.03348
0.03925
0.04307
0.04160
0.03330
0.01863
0.00048
-0.01708
-0.03238
-0.04728
-0.06303
-0.07735
-0.09048
-0.11214
-0.15069
-0.18962
-0.18779
-0.11716
0.00760
0.15111
0.29486
0.42552
0.49555
0.44063
0.25544
0.02240
-0.16061
-0.26426
-0.32120
-0.35843
-0.36684
-0.32838
-0.24272
-0.12460
0.00485
0.11938
0.19487
0.22307
0.21399
0.18365
0.14384
0.10226
0.06500
0.03471
0.00899
-0.01617
-0.04111
-0.06176
-0.07389
-0.07656
-0.07167
-0.06180
-0.04924
-0.03601
-0.02399
-0.01479
-0.00875
-0.00347
0.00492
0.01740
0.02984
0.03700
0.03755
0.03341
0.02594
0.01610
0.00691
0.00232
0.00289
0.00494
0.00451
0.00067
-0.00521
-0.01155
-0.01673
-0.01856
-0.01547
-0.00867
-0.00232
-0.00081
-0.00470
-0.00952
-0.00983
-0.00470
0.00202
0.00698
0.01046
0.01325
0.01329
0.00814
-0.00004
-0.00534
-0.00417
0.00143
0.00660
0.00785
0.00458
-0.00148
-0.00707
-0.00938
-0.00787
-0.00407
0.00019
0.00338
0.00394
0.00116
-0.00331
-0.00609
-0.00500
-0.00095
0.00349
0.00663
0.00771
0.00541
-0.00037
-0.00570
-0.00582
-0.00143
0.00232
0.00330
0.00368
0.00368
0.00016
-0.00692
-0.01202
-0.01004
-0.00189
0.00729
0.01283
0.01274
0.00765
0.00008
-0.00652
-0.00896
-0.00607
-0.00024
0.00406
0.00440
0.00199
-0.00163
-0.00637
-0.01058
-0.01002
-0.00283
0.00656
0.01143
0.00935
0.00343
-0.00174
-0.00361
-0.00230
0.00073
0.00390
0.00567
0.00453
0.00019
-0.00521
-0.00825
-0.00702
-0.00258
0.00231
0.00508
0.00461
0.00158
-0.00214
-0.00494
-0.00614
-0.00523
-0.00178
0.00326
0.00688
0.00659
0.00315
-0.00031
-0.00167
-0.00093
0.00115
0.00358
0.00478
0.00357
0.00067
-0.00235
-0.00495
-0.00702
-0.00724
-0.00418
0.00105
0.00484
0.00394
-0.00150
-0.00746
-0.00902
-0.00498
0.00095
0.00482
0.00646
0.00728
0.00650
0.00321
0.00018
0.00130
0.00573
0.00871
0.00804
0.00567
0.00272
-0.00245
-0.00967
-0.01447
-0.01301
-0.00718
-0.00244
-0.00196
-0.00502
-0.00961
-0.01391
-0.01540
-0.01128
-0.00143
0.00993
0.01742
0.01975
0.02046
0.02268
0.02501
0.02394
0.01902
0.01291
0.00675
-0.00146
-0.01322
-0.02621
-0.03583
-0.03883
-0.03495
-0.02658
-0.01757
-0.01119
-0.00823
-0.00701
-0.00506
-0.00056
0.00711
0.01737
0.02820
0.03665
0.04027
0.03877
0.03432
0.03009
0.02823
0.02843
0.02819
0.02408
0.01345
-0.00382
-0.02488
-0.04582
-0.06387
-0.07790
-0.09027
-0.10955
-0.14328
-0.17985
-0.18508
-0.13007
-0.01895
0.12237
0.27454
0.41757
0.50072
0.45932
0.28384
0.04996
-0.14558
-0.26661
-0.33656
-0.37588
-0.37438
-0.32044
-0.22518
-0.11048
0.00616
0.10823
0.17838
0.20900
0.20717
0.18507
0.15079
0.10944
0.06686
0.02904
-0.00043
-0.02143
-0.03689
-0.05016
-0.06195
-0.07020
-0.07272
-0.06875
-0.05850
-0.04326
-0.02604
-0.01058
0.00092
0.00840
0.01277
0.01529
0.01800
0.02305
0.03003
0.03490
0.03330
0.02493
0.01347
0.00313
-0.00336
-0.00505
-0.00336
-0.00158
-0.00220
-0.00517
-0.00923
-0.01346
-0.01623
-0.01473
-0.00794
0.00036
0.00426
0.00157
-0.00442
-0.00877
-0.00862
-0.00385
0.00343
0.01001
0.01359
0.01376
0.01068
0.00447
-0.00300
-0.00747
-0.00609
-0.00084
0.00364
0.00502
0.00413
0.00147
-0.00336
-0.00824
-0.00829
-0.00176
0.00634
0.00938
0.00605
-0.00019
-0.00631
-0.01112
-0.01309
-0.01002
-0.00181
0.00766
0.01256
0.01005
0.00321
-0.00221
-0.00363
-0.00246
-0.00031
0.00237
0.00443
0.00401
0.00104
-0.00230
-0.00369
-0.00248
0.00034
0.00305
0.00415
0.00286
-0.00060
-0.00495
-0.00812
-0.00828
-0.00491
0.00056
0.00537
0.00718
0.00528
0.00056
-0.00479
-0.00754
-0.00504
0.00204
0.00940
0.01248
0.00952
0.00175
-0.00738
-0.01273
-0.01033
-0.00177
0.00613
0.00800
0.00477
0.00061
-0.00242
-0.00454
-0.00533
-0.00371
-0.00008
0.00346
0.00486
0.00320
-0.00099
-0.00524
-0.00607
-0.00212
0.00374
0.00693
0.00561
0.00147
-0.00299
-0.00607
-0.00615
-0.00205
0.00481
0.01032
0.01098
0.00661
-0.00026
-0.00653
-0.00981
-0.00916
-0.00544
-0.00081
0.00260
0.00333
0.00078
-0.00406
-0.00821
-0.00852
-0.00418
0.00264
0.00848
0.01064
0.00863
0.00411
-0.00040
-0.00217
0.00113
0.00922
0.01718
0.01838
0.01044
-0.00261
-0.01441
-0.02132
-0.02337
-0.02173
-0.01678
-0.00923
-0.00217
0.00080
-0.00019
-0.00111
0.00095
0.00504
0.00922
0.01331
0.01719
0.01950
0.01976
0.01896
0.01690
0.01197
0.00485
-0.00130
-0.00574
-0.01125
-0.01876
-0.02505
-0.02752
-0.02705
-0.02455
-0.01915
-0.01154
-0.00545
-0.00389
-0.00606
-0.00807
-0.00508
0.00588
0.02246
0.03754
0.04535
0.04585
0.04231
0.03729
0.03224
0.02829
0.02519
0.02031
0.01026
-0.00648
-0.02803
-0.05009
-0.06825
-0.08042
-0.08969
-0.10555
-0.13570
-0.16965
-0.17560
-0.12517
-0.01969
0.11770
0.26748
0.40896
0.49284
0.45495
0.28231
0.04764
-0.14895
-0.26572
-0.32727
-0.36187
-0.36389
-0.31758
-0.22731
-0.11373
0.00202
0.10191
0.17080
0.20243
0.20275
0.18376
0.15458
0.11842
0.07639
0.03298
-0.00360
-0.02763
-0.04082
-0.04941
-0.05733
-0.06397
-0.06724
-0.06611
-0.06039
-0.05008
-0.03564
-0.01842
-0.00112
0.01219
0.01831
0.01846
0.01787
0.02022
