0.11571
0.11922
0.10870
0.08853
0.07451
0.06487
0.06574
0.07100
0.07977
0.07889
0.06925
0.05347
0.03419
0.01928
0.01578
0.02104
0.03506
0.03945
0.03331
0.01403
-0.00088
-0.01490
-0.01928
-0.01403
-0.00438
0.00964
0.00964
-0.00088
-0.01578
-0.03068
-0.03506
-0.02980
-0.01928
-0.00438
0.00964
0.00438
-0.00614
-0.02542
-0.03068
-0.03419
-0.02454
-0.00964
-0.00526
-0.00614
-0.02104
-0.03594
-0.04997
-0.05435
-0.04383
-0.02893
-0.01490
-0.01490
-0.02104
-0.03594
-0.04997
-0.05435
-0.04909
-0.02893
-0.01403
0.00000
0.00438
-0.00526
-0.00964
-0.00964
0.00088
0.02104
0.04558
0.06487
0.06925
0.05873
0.03419
0.01403
0.00000
0.00526
0.01490
0.01490
0.01403
-0.00175
-0.03156
-0.06048
-0.08065
-0.08503
-0.07977
-0.07451
-0.07013
-0.08065
-0.09555
-0.11571
-0.12535
-0.12973
-0.11922
-0.09993
-0.08941
-0.08590
-0.10081
-0.11045
-0.12535
-0.12447
-0.11483
-0.09905
-0.08503
-0.07977
-0.08590
-0.09993
-0.10957
-0.10957
-0.10431
-0.08941
-0.07977
-0.07539
-0.07539
-0.08503
-0.09993
-0.10519
-0.09993
-0.09379
-0.06399
-0.01753
0.07276
0.18233
0.28226
0.36641
0.41901
0.36904
0.15077
-0.22002
-0.62237
-0.91953
-1.11326
-1.25702
-1.34555
-1.34731
-1.24562
-1.05540
-0.82486
-0.59608
-0.39709
-0.26297
-0.16918
-0.10870
-0.05435
-0.01490
0.01052
0.02016
0.01490
0.00000
-0.00526
-0.00526
0.00526
0.02016
0.04032
0.04032
0.03945
0.02454
0.00964
0.00964
0.01490
0.03506
0.04997
0.05961
0.05522
0.03945
0.02454
0.01490
0.01490
0.03506
0.05522
0.06487
0.07013
0.05961
0.04032
0.02980
0.02980
0.04032
0.06048
0.07013
0.07013
0.05961
0.04032
0.02980
0.02980
0.04032
0.05522
0.07013
0.07977
0.07539
0.06487
0.04997
0.04032
0.04471
0.05961
0.07539
0.08503
0.07977
0.07539
0.06487
0.05522
0.05522
0.07013
0.08503
0.09993
0.10519
0.09467
0.07977
0.06487
0.06487
0.07013
0.08503
0.09993
0.10957
0.10957
0.09993
0.08503
0.07977
0.08503
0.09467
0.10957
0.12009
0.12009
0.11045
0.09993
0.08503
0.08503
0.09467
0.10957
0.12447
0.12535
0.11483
0.10519
0.09029
0.08503
0.09467
0.10957
0.12973
0.13938
0.13499
0.12009
0.10519
0.09029
0.09029
0.10431
0.12009
0.12973
0.12535
0.11045
0.08590
0.07013
0.06487
0.06487
0.07013
0.07977
0.07539
0.05522
0.03594
0.01052
-0.00438
-0.00526
0.00000
0.00964
0.00964
-0.00438
-0.02454
-0.04471
-0.05961
-0.05961
-0.05522
-0.04032
-0.03068
-0.02980
-0.04471
-0.05435
-0.06925
-0.07013
-0.06048
-0.04558
-0.03068
-0.02980
-0.02980
-0.04909
-0.05961
-0.06487
-0.06048
-0.04997
-0.03068
-0.02016
-0.02454
-0.03419
-0.05435
-0.06487
-0.06048
-0.05084
-0.03068
-0.02980
-0.02980
-0.03945
-0.05435
-0.06487
-0.06487
-0.05084
-0.03068
-0.00614
0.00964
0.00964
0.00526
0.00000
0.00438
0.01490
0.03857
0.05435
0.05961
0.04120
0.01666
-0.00438
-0.01928
-0.02454
-0.01578
-0.01052
-0.01490
-0.02893
-0.05347
-0.07889
-0.09905
-0.11396
-0.11045
-0.10081
-0.09555
-0.09029
-0.09905
-0.12360
-0.13938
-0.14464
-0.13587
-0.12097
-0.10081
-0.09993
-0.09993
-0.11396
-0.12886
-0.13938
-0.13061
-0.12097
-0.10607
-0.09993
-0.09993
-0.10957
-0.11922
-0.12447
-0.12535
-0.11571
-0.10081
-0.08152
-0.07977
-0.07977
-0.09905
-0.11396
-0.12009
-0.10168
-0.03945
0.07714
0.22002
0.33661
0.41024
0.42865
0.31382
0.03594
-0.36115
-0.73282
-0.97301
-1.13342
-1.26052
-1.33942
-1.33153
-1.21932
-1.02034
-0.77840
-0.53822
-0.34450
-0.21915
-0.14990
-0.10344
-0.07714
-0.05172
-0.02279
0.00263
0.01403
0.01490
0.00088
-0.01403
-0.01928
-0.01052
-0.00088
0.01403
0.02454
0.02980
0.01666
0.00614
-0.00438
-0.00526
0.00877
0.02367
0.03857
0.04032
0.04032
0.02191
0.01578
0.01052
0.01490
0.03331
0.04383
0.04997
0.04558
0.03156
0.01666
0.01052
0.01490
0.02893
0.04383
0.05435
0.05522
0.04558
0.03156
0.02104
0.02016
0.03331
0.04821
0.06399
0.06487
0.06048
0.04646
0.03594
0.03506
0.03945
0.05785
0.06925
0.07451
0.07013
0.06136
0.05084
0.04558
0.04909
0.06311
0.08328
0.09379
0.09029
0.08590
0.06750
0.06048
0.05961
0.06925
0.08328
0.10256
0.10519
0.09642
0.08152
0.06662
0.06487
0.07802
0.09379
0.10870
0.10957
0.10957
0.09642
0.08590
0.08065
0.08415
0.09818
0.10870
0.11922
0.11571
0.10607
0.09204
0.08590
0.08503
0.09379
0.10870
0.11922
0.12447
0.11133
0.10081
0.08678
0.08065
0.08415
0.09379
0.10782
0.10957
0.09642
0.07714
0.05785
0.04208
0.04032
0.04909
0.05873
0.05961
0.05084
0.03243
0.00789
-0.00789
-0.01403
-0.00614
-0.00088
0.00438
0.00088
-0.01315
-0.03243
-0.05259
-0.05522
-0.05084
-0.03682
-0.02630
-0.02104
-0.02893
-0.04295
-0.05347
-0.06399
-0.05610
-0.04646
-0.03156
-0.02542
-0.02893
-0.03857
-0.05259
-0.05961
-0.05961
-0.05172
-0.03243
-0.02104
-0.02016
-0.02893
-0.04295
-0.05785
-0.06399
-0.06048
-0.04734
-0.03243
-0.02980
-0.03419
-0.04821
-0.05873
-0.05961
-0.05172
-0.02893
-0.00351
0.01315
0.02367
0.02104
0.01578
0.01490
0.02367
0.03769
0.05259
0.06311
0.05259
0.03682
0.01753
-0.00175
-0.01753
-0.01578
-0.01052
-0.00614
-0.01753
-0.03682
-0.06574
-0.09116
-0.10782
-0.10957
-0.10168
-0.09116
-0.08590
-0.08941
-0.09818
-0.11308
-0.12360
-0.12535
-0.11220
-0.09730
-0.08678
-0.08065
-0.09292
-0.10344
-0.11746
-0.12447
-0.11220
-0.09730
-0.08240
-0.07539
-0.07889
-0.09292
-0.10344
-0.11308
-0.10694
-0.09642
-0.08240
-0.07188
-0.07451
-0.08328
-0.09730
-0.10431
-0.07539
0.01315
0.15515
0.29278
0.39797
0.45232
0.41813
0.21915
-0.12710
-0.52244
-0.83889
-1.05190
-1.20968
-1.32188
-1.35695
-1.28945
-1.11764
-0.88184
-0.62939
-0.40323
-0.24544
-0.14113
-0.08766
-0.06311
-0.04734
-0.03243
-0.00964
0.01140
0.02717
0.02980
0.02191
0.01140
0.00175
0.00000
0.01227
0.02279
0.03769
0.04383
0.04120
0.03156
0.01753
0.01490
0.01928
0.03594
0.04821
0.05785
0.05961
0.04734
0.03243
0.02191
0.02016
0.03594
0.04821
0.06224
0.06487
0.05259
0.04208
0.02805
0.02542
0.03682
0.05172
0.06311
0.06487
0.06136
0.04821
0.03682
0.03506
0.03945
0.05172
0.06311
0.07714
0.07626
0.06311
0.04821
0.04120
0.04032
0.04821
0.06224
0.07714
0.08415
0.07714
0.06311
0.05172
0.04997
0.06224
0.08065
0.09292
0.10256
0.09730
0.08678
0.07276
0.06574
0.06925
0.08152
0.09730
0.10782
0.10957
0.09818
0.08678
0.07714
0.07889
0.08766
0.10607
0.11834
0.12009
0.11220
0.09818
0.08678
0.08503
0.08853
0.10607
0.11746
0.12360
0.11746
0.10694
0.09292
0.08590
0.09292
0.10694
0.11746
0.12360
0.12097
0.11220
0.09467
0.08240
0.07977
0.08415
0.09292
0.10256
0.10081
0.08853
0.06925
0.04909
0.04120
0.04032
0.04383
0.05259
0.05084
0.03857
0.01928
-0.00088
-0.00877
-0.00964
-0.00263
0.01140
0.01490
0.01140
-0.00175
-0.02016
-0.03243
-0.03156
-0.02191
-0.00877
-0.00088
-0.00351
-0.00877
-0.02542
-0.03769
-0.04383
-0.03769
-0.02367
-0.00877
-0.00526
-0.01227
-0.02630
-0.04120
-0.04909
-0.04646
-0.03331
-0.01841
-0.01140
-0.01753
-0.02805
-0.04120
-0.05259
-0.05522
-0.04734
-0.03331
-0.02630
-0.02893
-0.03769
-0.05172
-0.06224
-0.06487
-0.05698
-0.03594
-0.01140
0.00614
0.00964
0.00614
0.00526
0.00877
0.01753
0.03506
0.05172
0.06224
0.05347
0.03506
0.01140
-0.00614
-0.01403
-0.00789
-0.00088
0.00000
-0.01140
-0.03419
-0.06224
-0.08853
-0.09905
-0.09993
-0.09292
-0.08240
-0.07977
-0.09116
-0.10607
-0.12097
-0.12886
-0.12623
-0.11746
-0.10344
-0.09642
-0.09467
-0.09905
-0.11483
-0.12360
-0.12097
-0.10870
-0.09379
-0.08240
-0.07977
-0.08766
-0.10081
-0.11220
-0.11133
-0.10256
-0.08853
-0.07802
-0.07539
-0.07889
-0.08766
-0.10081
-0.10870
-0.10607
-0.08678
-0.01753
0.10081
0.22703
0.32959
0.40235
0.43478
0.34800
0.10607
-0.25596
-0.63114
-0.91690
-1.12378
-1.28069
-1.36045
-1.33153
-1.19829
-0.99843
-0.75737
-0.52946
-0.34625
-0.22353
-0.15165
-0.10256
-0.06487
-0.02980
0.00175
0.01753
0.02367
0.01753
0.00438
-0.00351
-0.00175
0.01052
0.02542
0.03682
0.04032
0.03243
0.01928
0.00789
0.00526
0.01227
0.02980
0.04208
0.04821
0.04295
0.02893
0.01753
0.01490
0.01841
0.03068
0.04558
0.05698
0.05610
0.04821
0.03769
0.03156
0.03331
0.04208
0.05610
0.06399
0.06487
0.05435
0.04295
0.03331
0.02980
0.03682
0.05435
0.06311
0.06487
0.06487
0.05435
0.04295
0.04032
0.04032
0.05435
0.06662
0.07013
0.06662
0.05785
0.04471
0.04032
0.04032
0.05435
0.07013
0.08240
0.08503
0.08152
0.06925
0.05435
0.05347
0.06224
0.07889
0.09555
0.10344
0.09467
0.08328
0.06925
0.06487
0.06837
0.08065
0.09555
0.10694
0.10694
0.09467
0.08328
0.07626
0.07889
0.08678
0.10344
0.11308
0.11133
0.10694
0.09116
0.08152
0.08328
0.08853
0.10344
0.11659
0.12360
0.11834
0.10431
0.08941
0.08503
0.08503
0.09204
0.09818
0.10344
0.09818
0.08503
0.07013
0.05172
0.04120
0.04383
0.05172
0.05172
0.04295
0.02980
0.01140
-0.00526
-0.00964
-0.00701
0.00175
0.00877
0.00701
-0.00175
-0.01841
-0.03506
-0.04295
-0.04120
-0.02980
-0.01490
-0.00964
-0.01315
-0.02542
-0.04032
-0.04821
-0.04295
-0.03331
-0.02016
-0.00789
-0.00877
-0.02016
-0.03506
-0.04646
-0.04997
-0.04295
-0.02980
-0.01841
-0.01490
-0.02542
-0.04032
-0.05522
-0.06311
-0.05873
-0.04471
-0.03331
-0.02980
-0.03331
-0.04821
-0.06487
-0.07626
-0.07626
-0.06487
-0.04997
-0.03506
-0.02630
-0.02805
-0.02980
-0.02980
-0.02630
-0.01140
0.00789
0.03156
0.04295
0.04208
0.02717
0.00701
-0.00964
-0.01841
-0.01315
-0.00351
0.00351
-0.00175
-0.01841
-0.04120
-0.06662
-0.08152
-0.08503
-0.08152
-0.07977
-0.08678
-0.10344
-0.12009
-0.13149
-0.13850
-0.13061
-0.11834
-0.10519
-0.09993
-0.10607
-0.12009
-0.13149
-0.13850
-0.13324
-0.12360
-0.11045
-0.10168
-0.09993
-0.10957
-0.12184
-0.12798
-0.12710
-0.11571
-0.10081
-0.08503
-0.08328
-0.09467
-0.10957
-0.12097
-0.12184
-0.10694
-0.09029
-0.07889
-0.06224
-0.02016
0.06399
0.17356
0.28138
0.38044
0.43128
0.35414
0.10168
-0.29365
-0.69864
-0.98878
-1.17024
-1.29471
-1.35432
-1.33328
-1.22371
-1.04401
-0.82837
-0.60922
-0.41988
-0.27349
-0.16830
-0.09730
-0.04646
-0.01753
-0.00964
-0.01666
-0.02279
-0.02542
-0.01578
-0.00088
0.01140
0.02104
0.02191
0.01666
0.00526
-0.00351
0.00088
0.01403
0.02893
0.03769
0.04032
0.03419
0.02104
0.01227
0.01315
0.02104
0.03419
0.04295
0.04821
0.04383
0.03419
0.02367
0.02016
0.02630
0.03594
0.05259
0.06311
0.06224
0.05084
0.03857
0.02893
0.03156
0.04120
0.05435
0.06311
0.06487
0.06224
0.04821
0.03682
0.03769
0.04295
0.05698
0.07451
0.07977
0.07363
0.06399
0.05084
0.04471
0.05084
0.06399
0.07889
0.08766
0.08678
0.07626
0.06662
0.06224
0.06311
0.07100
0.08415
0.09905
0.10168
0.09116
0.07889
0.06925
0.06487
0.07714
0.09379
0.10607
0.10957
0.10694
0.09642
0.08415
0.07977
0.08328
0.09730
0.11133
0.11834
0.11746
0.10870
0.09292
0.08240
0.08328
0.09642
0.11133
0.12097
0.12184
0.11396
0.09818
0.08678
0.08503
0.09116
0.10344
0.11571
0.11746
0.10870
0.09292
0.07626
0.06750
0.06750
0.07626
0.08328
0.08503
0.07626
0.05873
0.03506
0.01928
0.01490
0.01490
0.02104
0.02191
0.01753
0.00351
-0.01666
-0.03331
-0.04295
-0.03945
-0.03243
-0.02454
-0.02279
-0.03068
-0.04646
-0.06048
-0.06750
-0.06399
-0.05172
-0.03682
-0.02980
-0.02980
-0.04120
-0.05259
-0.05785
-0.05698
-0.04646
-0.03419
-0.02104
-0.01753
-0.02542
-0.03857
-0.05084
-0.05522
-0.04646
-0.03156
-0.01928
-0.01490
-0.02367
-0.04120
-0.05522
-0.06311
-0.05961
-0.04909
-0.03682
-0.02717
-0.02805
-0.03243
-0.03769
-0.03682
-0.02630
-0.00614
0.01928
0.03594
0.04295
0.04208
0.03156
0.01928
0.01227
0.00964
0.01315
0.01753
0.01753
0.00964
-0.00614
-0.02630
-0.04295
-0.05259
-0.05522
-0.05522
-0.05785
-0.07100
-0.09116
-0.10870
-0.12009
-0.12535
-0.11659
-0.10168
-0.09204
-0.09292
-0.10081
-0.11571
-0.12798
-0.12973
-0.12184
-0.10694
-0.09204
-0.08503
-0.09029
-0.10344
-0.11834
-0.12535
-0.11922
-0.10694
-0.09204
-0.08240
-0.08240
-0.09292
-0.10519
-0.11308
-0.10957
-0.09730
-0.08503
-0.07451
-0.07013
-0.05961
-0.01227
0.08766
0.21476
0.33661
0.42777
0.44092
0.30680
0.01753
-0.35940
-0.72932
-1.00544
-1.18251
-1.29296
-1.33240
-1.28682
-1.15183
-0.95284
-0.73808
-0.53384
-0.35765
-0.22353
-0.12798
-0.06574
-0.03419
-0.02279
-0.02279
-0.02542
-0.01928
-0.00701
0.00789
0.02279
0.02980
0.02454
0.01227
0.00000
-0.00526
0.00000
0.01315
0.03068
0.04032
0.04032
0.02980
0.01490
0.00438
0.00526
0.01753
0.03243
0.04558
0.04734
0.03945
0.02717
0.01753
0.01490
0.02016
0.03243
0.04734
0.05522
0.04734
0.03506
0.02191
0.01490
0.02279
0.03769
0.05259
0.06224
0.05961
0.04734
0.03243
0.02279
0.02542
0.03506
0.04997
0.06224
0.06487
0.05961
0.04734
0.03769
0.03506
0.04295
0.05785
0.07013
0.07539
0.07013
0.05961
0.04734
0.04032
0.04734
0.06224
0.07714
0.08503
0.08240
0.07276
0.05961
0.05259
0.05522
0.06487
0.07714
0.09292
0.09467
0.08503
0.07276
0.05961
0.05785
0.06750
0.08240
0.09467
0.09993
0.09292
0.07714
0.06487
0.05961
0.06487
0.07714
0.09204
0.09993
0.09467
0.08240
0.07013
0.06224
0.06224
0.07451
0.09029
0.09730
0.09730
0.08766
0.07013
0.05522
0.04997
0.05522
0.06487
0.07276
0.07013
0.05522
0.03506
0.01490
0.00263
0.00263
0.00964
0.01753
0.02016
0.01490
0.00263
-0.01490
-0.02717
-0.02717
-0.01753
-0.00263
0.00701
0.00789
0.00000
-0.01490
-0.02717
-0.02980
-0.02016
-0.00263
0.00964
0.01490
0.01052
-0.00175
-0.01753
-0.02542
-0.01753
-0.00263
0.01227
0.02279
0.02016
0.00789
-0.00438
-0.01227
-0.01052
0.00175
0.01666
0.02980
0.03243
0.02279
0.00789
-0.00438
-0.00789
0.00175
0.01666
0.02980
0.03769
0.03331
0.02016
0.01227
0.01227
0.02630
0.05172
0.07626
0.09730
0.10519
0.10081
0.09292
0.08766
0.09204
0.10431
0.11483
0.12009
0.11571
0.09818
0.07626
0.05785
0.04997
0.05259
0.05961
0.06311
0.05347
0.03331
0.00877
-0.01403
-0.02717
-0.02542
-0.01315
-0.00088
0.00701
0.00526
-0.00701
-0.02191
-0.02980
-0.02805
-0.01841
-0.00526
0.00263
0.00263
-0.00438
-0.01928
-0.03243
-0.03506
-0.02805
-0.01315
-0.00088
0.00526
0.00088
-0.01140
-0.02454
-0.02980
-0.02542
-0.01315
0.00175
0.01227
0.00877
-0.00877
-0.02454
-0.01928
0.04383
0.16918
0.30943
0.42690
0.50228
0.50842
0.38394
0.09818
-0.28664
-0.64341
-0.89499
-1.07031
-1.19653
-1.25877
-1.23510
-1.11413
-0.91340
-0.67584
-0.44267
-0.24807
-0.11922
-0.04383
-0.00614
0.00964
0.01928
0.03156
0.04821
0.06662
0.07889
0.08503
0.07889
0.06750
0.06311
0.06224
0.07100
0.08415
0.09642
0.10694
0.10344
0.09116
0.07889
0.07013
0.07451
0.08853
0.10431
0.10957
0.10957
0.10168
0.08328
0.07276
0.07451
0.08590
0.10168
0.10957
0.10782
0.09905
0.08590
0.07626
0.07451
0.08415
0.09818
0.11396
0.12009
0.11571
0.10344
0.09292
0.09029
0.09642
0.10870
0.12097
0.12973
0.12623
0.11396
0.10081
0.09467
0.09905
0.11133
0.12623
0.13675
0.13762
0.13061
0.11922
0.10607
0.10168
0.10870
0.12272
0.14113
0.14990
0.14376
0.12886
0.11571
0.10957
0.11571
0.13061
0.14639
0.15691
0.15778
0.14727
0.13061
0.12272
0.12360
0.13587
0.15077
0.16392
0.17006
0.16392
0.14902
0.13762
0.13499
0.14288
0.15866
0.16918
0.17532
0.16918
0.15603
0.14639
0.14201
0.14902
0.16480
0.18233
0.18321
0.17795
0.16743
0.15077
0.14288
0.14025
0.14551
0.15691
0.16041
0.15428
0.13762
0.11571
0.09379
0.08503
0.08853
0.10081
0.10957
0.10607
0.09204
0.07188
0.05259
0.04032
0.04208
0.04909
0.05873
0.06311
0.05435
0.03769
0.01928
0.00789
0.00877
0.02104
0.03419
0.04032
0.04032
0.03419
0.02104
0.01315
0.01227
0.01841
0.03068
0.04208
0.04295
0.03243
0.01227
-0.00175
-0.00526
-0.00351
0.00526
0.02016
0.02980
0.02454
0.00964
-0.00351
-0.01227
-0.01140
-0.00088
0.00877
0.01666
0.01841
0.00964
-0.00526
-0.01841
-0.02279
-0.01490
0.00263
0.01666
0.02367
0.02980
0.02805
0.02542
0.02893
0.04032
0.05873
0.08065
0.09204
0.09116
0.07802
0.05785
0.03945
0.02980
0.03331
0.04208
0.04471
0.03945
0.01928
-0.00877
-0.03243
-0.04821
-0.05347
-0.04646
-0.03857
-0.03857
-0.05172
-0.07013
-0.08328
-0.09029
-0.08678
-0.07276
-0.05785
-0.05347
-0.05172
-0.06048
-0.07539
-0.08678
-0.08678
-0.07451
-0.06136
-0.05172
-0.04821
-0.06048
-0.07363
-0.08328
-0.08853
-0.07977
-0.06311
-0.04646
-0.04208
-0.04821
-0.06048
-0.07363
-0.07802
-0.07188
-0.06136
-0.04821
-0.01753
0.04909
0.15253
0.25859
0.35414
0.41988
0.40060
0.23668
-0.06048
-0.43303
-0.77314
-1.00369
-1.16235
-1.26140
-1.27981
-1.20267
-1.03963
-0.82662
-0.61185
-0.41988
-0.27349
-0.17356
-0.09818
-0.03857
0.00526
0.02980
0.04032
0.03506
0.02191
0.01490
0.02016
0.03506
0.05172
0.06662
0.06837
0.05873
0.04208
0.03331
0.03331
0.04646
0.06487
0.07802
0.08503
0.07977
0.06662
0.05522
0.04471
0.04997
0.06487
0.07802
0.08503
0.08152
0.07013
0.05698
0.04997
0.05347
0.06487
0.07802
0.08678
0.08853
0.08065
0.06487
0.05347
0.05347
0.06311
0.07451
0.08853
0.09379
0.08853
0.08065
0.06837
0.06487
0.06925
0.08328
0.09642
0.10957
0.10694
0.09555
0.08065
0.06837
0.06837
0.07977
0.09642
0.10957
0.10957
0.10344
0.08503
0.07363
0.07276
0.08328
0.09642
0.11133
0.11308
0.10694
0.09555
0.08240
0.07539
0.07802
0.09292
0.11308
0.12009
0.11659
0.10519
0.09029
0.07977
0.08328
0.09555
0.11483
0.12623
0.12535
0.11220
0.09905
0.08503
0.08678
0.09467
0.10782
0.11834
0.12360
0.11746
0.10431
0.08853
0.08503
0.08678
0.09555
0.11133
0.11396
0.10607
0.09029
0.07539
0.06224
0.05610
0.06136
0.06750
0.07363
0.06399
0.04383
0.02454
0.00614
-0.00526
-0.00351
0.00175
0.00614
0.00614
-0.01052
-0.03068
-0.04821
-0.05522
-0.05347
-0.04558
-0.03331
-0.02980
-0.03243
-0.04383
-0.05961
-0.07100
-0.07188
-0.06224
-0.05084
-0.04032
-0.04383
-0.05785
-0.06925
-0.08152
-0.08328
-0.07626
-0.06048
-0.04734
-0.04120
-0.04909
-0.06399
-0.07626
-0.07977
-0.07714
-0.06574
-0.05259
-0.04471
-0.04734
-0.06048
-0.07802
-0.08678
-0.08766
-0.07626
-0.06224
-0.05347
-0.05172
-0.05785
-0.06662
-0.06750
-0.05610
-0.03945
-0.01841
0.00438
0.01666
0.01841
0.01140
-0.00088
-0.00614
-0.00964
-0.00877
-0.00526
-0.00614
-0.01490
-0.03506
-0.05347
-0.06925
-0.07977
-0.07977
-0.07977
-0.08240
-0.09379
-0.11045
-0.12973
-0.14639
-0.14990
-0.14639
-0.13236
-0.12360
-0.12097
-0.12710
-0.13850
-0.15165
-0.15515
-0.15253
-0.14025
-0.12360
-0.12009
-0.12097
-0.12973
-0.14727
-0.15515
-0.15340
-0.14464
-0.12710
-0.11834
-0.11746
-0.12710
-0.13850
-0.14990
-0.14902
-0.14113
-0.12623
-0.11483
-0.11659
-0.11922
-0.10168
-0.03243
0.08503
0.20775
0.31820
0.39621
0.38657
0.22178
-0.11045
-0.51981
-0.86343
-1.08959
-1.24036
-1.32802
-1.34555
-1.28332
-1.13254
-0.92830
-0.70828
-0.49790
-0.32872
-0.20512
-0.12710
-0.07889
-0.05873
-0.05522
-0.05522
-0.05347
-0.04558
-0.02630
-0.01227
-0.00351
-0.00263
-0.01315
-0.02717
-0.03506
-0.03243
-0.02016
-0.00175
0.01140
0.01315
0.00175
-0.01315
-0.02542
-0.02279
-0.01315
-0.00088
0.01578
0.01928
0.01140
-0.00351
-0.01578
-0.02016
-0.01666
-0.00088
0.01578
0.02016
0.01753
0.00701
-0.00789
-0.02016
-0.01666
-0.00175
0.01227
0.02016
0.01928
0.01052
-0.00701
-0.01490
-0.01315
-0.00175
0.01315
0.02717
0.03419
0.02717
0.01315
0.00263
-0.00351
0.00351
0.01841
0.03243
0.04032
0.03769
0.02717
0.01403
0.01140
0.01578
0.02454
0.04208
0.05084
0.05259
0.04295
0.03331
0.02367
0.02191
0.03331
0.04909
0.06487
0.06487
0.06136
0.04208
0.02893
0.02630
0.03243
0.04383
0.06224
0.06925
0.06399
0.05610
0.03857
0.03506
0.03682
0.04909
0.06662
0.07626
0.07714
0.06311
0.05172
0.04032
0.04120
0.04909
0.06662
0.07626
0.07889
0.07188
0.05610
0.03682
0.02542
0.02717
0.03594
0.04120
0.04383
0.03594
0.01666
-0.00351
-0.02191
-0.02893
-0.02279
-0.01315
-0.00614
-0.01403
-0.03506
-0.05873
-0.07626
-0.07977
-0.07714
-0.06311
-0.05435
-0.05084
-0.05873
-0.07714
-0.08678
-0.09379
-0.08766
-0.07100
-0.05435
-0.04997
-0.05172
-0.06399
-0.08065
-0.08503
-0.08415
-0.07626
-0.05873
-0.05522
-0.05610
-0.06311
-0.08152
-0.09116
-0.09292
-0.08240
-0.06750
-0.05522
-0.05610
-0.06311
-0.08240
-0.09555
-0.09993
-0.09730
-0.08328
-0.07451
-0.07100
-0.07714
-0.09204
-0.10168
-0.10957
-0.10870
-0.09642
-0.07626
-0.05873
-0.05435
-0.05084
-0.05522
-0.05435
-0.04646
-0.02630
-0.00701
0.01052
0.01490
0.01227
-0.00351
-0.02367
-0.04120
-0.04383
-0.03857
-0.02893
-0.02542
-0.03419
-0.05873
-0.08328
-0.10256
-0.11483
-0.11396
-0.10870
-0.10081
-0.10782
-0.12798
-0.14639
-0.15603
-0.15954
-0.15340
-0.14201
-0.12447
-0.12097
-0.12798
-0.14639
-0.15691
-0.16392
-0.15340
-0.14201
-0.12360
-0.11571
-0.12184
-0.13236
-0.14639
-0.15428
-0.14814
-0.13762
-0.12272
-0.10957
-0.10607
-0.11746
-0.13236
-0.14464
-0.14376
-0.13324
-0.12272
-0.10431
-0.05785
0.03243
0.15165
0.26385
0.35414
0.40673
0.35852
0.14639
-0.20775
-0.61185
-0.93181
-1.15270
-1.30786
-1.38763
-1.35695
-1.21757
-1.01596
-0.80032
-0.58468
-0.40673
-0.27700
-0.18584
-0.11834
-0.06925
-0.03331
-0.01928
-0.01666
-0.02542
-0.03068
-0.03419
-0.02805
-0.01403
-0.00351
0.00438
-0.00088
-0.01227
-0.02542
-0.02893
-0.02279
-0.00789
0.01140
0.02104
0.02367
0.01403
0.00351
-0.00526
-0.00964
-0.00351
0.01140
0.02104
0.02454
0.01841
0.00789
-0.00526
-0.00964
-0.00263
0.01753
0.03594
0.04032
0.03857
0.02279
0.00789
-0.00438
0.00175
0.01666
0.03156
0.04032
0.03945
0.03243
0.01315
0.00000
0.00088
0.01140
0.02630
0.04208
0.05435
0.04909
0.03857
0.02454
0.02016
0.02630
0.04032
0.04558
0.04997
0.04909
0.03945
0.03419
0.03068
0.03594
0.04734
0.06574
0.07539
0.07889
0.06925
0.05873
0.04471
0.04646
0.05698
0.07188
0.08503
0.08503
0.08328
0.06399
0.05435
0.05084
0.06136
0.07188
0.08590
0.09467
0.09379
0.08328
0.06925
0.06048
0.06574
0.07626
0.09116
0.10519
0.10344
0.08853
0.07363
0.06487
0.06574
0.07100
0.08590
0.09467
0.09379
0.08240
0.05785
0.03857
0.02542
0.03068
0.04120
0.05435
0.04909
0.03331
0.01315
-0.00614
-0.02016
-0.02454
-0.01403
-0.00438
0.00438
-0.00088
-0.01666
-0.03156
-0.05084
-0.05435
-0.04909
-0.03419
-0.02542
-0.02542
-0.03156
-0.04646
-0.06048
-0.06487
-0.05961
-0.04821
-0.02980
-0.02980
-0.03156
-0.05084
-0.06136
-0.07451
-0.06925
-0.05873
-0.04383
-0.03506
-0.04032
-0.05084
-0.06136
-0.07539
-0.07977
-0.07889
-0.06399
-0.05435
-0.04997
-0.05610
-0.07100
-0.08590
-0.09467
-0.09379
-0.07889
-0.06487
-0.06048
-0.06574
-0.08065
-0.09555
-0.09993
-0.09905
-0.07889
-0.05873
-0.04471
-0.03506
-0.04032
-0.04471
-0.04383
-0.02893
-0.01403
0.00614
0.02104
0.02980
0.02367
0.00877
-0.01140
-0.02980
-0.02980
-0.02454
-0.01403
-0.00614
-0.02104
-0.04646
-0.07100
-0.09029
-0.09993
-0.09993
-0.09467
-0.09029
-0.10081
-0.11571
-0.13587
-0.14990
-0.14990
-0.13938
-0.12447
-0.10957
-0.10519
-0.11571
-0.13061
-0.14990
-0.14990
-0.14376
-0.12447
-0.11483
-0.10519
-0.11045
-0.12623
-0.14551
-0.14990
-0.14902
-0.13412
-0.11922
-0.10519
-0.10519
-0.11571
-0.13061
-0.14025
-0.13938
-0.12973
-0.11396
-0.09292
-0.04646
0.04997
0.16392
0.26823
0.35765
0.41287
0.36115
0.13499
-0.24544
-0.65130
-0.94758
-1.14569
-1.28770
-1.35958
-1.33503
-1.20355
-1.01245
-0.80295
-0.58906
-0.40586
-0.27700
-0.18233
-0.11308
-0.05873
-0.02893
-0.00964
-0.01052
-0.01490
-0.02542
-0.02454
-0.01490
0.00000
0.01490
0.02016
0.01490
0.00438
-0.00526
-0.00964
-0.00438
0.00526
0.02016
0.03506
0.03945
0.02980
0.01490
0.00526
0.00526
0.01578
0.03506
0.04471
0.04997
0.03945
0.02454
0.00964
0.00526
0.01490
0.03068
0.04471
0.04997
0.04471
0.03506
0.01490
0.01052
0.01490
0.02980
0.04558
0.05522
0.05435
0.03945
0.02980
0.01490
0.01490
0.02980
0.04558
0.06048
0.06487
0.05961
0.04471
0.03506
0.03506
0.04032
0.06048
0.07539
0.08503
0.08503
0.06487
0.05522
0.04471
0.04997
0.06487
0.08503
0.09029
0.09029
0.08503
0.06487
0.05522
0.05522
0.06487
0.07977
0.09467
0.09467
0.08503
0.07013
0.05961
0.05522
0.06487
0.07977
0.09467
0.10519
0.09993
0.08503
0.07013
0.06487
0.06487
0.07977
0.09467
0.10519
0.10519
0.09467
0.07977
0.07013
0.06487
0.07977
0.09029
0.10519
0.10519
0.09029
0.07013
0.04997
0.04032
0.04471
0.05522
0.06487
0.06487
0.04997
0.03068
0.01052
-0.00438
-0.00964
-0.00526
0.00526
0.00964
0.00000
-0.01490
-0.03506
-0.05435
-0.05522
-0.05522
-0.04032
-0.02980
-0.02542
-0.03506
-0.05435
-0.07013
-0.07451
-0.06487
-0.04997
-0.03068
-0.02980
-0.02980
-0.04471
-0.05435
-0.06487
-0.06048
-0.04997
-0.03068
-0.02016
-0.02016
-0.02980
-0.04909
-0.05522
-0.05522
-0.04997
-0.03068
-0.02542
-0.02016
-0.02980
-0.04909
-0.05961
-0.06487
-0.06048
-0.04558
-0.03068
-0.02980
-0.03506
-0.05435
-0.06925
-0.07451
-0.06574
-0.05522
-0.03068
-0.01578
-0.00526
-0.00526
-0.00964
-0.00964
-0.00526
0.01403
0.03945
0.04997
0.05522
0.04558
0.02104
0.00088
-0.00964
-0.01490
-0.00526
0.00438
0.00526
-0.00438
-0.03331
-0.05873
-0.07889
-0.08941
-0.09029
-0.08065
-0.07977
-0.08503
-0.09905
-0.11922
-0.12447
-0.12535
-0.12009
-0.10081
-0.09029
-0.08503
-0.09905
-0.10957
-0.12447
-0.12535
-0.12009
-0.10081
-0.09029
-0.08065
-0.08503
-0.09905
-0.11396
-0.12447
-0.11571
-0.10081
-0.08152
-0.07539
-0.07539
-0.07977
-0.09905
-0.10957
-0.10957
-0.10081
-0.08152
-0.02805
0.06925
0.18759
0.28927
0.37518
0.42690
0.39271
0.20249
-0.13850
-0.53471
-0.85554
-1.08082
-1.25439
-1.35432
-1.34555
-1.21845
-1.02297
-0.79944
-0.57504
-0.38307
-0.25333
-0.17006
-0.10870
-0.05873
-0.02279
0.00789
0.01490
0.01490
0.00614
-0.00438
-0.00526
0.00000
0.01403
0.03331
0.03945
0.04032
0.02630
0.01140
0.00526
0.01403
0.02454
0.03857
0.04909
0.04558
0.03594
0.02104
0.01578
0.01490
0.02893
0.04383
0.05873
0.05961
0.05084
0.03594
0.02104
0.01578
0.02454
0.03857
0.05347
0.06399
0.05610
0.04120
0.03068
0.02542
0.02980
0.03945
0.05785
0.06487
0.06487
0.05172
0.04120
0.03068
0.02980
0.03945
0.06311
0.07451
0.07977
0.07100
0.05610
0.04120
0.04032
0.04909
0.06399
0.07889
0.08415
0.08065
0.06662
0.05172
0.04558
0.05435
0.06837
0.08328
0.09379
0.09029
0.08065
0.06662
0.06048
0.05961
0.06925
0.08766
0.10344
0.10519
0.09116
0.08065
0.06662
0.06487
0.06925
0.08328
0.10256
0.10957
0.10081
0.08678
0.07626
0.07539
0.07977
0.08853
0.10782
0.10957
0.10957
0.09642
0.08152
0.06662
0.06487
0.07802
0.09379
0.09905
0.09555
0.08590
0.06750
0.04734
0.04032
0.04032
0.05347
0.05961
0.05522
0.04208
0.01753
0.00175
-0.00877
-0.00964
-0.00526
0.00351
0.00964
0.00088
-0.01315
-0.03243
-0.04383
-0.04471
-0.03594
-0.02630
-0.01578
-0.01490
-0.02805
-0.04734
-0.05435
-0.05522
-0.04646
-0.03156
-0.01666
-0.01490
-0.02367
-0.03857
-0.05347
-0.05522
-0.05084
-0.03243
-0.02104
-0.01140
-0.01841
-0.02893
-0.04734
-0.05435
-0.05522
-0.04646
-0.03156
-0.02104
-0.02454
-0.02893
-0.04734
-0.05873
-0.05961
-0.05522
-0.04646
-0.03156
-0.02980
-0.03857
-0.05259
-0.06837
-0.07889
-0.07100
-0.05698
-0.04646
-0.03243
-0.03419
-0.04383
-0.05347
-0.05961
-0.04734
-0.02805
0.00088
0.02191
0.03331
0.03068
0.01753
0.01052
0.00964
0.01841
0.02893
0.02980
0.02542
0.01666
-0.00175
-0.02630
-0.03857
-0.04032
-0.03594
-0.03506
-0.04383
-0.05347
-0.07626
-0.10168
-0.11746
-0.12009
-0.11133
-0.10168
-0.09116
-0.09029
-0.09818
-0.11308
-0.12360
-0.12535
-0.11659
-0.10256
-0.09116
-0.08590
-0.09379
-0.10344
-0.11746
-0.12447
-0.11659
-0.10256
-0.08328
-0.07539
-0.07889
-0.08853
-0.10256
-0.11308
-0.11045
-0.10168
-0.08328
-0.07188
-0.07451
-0.08766
-0.09379
-0.04909
0.06048
0.19285
0.31995
0.41988
0.46021
0.37342
0.10870
-0.29103
-0.67760
-0.95284
-1.14131
-1.27017
-1.33591
-1.32451
-1.21582
-1.02472
-0.79857
-0.56452
-0.35852
-0.20863
-0.11483
-0.06311
-0.03419
-0.02542
-0.02542
-0.01666
-0.00701
0.01140
0.03156
0.03945
0.03594
0.02279
0.01140
0.00614
0.01315
0.02367
0.03769
0.04821
0.04558
0.03682
0.02279
0.01578
0.01928
0.03682
0.04821
0.06224
0.06487
0.05698
0.04295
0.03156
0.02980
0.03857
0.05259
0.06311
0.06925
0.06574
0.05259
0.04208
0.03594
0.03945
0.05259
0.06750
0.07802
0.07626
0.06311
0.04821
0.04120
0.04383
0.05698
0.06837
0.08240
0.08503
0.07276
0.06224
0.05172
0.04997
0.06224
0.07714
0.08766
0.09029
0.08590
0.07276
0.06574
0.06136
0.06399
0.08065
0.09730
0.10782
0.10168
0.08766
0.07714
0.06662
0.06925
0.08240
0.09292
0.10256
0.10081
0.09204
0.07802
0.06662
0.06487
0.07276
0.08678
0.10168
0.10870
0.10168
0.08766
0.07714
0.07539
0.08328
0.09730
0.11220
0.12272
0.12097
0.11220
0.09818
0.08678
0.08503
0.10081
0.11659
0.12798
0.12623
0.11308
0.09818
0.08328
0.07977
0.08415
0.09292
0.10256
0.09730
0.08328
0.06399
0.04471
0.03243
0.03419
0.03857
0.04383
0.04471
0.03682
0.01928
-0.00088
-0.01315
-0.01490
-0.00701
0.00701
0.01403
0.01490
-0.00088
-0.02016
-0.03243
-0.03506
-0.02717
-0.00964
0.00263
0.00526
-0.00263
-0.02016
-0.02893
-0.02980
-0.02630
-0.00964
0.00263
0.00877
0.00614
-0.00614
-0.02191
-0.02893
-0.02980
-0.02630
-0.01315
-0.00614
-0.00526
-0.01227
-0.02630
-0.04120
-0.04909
-0.04208
-0.03243
-0.01841
-0.01140
-0.02191
-0.03682
-0.05172
-0.05873
-0.05610
-0.04383
-0.03243
-0.02980
-0.03419
-0.04997
-0.06224
-0.06837
-0.06662
-0.05347
-0.03506
-0.02279
-0.01578
-0.01841
-0.02717
-0.02980
-0.01841
0.00351
0.02542
0.03769
0.04383
0.04120
0.02893
0.01753
0.00789
0.00526
0.01227
0.01490
0.01490
0.00789
-0.01403
-0.03857
-0.05961
-0.06837
-0.07013
-0.06662
-0.06487
-0.07626
-0.09116
-0.10957
-0.12272
-0.12535
-0.12097
-0.10519
-0.09292
-0.08240
-0.08766
-0.09730
-0.11133
-0.11834
-0.11659
-0.10344
-0.08853
-0.08152
-0.07977
-0.09467
-0.11133
-0.12272
-0.12535
-0.11045
-0.09379
-0.08240
-0.07626
-0.08240
-0.09642
-0.09993
-0.09993
-0.09292
-0.08240
-0.06136
-0.01841
0.06487
0.17444
0.27437
0.36203
0.41024
0.33924
0.10168
-0.25684
-0.62325
-0.90989
-1.10800
-1.24650
-1.32364
-1.31049
-1.20179
-1.01946
-0.79769
-0.58205
-0.40498
-0.26911
-0.17356
-0.10256
-0.04909
-0.01315
0.00263
0.00175
-0.00351
-0.00877
-0.00964
-0.00263
0.01052
0.02980
0.03857
0.03682
0.02454
0.01315
0.00614
0.01227
0.02191
0.03594
0.04734
0.04997
0.04295
0.02893
0.01753
0.01490
0.02542
0.04032
0.05610
0.05610
0.04821
0.03419
0.02279
0.02016
0.02717
0.04032
0.05610
0.06399
0.05785
0.04471
0.02893
0.02104
0.02367
0.03594
0.05435
0.06311
0.06487
0.05785
0.04471
0.03682
0.03857
0.05084
0.06574
0.08065
0.08503
0.07802
0.06837
0.05785
0.05172
0.05698
0.07013
0.08590
0.09379
0.09116
0.08328
0.06925
0.06136
0.06311
0.07889
0.09555
0.10694
0.10694
0.09467
0.08328
0.07276
0.07013
0.08065
0.09555
0.10694
0.11308
0.11133
0.09642
0.08678
0.08503
0.08853
0.10344
0.11659
0.12360
0.11834
0.10782
0.09467
0.08678
0.08853
0.10344
0.11659
0.12710
0.12272
0.11308
0.09993
0.08853
0.08503
0.09204
0.10519
0.11659
0.12009
0.11308
0.09292
0.07802
0.06837
0.06837
0.08065
0.08853
0.09029
0.07977
0.05785
0.03682
0.02016
0.01490
0.01841
0.02717
0.02980
0.02630
0.01140
-0.00877
-0.02542
-0.02980
-0.02367
-0.00964
-0.00175
0.00000
-0.00701
-0.02367
-0.03682
-0.04295
-0.03857
-0.02454
-0.01315
-0.00701
-0.01140
-0.02542
-0.03682
-0.04295
-0.04208
-0.02980
-0.01140
-0.00175
-0.00351
-0.01140
-0.02542
-0.03331
-0.03156
-0.02630
-0.01140
-0.00175
-0.00351
-0.01140
-0.02454
-0.04032
-0.04821
-0.04295
-0.02980
-0.01841
-0.01140
-0.01666
-0.02980
-0.04821
-0.05522
-0.05522
-0.04471
-0.03331
-0.02367
-0.02367
-0.02805
-0.03682
-0.04295
-0.03506
-0.01403
0.01140
0.03594
0.05172
0.05172
0.04383
0.03331
0.02980
0.03682
0.04032
0.04295
0.04208
0.03331
0.01666
0.00000
-0.01490
-0.02016
-0.01666
-0.01490
-0.02191
-0.03506
-0.05259
-0.07626
-0.09467
-0.09993
-0.09379
-0.08065
-0.06837
-0.06487
-0.07100
-0.08503
-0.09642
-0.10344
-0.09818
-0.08503
-0.07363
-0.06662
-0.07100
-0.08503
-0.09642
-0.10344
-0.10168
-0.09029
-0.07539
-0.06399
-0.06311
-0.07451
-0.08941
-0.09818
-0.09642
-0.08590
-0.07013
-0.05873
-0.05522
-0.06487
-0.06399
-0.01578
0.08941
0.22353
0.35063
0.44530
0.47160
0.36553
0.09379
-0.30417
-0.69162
-0.96336
-1.14219
-1.25965
-1.30786
-1.26491
-1.14131
-0.96950
-0.75561
-0.53559
-0.34274
-0.19723
-0.10344
-0.04734
-0.02104
-0.01490
-0.01490
-0.00877
0.00088
0.01753
0.03419
0.04295
0.04208
0.03068
0.01841
0.00877
0.01140
0.02454
0.03945
0.05084
0.05522
0.04558
0.03068
0.02191
0.02016
0.03243
0.04909
0.06136
0.06487
0.05610
0.04383
0.03068
0.02542
0.03419
0.04909
0.06399
0.07276
0.06925
0.05610
0.04383
0.03682
0.03769
0.04909
0.06136
0.07100
0.07188
0.06399
0.05084
0.04208
0.04032
0.04909
0.06399
0.07626
0.08328
0.07889
0.06925
0.05610
0.04997
0.05873
0.07363
0.08941
0.09467
0.09204
0.08415
0.07100
0.06487
0.06837
0.07889
0.09730
0.10782
0.10431
0.09116
0.07889
0.06925
0.06837
0.07889
0.09730
0.11133
0.11483
0.10870
0.09642
0.08415
0.07977
0.08328
0.09379
0.10607
0.11308
0.11220
0.10081
0.08941
0.08240
0.08328
0.09379
0.10607
0.11571
0.11746
0.10870
0.09292
0.08240
0.08328
0.09116
0.10344
0.11834
0.12184
0.11396
0.10168
0.08941
0.08240
0.08328
0.09116
0.10081
0.10168
0.09116
0.07013
0.04821
0.03419
0.02980
0.03331
0.03769
0.04032
0.03419
0.01841
-0.00175
-0.01578
-0.02279
-0.01666
-0.00438
0.00263
0.00175
-0.00614
-0.02104
-0.03594
-0.04032
-0.03419
-0.02104
-0.00964
-0.00175
-0.00263
-0.01315
-0.02893
-0.03769
-0.03419
-0.02191
-0.00614
0.00263
0.00175
-0.00526
-0.02104
-0.03243
-0.03243
-0.02717
-0.01403
-0.00175
0.00000
-0.00877
-0.02367
-0.03857
-0.04821
-0.04471
-0.03156
-0.01666
-0.00964
-0.01578
-0.02805
-0.04646
-0.05522
-0.05522
-0.04646
-0.03419
-0.02717
-0.02805
-0.03857
-0.05084
-0.06048
-0.06224
-0.04909
-0.02630
-0.00351
0.01052
0.01490
0.01227
0.00701
0.00789
0.02104
0.04120
0.05785
0.06487
0.05698
0.03594
0.01140
-0.00526
-0.00701
-0.00263
0.00526
0.00964
0.00175
-0.01841
-0.04646
-0.07100
-0.07977
-0.07977
-0.07451
-0.06750
-0.07013
-0.07802
-0.09116
-0.10782
-0.11483
-0.10957
-0.09379
-0.08240
-0.07977
-0.08240
-0.09292
-0.10519
-0.11308
-0.10957
-0.09993
-0.08678
-0.07451
-0.07276
-0.08328
-0.09555
-0.10256
-0.10256
-0.09204
-0.07714
-0.06224
-0.05522
-0.06311
-0.07802
-0.09292
-0.10256
-0.09467
-0.04821
0.04558
0.16655
0.28051
0.37255
0.42602
0.39797
0.22791
-0.09029
-0.47072
-0.79769
-1.03787
-1.21932
-1.34205
-1.37974
-1.30698
-1.12728
-0.88359
-0.63202
-0.41550
-0.26473
-0.17619
-0.12184
-0.08152
-0.04909
-0.01928
0.00526
0.02016
0.02279
0.01227
0.00000
-0.00526
0.00000
0.01315
0.03068
0.04295
0.04208
0.03506
0.02191
0.01227
0.01227
0.02279
0.03769
0.04997
0.05522
0.04734
0.03506
0.02191
0.01753
0.02805
0.04558
0.06048
0.06487
0.05961
0.04734
0.02980
0.01753
0.02016
0.03243
0.04997
0.06224
0.06487
0.05698
0.04471
0.03769
0.03769
0.04471
0.05785
0.07013
0.07539
0.07013
0.05785
0.04471
0.04032
0.04734
0.06224
0.07714
0.08503
0.07977
0.07013
0.05785
0.04734
0.04997
0.06487
0.08240
0.09292
0.09292
0.08503
0.07276
0.06224
0.06224
0.07276
0.08503
0.09730
0.10519
0.09993
0.09029
0.07802
0.07013
0.07451
0.08503
0.09730
0.10782
0.10519
0.09292
0.07977
0.07276
0.07714
0.09204
0.10694
0.11746
0.11746
0.10782
0.09029
0.07539
0.07451
0.08766
0.10256
0.11746
0.12272
0.11308
0.09555
0.07977
0.07539
0.07977
0.08941
0.09993
0.10256
0.09292
0.07802
0.06311
0.04997
0.04734
0.05435
0.06224
0.06487
0.05785
0.04032
0.02016
0.00263
-0.00526
0.00000
0.00964
0.01753
0.02016
0.01490
0.00088
-0.01666
-0.02717
-0.02542
-0.01315
0.00000
0.00526
0.00000
-0.01227
-0.02454
-0.03243
-0.03243
-0.02279
-0.00789
0.00263
0.00000
-0.01227
-0.02454
-0.03506
-0.03769
-0.03068
-0.01841
-0.00789
-0.00526
-0.01403
-0.03156
-0.04471
-0.04734
-0.03769
-0.02279
-0.01052
-0.00526
-0.01227
-0.02893
-0.04646
-0.05698
-0.05785
-0.04821
-0.03506
-0.02980
-0.03243
-0.04383
-0.05961
-0.06925
-0.07276
-0.06311
-0.04821
-0.03331
-0.02016
-0.01315
-0.01227
-0.01315
-0.00789
0.00438
0.02630
0.04646
0.05961
0.06048
0.04646
0.02630
0.00789
0.00000
0.00438
0.01227
0.01753
0.01578
-0.00088
-0.02630
-0.04909
-0.06487
-0.06750
-0.06311
-0.05961
-0.06399
-0.07626
-0.09204
-0.10870
-0.12009
-0.11746
-0.10870
-0.09116
-0.07977
-0.08240
-0.09116
-0.10870
-0.12184
-0.12097
-0.10870
-0.09555
-0.09029
-0.09467
-0.10256
-0.10957
-0.11746
-0.11571
-0.10168
-0.08328
-0.06662
-0.05698
-0.06662
-0.07889
-0.09116
-0.09818
-0.09029
-0.07889
-0.06136
-0.02191
0.05961
0.16743
0.27086
0.35940
0.41375
0.36729
0.15778
-0.19898
-0.59520
-0.90463
-1.10975
-1.25351
-1.33942
-1.33942
-1.24124
-1.06417
-0.84327
-0.61974
-0.42339
-0.27700
-0.17619
-0.10519
-0.05347
-0.01753
0.00614
0.01315
0.00614
-0.00175
-0.00526
-0.00088
0.01315
0.03156
0.04032
0.03769
0.02893
0.01403
0.00263
0.00438
0.01841
0.03594
0.04909
0.05522
0.04909
0.03594
0.02367
0.01666
0.02630
0.04120
0.05435
0.05785
0.04909
0.03419
0.02104
0.01666
0.02630
0.04120
0.05610
0.06487
0.06311
0.05172
0.03594
0.02805
0.02893
0.04120
0.05610
0.06487
0.06487
0.06311
0.05435
0.04295
0.04208
0.05084
0.06574
0.07889
0.08503
0.08065
0.06925
0.05435
0.04471
0.05084
0.06574
0.08065
0.09379
0.09818
0.09116
0.07889
0.06837
0.06662
0.07626
0.08853
0.09905
0.10344
0.09379
0.08152
0.07276
0.07363
0.08415
0.09818
0.11396
0.12009
0.11571
0.10431
0.09116
0.08503
0.08678
0.09730
0.11571
0.12710
0.12623
0.11396
0.09730
0.08328
0.08152
0.09292
0.11308
0.12886
0.13324
0.12272
0.10607
0.09467
0.08678
0.09555
0.10870
0.11922
0.12272
0.11396
0.09730
0.08152
0.07539
0.07714
0.08415
0.09379
0.09993
0.09467
0.07539
0.05084
0.02980
0.02016
0.02191
0.02893
0.03331
0.02454
0.00789
-0.01227
-0.03068
-0.04032
-0.03594
-0.02805
-0.02104
-0.01841
-0.02893
-0.04208
-0.05873
-0.06487
-0.06136
-0.04734
-0.03156
-0.02542
-0.02717
-0.03769
-0.05347
-0.06224
-0.06136
-0.04997
-0.03594
-0.02630
-0.02191
-0.02893
-0.04032
-0.05172
-0.05522
-0.04997
-0.03419
-0.01928
-0.01140
-0.02016
-0.03682
-0.05347
-0.06136
-0.06136
-0.05172
-0.04120
-0.03682
-0.04383
-0.05172
-0.06048
-0.07363
-0.07626
-0.06487
-0.04821
-0.03156
-0.02367
-0.02016
-0.02191
-0.02542
-0.02016
-0.00263
0.01841
0.04208
0.05698
0.05610
0.04295
0.02104
0.00175
-0.00526
-0.00175
0.00877
0.01490
0.00789
-0.01403
-0.03857
-0.06399
-0.07977
-0.07977
-0.07802
-0.07539
-0.07714
-0.08678
-0.10519
-0.11834
-0.12535
-0.12009
-0.10519
-0.09029
-0.07977
-0.08678
-0.10519
-0.11834
-0.12535
-0.12184
-0.10957
-0.09642
-0.08853
-0.08853
-0.09993
-0.11308
-0.12184
-0.12009
-0.10519
-0.09029
-0.07626
-0.07188
-0.07802
-0.09029
-0.10168
-0.10344
-0.09467
-0.07977
-0.05873
-0.01403
0.06574
0.17795
0.28752
0.38131
0.43654
0.38920
0.17619
-0.18671
-0.58030
-0.88272
-1.08696
-1.23072
-1.31487
-1.31224
-1.21231
-1.02911
-0.80733
-0.58906
-0.40060
-0.26297
-0.17269
-0.10607
-0.05084
-0.01052
0.01315
0.01841
0.01140
0.00175
-0.00526
0.00000
0.01666
0.03331
0.04295
0.04646
0.03506
0.02191
0.01490
0.01666
0.02630
0.04646
0.06136
0.06224
0.04997
0.03506
0.02367
0.02191
0.02980
0.04646
0.06136
0.06487
0.06224
0.04997
0.03682
0.03156
0.03682
0.04646
0.06487
0.07626
0.07714
0.06662
0.05435
0.04032
0.04295
0.05435
0.06925
0.08152
0.08503
0.07889
0.06224
0.05172
0.04646
0.05435
0.07100
0.08678
0.09029
0.08678
0.07714
0.06662
0.05961
0.06311
0.07626
0.09467
0.10607
0.10694
0.09555
0.08065
0.07013
0.07276
0.08328
0.09555
0.11133
0.11396
0.10694
0.09555
0.08503
0.08503
0.08941
0.10431
0.11746
0.12535
0.12184
0.11045
0.09555
0.08503
0.08941
0.10431
0.11922
0.13149
0.13236
0.12097
0.10607
0.09379
0.09292
0.10256
0.11571
0.13149
0.13236
0.12097
0.10607
0.09204
0.08678
0.09379
0.10957
0.12272
0.12886
0.12097
0.10344
0.08240
0.07363
0.07100
0.07802
0.08678
0.08853
0.08065
0.06311
0.03945
0.02191
0.01490
0.01753
0.02630
0.02980
0.02630
0.00964
-0.01052
-0.02805
-0.03506
-0.03243
-0.02104
-0.00877
-0.00614
-0.01403
-0.02893
-0.04383
-0.05522
-0.05084
-0.03594
-0.02104
-0.00964
-0.01227
-0.02279
-0.03419
-0.04646
-0.04734
-0.03594
-0.02016
-0.00351
-0.00088
-0.00877
-0.02279
-0.03156
-0.03331
-0.02630
-0.01227
-0.00263
0.00351
-0.00263
-0.01490
-0.03419
-0.04471
-0.04120
-0.02717
-0.01753
-0.00964
-0.01403
-0.02717
-0.04032
-0.05522
-0.05347
-0.04471
-0.02630
-0.01227
-0.00351
-0.00088
-0.00526
-0.00526
-0.00088
0.01578
0.04120
0.06399
0.07626
0.07626
0.06136
0.04646
0.03243
0.02630
0.03243
0.04032
0.03857
0.02980
0.01052
-0.01227
-0.03945
-0.05522
-0.05522
-0.05522
-0.05522
-0.05873
-0.07363
-0.08853
-0.10256
-0.10870
-0.10168
-0.08766
-0.07802
-0.07100
-0.07714
-0.08853
-0.10256
-0.10957
-0.10782
-0.09555
-0.07802
-0.07013
-0.07276
-0.08328
-0.09642
-0.09993
-0.09905
-0.09029
-0.07188
-0.05873
-0.05698
-0.06837
-0.08328
-0.09642
-0.09905
-0.09116
-0.07626
-0.05961
-0.02630
0.04646
0.16129
0.27262
0.36904
0.43917
0.42427
0.25070
-0.08240
-0.48913
-0.83714
-1.07469
-1.24299
-1.34818
-1.35695
-1.25526
-1.06329
-0.82837
-0.59958
-0.40673
-0.26736
-0.16830
-0.09818
-0.04646
-0.00964
0.01140
0.01403
0.00789
-0.00088
-0.00351
0.00351
0.01928
0.03682
0.04646
0.04821
0.03682
0.02279
0.01490
0.01578
0.02454
0.04295
0.05698
0.06311
0.05259
0.04295
0.03331
0.02717
0.03682
0.04909
0.06574
0.06925
0.06224
0.04821
0.03769
0.03068
0.03682
0.04909
0.06662
0.07539
0.07276
0.05961
0.03857
0.03506
0.03594
0.04471
0.06837
0.08065
0.08415
0.07714
0.06224
0.04909
0.04558
0.05259
0.06925
0.08590
0.09029
0.08766
0.07714
0.06399
0.05961
0.06224
0.07276
0.08678
0.09467
0.09379
0.08766
0.07802
0.07013
0.07100
0.07802
0.09379
0.10957
0.10957
0.10694
0.09204
0.07802
0.07188
0.08240
0.09818
0.11308
0.12447
0.11834
0.10607
0.08941
0.08503
0.08678
0.09818
0.11308
0.12535
0.12360
0.11220
0.09730
0.08503
0.08766
0.10256
0.11746
0.13061
0.13324
0.12272
0.10782
0.09818
0.09116
0.09730
0.11220
0.12184
0.12886
0.12272
0.10607
0.08853
0.07889
0.07626
0.08065
0.08590
0.08941
0.08240
0.06662
0.04734
0.03331
0.02542
0.02717
0.04120
0.04383
0.03857
0.02630
0.00789
-0.00789
-0.01928
-0.01315
-0.00175
0.01490
0.01490
0.01140
-0.00789
-0.02191
-0.02980
-0.02630
-0.00789
0.00701
0.01490
0.01315
0.00175
-0.01753
-0.02980
-0.02805
-0.01753
-0.00263
0.00964
0.00877
-0.00263
-0.01753
-0.02980
-0.02893
-0.02279
-0.00964
-0.00351
0.00351
-0.00614
-0.01753
-0.03243
-0.04383
-0.03857
-0.02805
-0.01841
-0.01052
-0.01753
-0.03243
-0.04646
-0.05522
-0.05259
-0.03682
-0.01666
0.00263
0.01490
0.01403
0.00964
0.00614
0.01753
0.03331
0.05785
0.07626
0.08328
0.07100
0.04646
0.02279
0.01052
0.01578
0.02191
0.03506
0.03243
0.01227
-0.00964
-0.04383
-0.06750
-0.07889
-0.07363
-0.06399
-0.05610
-0.06224
-0.07714
-0.09116
-0.10168
-0.10870
-0.09905
-0.08853
-0.07889
-0.07539
-0.08152
-0.09204
-0.10607
-0.11396
-0.10870
-0.09730
-0.07889
-0.07100
-0.07539
-0.08240
-0.10168
-0.10957
-0.10344
-0.09204
-0.07276
-0.05522
-0.05522
-0.06224
-0.07714
-0.09116
-0.09905
-0.08415
-0.03156
0.07626
0.20424
0.31557
0.39709
0.44706
0.40235
0.19811
-0.15077
-0.54962
-0.86080
-1.06417
-1.21932
-1.32451
-1.35257
-1.27543
-1.10274
-0.87045
-0.62325
-0.40586
-0.25333
-0.16304
-0.10607
-0.07013
-0.03156
-0.00263
0.01666
0.02980
0.02805
0.01315
-0.00088
-0.00438
0.00175
0.01753
0.03594
0.04032
0.04471
0.03769
0.01928
0.01490
0.01666
0.03156
0.04646
0.05522
0.05873
0.04909
0.03857
0.02454
0.02191
0.03682
0.05172
0.06574
0.07363
0.06399
0.05347
0.03945
0.03594
0.04120
0.05610
0.06574
0.07539
0.07363
0.06311
0.04471
0.04032
0.04120
0.05172
0.06662
0.08503
0.08415
0.07363
0.06311
0.04909
0.04558
0.05698
0.07626
0.08590
0.09379
0.08415
0.07363
0.05961
0.05610
0.06662
0.08152
0.10081
0.10957
0.10344
0.08853
0.07451
0.06487
0.06662
0.08152
0.09642
0.10957
0.10957
0.10782
0.08941
0.08415
0.08065
0.09116
0.10607
0.12097
0.12886
0.11922
0.10870
0.08941
0.08503
0.08590
0.10168
0.11659
0.12973
0.12886
0.11922
0.10344
0.09029
0.09116
0.10081
0.11659
0.13061
0.13412
0.11922
0.10344
0.08941
0.08503
0.09116
0.10607
0.11571
0.11922
0.10870
0.08853
0.06925
0.06487
0.06487
0.06574
0.07539
0.07451
0.06399
0.04295
0.01928
0.00438
-0.00438
0.00088
0.01052
0.01490
0.00964
-0.00175
-0.02104
-0.03594
-0.04471
-0.03419
-0.02367
-0.00964
-0.00526
-0.01578
-0.03156
-0.04997
-0.05435
-0.04909
-0.03419
-0.01928
-0.01490
-0.02104
-0.03068
-0.04558
-0.05435
-0.04909
-0.03419
-0.01928
-0.00526
-0.00526
-0.01578
-0.03068
-0.04558
-0.04909
-0.03945
-0.02893
-0.01490
-0.01052
-0.01578
-0.03068
-0.04997
-0.05522
-0.05435
-0.04383
-0.02980
-0.02980
-0.03068
-0.04558
-0.06048
-0.07013
-0.06399
-0.04909
-0.02893
-0.00438
0.00000
0.00000
0.00000
0.00088
0.01052
0.02630
0.05084
0.07013
0.07451
0.06399
0.03857
0.01403
0.00000
0.00000
0.00526
0.01490
0.00964
-0.00614
-0.03682
-0.07100
-0.09029
-0.09993
-0.09467
-0.08503
-0.07977
-0.08065
-0.09029
-0.10519
-0.12009
-0.12447
-0.11922
-0.09905
-0.08503
-0.07977
-0.08590
-0.10081
-0.11571
-0.12447
-0.11922
-0.09993
-0.08503
-0.07539
-0.07977
-0.08503
-0.09993
-0.10519
-0.09993
-0.08941
-0.07451
-0.05961
-0.06048
-0.06574
-0.08065
-0.09993
-0.09905
-0.05259
0.05347
0.19811
0.32258
0.41112
0.45933
0.41024
0.20687
-0.14376
-0.54173
-0.84415
-1.04313
-1.19215
-1.29559
-1.32890
-1.26666
-1.10011
-0.86519
-0.61098
-0.38745
-0.23317
-0.14376
-0.09467
-0.06487
-0.03945
-0.01490
0.01052
0.02980
0.04032
0.03945
0.02454
0.00964
0.00526
0.01490
0.02980
0.04471
0.05522
0.05522
0.03945
0.02454
0.01490
0.02016
0.03506
0.05522
0.06487
0.06487
0.05522
0.04032
0.02542
0.02542
0.04032
0.05522
0.06487
0.07539
0.06487
0.05522
0.04032
0.03506
0.04032
0.05522
0.06487
0.07977
0.07539
0.06487
0.04471
0.04032
0.04032
0.05961
0.07539
0.08503
0.08503
0.07977
0.06487
0.04997
0.04997
0.05961
0.07451
0.08503
0.09029
0.08503
0.07013
0.06048
0.05522
0.06487
0.07977
0.09467
0.10519
0.09993
0.08503
0.07539
0.06487
0.06487
0.07977
0.09467
0.10957
0.10957
0.09993
0.08503
0.07539
0.07539
0.08503
0.09993
0.10957
0.11483
0.11045
0.09993
0.08503
0.07539
0.08503
0.09993
0.10957
0.12009
0.11483
0.10519
0.09029
0.08503
0.08503
0.09993
0.11483
0.12973
0.12535
0.11045
0.09555
0.08065
0.07977
0.08503
0.09993
0.10957
0.10957
0.09555
0.08065
0.06048
0.04558
0.04471
0.05435
0.05961
0.05961
0.04558
0.02542
0.00088
-0.01490
-0.02016
-0.01052
-0.00526
0.00000
-0.00526
-0.01490
-0.02980
-0.04909
-0.05522
-0.04558
-0.03068
-0.01578
-0.01052
-0.01928
-0.03419
-0.04909
-0.05522
-0.04997
-0.03068
-0.01578
-0.00526
-0.00526
-0.01928
-0.03419
-0.03945
-0.03506
-0.02542
-0.00614
0.00438
0.00526
-0.00438
-0.01928
-0.03419
-0.03506
-0.02980
-0.01578
-0.00526
-0.00526
-0.00964
-0.02893
-0.04471
-0.05435
-0.04997
-0.03594
-0.02542
-0.02016
-0.02980
-0.03945
-0.05435
-0.05522
-0.05522
-0.03156
-0.00614
0.01403
0.02454
0.02980
0.02542
0.02542
0.03419
0.04909
0.06925
0.08415
0.08065
0.06574
0.04120
0.01666
0.00526
0.00000
0.00964
0.00964
0.00088
-0.01403
-0.03857
-0.06837
-0.08415
-0.09467
-0.08590
-0.08065
-0.07100
-0.07451
-0.07977
-0.09905
-0.10957
-0.10957
-0.10081
-0.08590
-0.07539
-0.07539
-0.07977
-0.09905
-0.10957
-0.11483
-0.10607
-0.09116
-0.08065
-0.07100
-0.07013
-0.08415
-0.09905
-0.10431
-0.09993
-0.08590
-0.07100
-0.06048
-0.05961
-0.07363
-0.09379
-0.10431
-0.08152
-0.00614
0.13412
0.27875
0.39183
0.46459
0.46546
0.32171
0.01928
-0.38307
-0.74246
-0.98615
-1.16585
-1.29471
-1.35519
-1.29997
-1.14832
-0.93707
-0.69951
-0.46459
-0.27963
-0.16830
-0.10519
-0.07714
-0.05698
-0.03682
-0.01227
0.00789
0.02367
0.03419
0.02630
0.01578
0.00614
0.00088
0.01403
0.02893
0.04383
0.05435
0.05084
0.04120
0.02191
0.01578
0.01490
0.03331
0.04821
0.06399
0.06487
0.05610
0.04120
0.03068
0.02980
0.03945
0.05347
0.06399
0.06487
0.06048
0.04646
0.03156
0.02980
0.03945
0.04909
0.06311
0.07363
0.07013
0.06136
0.04208
0.04032
0.04032
0.05347
0.06837
0.07889
0.07977
0.06662
0.05172
0.04120
0.04471
0.05873
0.07802
0.08415
0.08941
0.08590
0.07188
0.06574
0.06048
0.06487
0.07802
0.09379
0.10431
0.09642
0.08590
0.06750
0.06487
0.06925
0.08328
0.09818
0.10870
0.10957
0.09642
0.08152
0.07100
0.07451
0.08415
0.10256
0.11396
0.11483
0.11045
0.09204
0.08152
0.07539
0.08415
0.09818
0.11308
0.11922
0.11571
0.10607
0.09204
0.08590
0.08941
0.10344
0.11834
0.12447
0.12097
0.10694
0.08766
0.07626
0.07100
0.07889
0.09292
0.10344
0.10519
0.09204
0.06837
0.05172
0.04120
0.04032
0.04909
0.05873
0.05522
0.04208
0.01841
0.00175
-0.00438
-0.00526
-0.00088
0.01315
0.01490
0.01052
-0.00263
-0.01841
-0.02893
-0.02980
-0.02104
-0.00701
0.00351
0.00526
-0.00351
-0.01753
-0.03331
-0.03506
-0.03068
-0.01315
-0.00175
0.00438
0.00088
-0.00877
-0.02717
-0.03419
-0.03068
-0.02104
-0.00701
-0.00088
-0.00438
-0.01315
-0.02805
-0.03857
-0.04471
-0.03243
-0.01753
-0.00614
-0.00526
-0.01753
-0.03682
-0.05259
-0.05961
-0.05610
-0.04208
-0.03156
-0.02191
-0.02016
-0.02454
-0.02893
-0.02542
-0.01666
0.00614
0.03156
0.04734
0.05873
0.05961
0.05172
0.04120
0.04032
0.04032
0.04821
0.05873
0.05172
0.03769
0.01403
-0.01140
-0.03594
-0.05259
-0.05522
-0.05522
-0.05522
-0.06311
-0.07802
-0.09642
-0.11220
-0.11483
-0.10256
-0.09204
-0.08152
-0.08415
-0.09379
-0.10782
-0.11834
-0.12009
-0.10782
-0.08853
-0.07626
-0.07539
-0.08328
-0.09730
-0.10870
-0.10957
-0.10168
-0.09204
-0.07714
-0.07100
-0.07802
-0.09204
-0.09905
-0.10431
-0.10081
-0.08766
-0.07276
-0.06136
-0.04383
0.00526
0.10607
0.22002
0.33047
0.42427
0.44443
0.30505
-0.01753
-0.42514
-0.78805
-1.03086
-1.19303
-1.29383
-1.32627
-1.27630
-1.14219
-0.94671
-0.73019
-0.51806
-0.34099
-0.21564
-0.12535
-0.06136
-0.01315
0.00701
0.00964
0.00175
0.00000
0.00789
0.02191
0.03682
0.04383
0.04471
0.03682
0.01841
0.01052
0.00964
0.01841
0.03594
0.05172
0.06311
0.06136
0.04821
0.03682
0.03068
0.03419
0.03945
0.05610
0.06399
0.06487
0.05259
0.04208
0.03156
0.03419
0.04295
0.06136
0.06925
0.07013
0.06574
0.05698
0.04734
0.04120
0.04821
0.06224
0.07714
0.08415
0.07714
0.06311
0.04383
0.03594
0.03857
0.05172
0.07100
0.08328
0.08503
0.07276
0.06224
0.05172
0.04997
0.06224
0.08065
0.09730
0.09993
0.09204
0.07802
0.06750
0.06487
0.07276
0.08678
0.10168
0.10870
0.10168
0.08853
0.08065
0.07626
0.08328
0.09642
0.10782
0.11746
0.11220
0.10256
0.08853
0.08065
0.08415
0.09642
0.11133
0.12710
0.12973
0.11834
0.10694
0.09292
0.09029
0.09818
0.11133
0.12710
0.13412
0.12710
0.11308
0.09818
0.09116
0.09379
0.10694
0.12184
0.12886
0.12184
0.10870
0.08941
0.08152
0.07977
0.08415
0.09292
0.09905
0.08853
0.06925
0.04997
0.03331
0.02191
0.02016
0.02367
0.02893
0.02630
0.01753
0.00000
-0.02016
-0.02893
-0.02980
-0.02630
-0.01315
-0.00614
-0.00877
-0.02542
-0.04120
-0.05259
-0.05522
-0.04383
-0.03243
-0.01841
-0.01490
-0.02630
-0.03769
-0.04734
-0.04997
-0.04208
-0.02893
-0.01403
-0.00614
-0.00877
-0.02542
-0.03769
-0.04734
-0.04208
-0.02893
-0.01403
-0.00614
-0.00526
-0.02016
-0.03594
-0.05172
-0.05084
-0.03857
-0.02717
-0.01753
-0.01490
-0.02630
-0.03769
-0.05084
-0.05522
-0.04032
-0.01227
0.00964
0.02279
0.02542
0.02542
0.02104
0.02367
0.03594
0.05873
0.07276
0.07539
0.06750
0.04646
0.02542
0.01227
0.00614
0.00526
0.00877
0.00614
-0.00614
-0.03243
-0.06224
-0.08503
-0.09730
-0.09642
-0.08766
-0.08152
-0.07977
-0.08328
-0.09642
-0.10694
-0.11396
-0.11133
-0.09905
-0.08415
-0.07626
-0.07889
-0.09467
-0.10694
-0.11746
-0.11659
-0.10431
-0.08503
-0.07276
-0.07013
-0.07714
-0.08766
-0.09730
-0.09993
-0.09642
-0.08415
-0.06574
-0.05610
-0.06574
-0.08065
-0.09555
-0.08503
-0.01841
0.11045
0.25509
0.36729
0.44969
0.46634
0.34888
0.07363
-0.31119
-0.67058
-0.92041
-1.09222
-1.22195
-1.29822
-1.29296
-1.19127
-1.00369
-0.76876
-0.53121
-0.33222
-0.19372
-0.11659
-0.07451
-0.05435
-0.03594
-0.01928
0.00263
0.02104
0.03594
0.03682
0.02805
0.01753
0.01140
0.01315
0.02542
0.04032
0.05172
0.05172
0.04295
0.02893
0.01753
0.01490
0.02542
0.04032
0.05522
0.06311
0.05785
0.04471
0.03331
0.02630
0.03243
0.04558
0.06048
0.06837
0.06662
0.05785
0.04471
0.03331
0.03682
0.04734
0.06048
0.07188
0.07539
0.06837
0.05785
0.04471
0.04383
0.05172
0.06574
0.08065
0.08503
0.08152
0.06925
0.05435
0.04646
0.05522
0.07013
0.08152
0.08853
0.08678
0.07802
0.06837
0.05785
0.05873
0.06662
0.08065
0.09204
0.09467
0.08766
0.07451
0.06662
0.06487
0.07539
0.09029
0.10519
0.10957
0.10694
0.09116
0.08152
0.07977
0.08328
0.09555
0.10694
0.11659
0.11659
0.10431
0.08941
0.08503
0.08503
0.09905
0.11220
0.12184
0.12535
0.11483
0.09993
0.08853
0.08503
0.09555
0.11045
0.12184
0.12535
0.11483
0.09993
0.08853
0.08152
0.08328
0.09204
0.10519
0.10694
0.09467
0.07977
0.06136
0.04471
0.04032
0.04295
0.04821
0.05347
0.04821
0.03156
0.00789
-0.00964
-0.01490
-0.01140
-0.00351
0.00351
0.00526
-0.00175
-0.01841
-0.03506
-0.04295
-0.03857
-0.02805
-0.01490
-0.00701
-0.01140
-0.02454
-0.03682
-0.04646
-0.04646
-0.03506
-0.02016
-0.00877
-0.00526
-0.01490
-0.02630
-0.03682
-0.03682
-0.03156
-0.01666
-0.00351
0.00351
-0.00175
-0.01841
-0.03156
-0.03857
-0.03682
-0.02542
-0.01315
-0.00701
-0.01140
-0.02454
-0.04295
-0.05347
-0.05522
-0.04558
-0.02980
-0.01841
-0.01490
-0.02191
-0.02805
-0.02980
-0.02367
-0.01052
0.01140
0.03594
0.05435
0.05698
0.04821
0.04208
0.04032
0.04032
0.04032
0.04295
0.04471
0.03506
0.02016
0.00175
-0.01753
-0.03156
-0.03506
-0.03506
-0.03857
-0.04997
-0.06487
-0.08240
-0.09993
-0.10519
-0.10168
-0.09029
-0.08152
-0.07977
-0.08328
-0.09467
-0.10957
-0.11483
-0.10519
-0.09379
-0.08328
-0.07714
-0.07802
-0.08941
-0.10168
-0.10782
-0.10694
-0.09555
-0.08328
-0.07363
-0.07013
-0.07626
-0.08590
-0.09642
-0.09642
-0.08590
-0.07363
-0.06399
-0.06311
-0.06487
-0.04646
0.02805
0.14990
0.28138
0.39534
0.46634
0.44443
0.27963
-0.04821
-0.45670
-0.80470
-1.04138
-1.19916
-1.29383
-1.30172
-1.20618
-1.04050
-0.84590
-0.63640
-0.43391
-0.26999
-0.15340
-0.07451
-0.03156
-0.01403
-0.01315
-0.01841
-0.01666
-0.00877
0.00701
0.02717
0.03769
0.03682
0.02542
0.01403
0.00701
0.01140
0.02454
0.03945
0.05084
0.05522
0.04558
0.03068
0.01928
0.01490
0.02454
0.03594
0.05259
0.05961
0.05435
0.04383
0.03068
0.02191
0.02630
0.03945
0.05698
0.06487
0.06224
0.05084
0.03857
0.03156
0.03331
0.04383
0.05873
0.07100
0.07188
0.06399
0.04821
0.03682
0.03769
0.04558
0.05873
0.06837
0.07276
0.06925
0.06224
0.05435
0.04997
0.05873
0.07363
0.08590
0.09029
0.08678
0.07626
0.06399
0.05961
0.06311
0.07363
0.08853
0.10081
0.10168
0.09116
0.08240
0.07451
0.07276
0.08065
0.09993
0.11308
0.11483
0.10607
0.09116
0.07363
0.06487
0.07363
0.09204
0.10870
0.11834
0.11746
0.10957
0.09292
0.08503
0.08766
0.09905
0.11045
0.12097
0.12535
0.11922
0.10957
0.09642
0.09029
0.09905
0.11045
0.12097
0.12184
0.11133
0.09379
0.07626
0.06750
0.07363
0.08853
0.10081
0.10256
0.09116
0.07363
0.05347
0.03945
0.03506
0.03769
0.04032
0.04032
0.03419
0.01841
0.00175
-0.01315
-0.02016
-0.01140
0.00088
0.01052
0.01490
0.00614
-0.01140
-0.02805
-0.03506
-0.03243
-0.02191
-0.00614
0.00263
-0.00088
-0.01315
-0.02805
-0.03769
-0.03682
-0.02980
-0.01403
-0.00526
-0.00789
-0.01578
-0.02805
-0.04032
-0.04208
-0.03419
-0.02191
-0.00964
-0.00526
-0.01315
-0.02805
-0.04295
-0.04997
-0.04471
-0.03419
-0.02191
-0.01490
-0.02367
-0.03857
-0.05347
-0.05961
-0.05698
-0.04120
-0.01666
0.00088
0.00789
0.00438
0.00000
0.00263
0.01052
0.02893
0.05084
0.06574
0.06750
0.05172
0.02630
0.00438
-0.00526
-0.00526
-0.00263
0.00263
0.00000
-0.01578
-0.04120
-0.06837
-0.09116
-0.09993
-0.09730
-0.08941
-0.08240
-0.08240
-0.09292
-0.11308
-0.12798
-0.12710
-0.11922
-0.10694
-0.09467
-0.09292
-0.09730
-0.10782
-0.12009
-0.12535
-0.11922
-0.10694
-0.09467
-0.09029
-0.09292
-0.10256
-0.11834
-0.12535
-0.12009
-0.10694
-0.08941
-0.07451
-0.07276
-0.08065
-0.09292
-0.10519
-0.10694
-0.09204
-0.03506
0.07363
0.20337
0.31732
0.39884
0.42777
0.34099
0.09730
-0.26736
-0.64078
-0.91515
-1.09573
-1.23247
-1.31838
-1.32188
-1.22458
-1.04050
-0.80470
-0.56539
-0.36904
-0.23580
-0.15428
-0.10431
-0.06925
-0.03682
-0.00438
0.01753
0.02980
0.02717
0.01490
0.00526
0.00000
0.00789
0.02279
0.03769
0.04734
0.04471
0.03506
0.02191
0.01490
0.02016
0.03243
0.04997
0.06224
0.06224
0.05259
0.03769
0.02454
0.02016
0.02980
0.04734
0.06048
0.06487
0.05961
0.04734
0.03506
0.02717
0.03243
0.04471
0.05785
0.06750
0.06750
0.05785
0.04471
0.03769
0.03769
0.04997
0.06487
0.07539
0.07714
0.07013
0.05785
0.04471
0.04208
0.05522
0.07276
0.08240
0.08503
0.08240
0.07276
0.06048
0.05785
0.06487
0.07977
0.09730
0.10782
0.10256
0.09029
0.07802
0.07013
0.07451
0.08766
0.10256
0.11220
0.11220
0.10519
0.09555
0.08766
0.08503
0.09204
0.10957
0.12447
0.12973
0.12535
0.11308
0.09993
0.09467
0.10256
0.11483
0.12710
0.13499
0.13236
0.12009
0.10519
0.09993
0.10519
0.11483
0.12710
0.13499
0.13499
0.12798
0.11483
0.10519
0.09993
0.10519
0.11746
0.12710
0.12798
0.11746
0.09818
0.07802
0.06750
0.06750
0.07451
0.08240
0.08240
0.07276
0.05347
0.03068
0.01490
0.00964
0.01227
0.01753
0.02016
0.01315
-0.00438
-0.02191
-0.03682
-0.04295
-0.03506
-0.02279
-0.01052
-0.00701
-0.01666
-0.02980
-0.04208
-0.04997
-0.04295
-0.02805
-0.01315
-0.00526
-0.00964
-0.02191
-0.03682
-0.04471
-0.04032
-0.02805
-0.01315
-0.00263
-0.00263
-0.01227
-0.02454
-0.03419
-0.03769
-0.03068
-0.01841
-0.00789
-0.00526
-0.01403
-0.03156
-0.04646
-0.05522
-0.04821
-0.03331
-0.01841
-0.00789
-0.00526
-0.00964
-0.01490
-0.01052
0.00175
0.02104
0.04646
0.06487
0.07013
0.06750
0.05785
0.04558
0.03769
0.03682
0.04208
0.04471
0.04295
0.02893
0.00351
-0.01928
-0.03857
-0.04997
-0.04997
-0.04821
-0.04909
-0.06399
-0.08152
-0.09642
-0.10694
-0.10519
-0.09379
-0.08065
-0.07276
-0.07451
-0.08415
-0.09642
-0.10957
-0.11308
-0.10344
-0.08853
-0.07363
-0.06750
-0.07451
-0.08678
-0.09730
-0.09993
-0.09818
-0.08853
-0.07363
-0.06487
-0.06925
-0.08152
-0.09467
-0.09993
-0.09379
-0.08065
-0.06837
-0.05610
-0.03243
0.02630
0.12886
0.24720
0.35063
0.43478
0.46021
0.34800
0.06574
-0.32872
-0.70565
-0.98352
-1.17111
-1.28682
-1.31750
-1.24475
-1.08784
-0.88885
-0.68110
-0.48212
-0.31820
-0.19986
-0.11571
-0.05610
-0.01753
0.00175
0.00263
-0.00175
-0.00526
-0.00088
0.01315
0.03156
0.04646
0.05522
0.04909
0.03594
0.02367
0.01666
0.02630
0.04120
0.05610
0.06487
0.06048
0.04909
0.03594
0.02980
0.03419
0.04646
0.06136
0.07013
0.06837
0.05873
0.04383
0.03068
0.02893
0.04120
0.05610
0.06925
0.07276
0.06399
0.04909
0.03594
0.03243
0.03945
0.05347
0.07100
0.08240
0.08328
0.07363
0.05698
0.04471
0.04909
0.05873
0.07276
0.08678
0.08766
0.07889
0.06574
0.05610
0.05172
0.06136
0.07626
0.09116
0.09818
0.09116
0.07889
0.06837
0.06487
0.07100
0.08590
0.09905
0.10519
0.10081
0.08941
0.07451
0.06487
0.06662
0.07626
0.09292
0.10694
0.10782
0.09905
0.08590
0.07626
0.07363
0.08590
0.10081
0.11220
0.11308
0.10607
0.09467
0.08328
0.08152
0.09116
0.10344
0.11571
0.12535
0.12097
0.10957
0.09467
0.08503
0.08678
0.09730
0.11220
0.11483
0.11133
0.09730
0.07977
0.06837
0.06487
0.06662
0.07539
0.08503
0.08328
0.07451
0.05522
0.03243
0.01841
0.01666
0.02191
0.02542
0.02104
0.00964
-0.00526
-0.02016
-0.02980
-0.02630
-0.01403
-0.00088
0.00701
0.00614
-0.00701
-0.02542
-0.03857
-0.04120
-0.03156
-0.01928
-0.00789
-0.00526
-0.01052
-0.02367
-0.03506
-0.04471
-0.03945
-0.02454
-0.01140
-0.00526
-0.01052
-0.02367
-0.03506
-0.04646
-0.04646
-0.03682
-0.02630
-0.02191
-0.02893
-0.04032
-0.05347
-0.06136
-0.06311
-0.05610
-0.04471
-0.03331
-0.02980
-0.03331
-0.04383
-0.05172
-0.05522
-0.04646
-0.02279
-0.00263
0.01315
0.01841
0.01140
0.00351
0.00175
0.01227
0.03331
0.05522
0.06662
0.06311
0.03945
0.01315
-0.00351
-0.01140
-0.01140
-0.00351
-0.00175
-0.01052
-0.02893
-0.05522
-0.07977
-0.09204
-0.09292
-0.08678
-0.07977
-0.08152
-0.09029
-0.10519
-0.11834
-0.12535
-0.12184
-0.10957
-0.09467
-0.08328
-0.08328
-0.09467
-0.11133
-0.12535
-0.12360
-0.11308
-0.09467
-0.08328
-0.08328
-0.09292
-0.10344
-0.11308
-0.11659
-0.10519
-0.09029
-0.07626
-0.07188
-0.07626
-0.08678
-0.10168
-0.10519
-0.09993
-0.07188
0.00088
0.11922
0.24632
0.34625
0.41024
0.39884
0.24895
-0.04909
-0.41375
-0.74948
-0.99141
-1.15533
-1.28069
-1.34468
-1.31137
-1.17550
-0.96249
-0.72143
-0.49264
-0.31645
-0.20074
-0.13587
-0.09204
-0.05347
-0.02016
0.00614
0.02279
0.02805
0.02191
0.01140
0.00351
0.00351
0.01666
0.03506
0.04821
0.05347
0.04646
0.03506
0.02367
0.02016
0.02454
0.03769
0.04997
0.05961
0.05698
0.04558
0.03068
0.02191
0.02805
0.03769
0.04997
0.05961
0.05873
0.04997
0.03682
0.02805
0.02630
0.03419
0.05084
0.06662
0.06837
0.06311
0.05522
0.04383
0.04032
0.04471
0.06136
0.07802
0.08328
0.07539
0.06224
0.05084
0.04120
0.04821
0.05961
0.07451
0.08678
0.08853
0.07889
0.06224
0.05522
0.05610
0.06487
0.07977
0.09292
0.09818
0.09204
0.08065
0.06837
0.06487
0.06925
0.08328
0.09292
0.09993
0.09818
0.09204
0.08240
0.07539
0.07802
0.09116
0.10782
0.11659
0.11746
0.10431
0.08678
0.07977
0.08152
0.09029
0.10957
0.12272
0.12973
0.12447
0.10694
0.09730
0.09116
0.09905
0.11396
0.12798
0.13499
0.13061
0.11571
0.10256
0.09467
0.09818
0.10957
0.12272
0.12710
0.11746
0.10344
0.08065
0.06837
0.06487
0.06662
0.07276
0.07977
0.07626
0.05785
0.03331
0.01052
-0.00175
-0.00263
0.00789
0.01490
0.01403
0.00438
-0.01578
-0.03419
-0.04646
-0.04909
-0.04120
-0.02717
-0.01841
-0.01753
-0.02893
-0.04383
-0.05610
-0.05873
-0.04997
-0.03068
-0.01841
-0.01666
-0.02279
-0.03419
-0.04734
-0.05347
-0.04646
-0.03068
-0.01753
-0.01140
-0.01928
-0.03419
-0.04734
-0.05522
-0.05259
-0.04120
-0.02717
-0.02016
-0.02279
-0.03419
-0.04909
-0.05961
-0.05873
-0.05084
-0.03769
-0.02630
-0.01490
-0.01753
-0.02630
-0.02893
-0.02016
0.00000
0.02104
0.04471
0.06136
0.06399
0.05522
0.03594
0.02279
0.01490
0.01753
0.02717
0.03419
0.02630
0.00877
-0.01490
-0.03506
-0.05084
-0.05522
-0.05522
-0.05610
-0.06399
-0.07889
-0.09379
-0.10782
-0.11396
-0.10782
-0.09642
-0.08415
-0.07977
-0.08328
-0.09818
-0.11220
-0.11922
-0.11133
-0.09642
-0.08240
-0.07363
-0.07276
-0.08328
-0.09730
-0.10607
-0.10782
-0.09730
-0.08678
-0.07363
-0.07100
-0.07714
-0.08766
-0.09642
-0.09905
-0.09116
-0.07626
-0.06399
-0.05785
-0.03945
0.01753
0.12360
0.24544
0.35326
0.44267
0.46809
0.34976
0.05172
-0.35589
-0.72756
-0.98177
-1.15358
-1.26228
-1.29909
-1.25351
-1.11764
-0.92304
-0.71178
-0.50403
-0.32872
-0.19898
-0.10957
-0.04646
-0.01140
0.00000
-0.00088
-0.00526
-0.00526
-0.00175
0.01403
0.03243
0.04032
0.03857
0.03156
0.01753
0.00964
0.01140
0.01841
0.03331
0.04734
0.05259
0.04295
0.03156
0.01928
0.01753
0.02805
0.04383
0.06136
0.06487
0.06224
0.04646
0.03331
0.02630
0.03243
0.04295
0.05698
0.06574
0.06925
0.06048
0.04295
0.03506
0.03594
0.04383
0.06224
0.07013
0.06925
0.06311
0.05172
0.04032
0.04120
0.04821
0.06311
0.07714
0.08503
0.08240
0.06837
0.05785
0.04997
0.05259
0.06925
0.08678
0.09555
0.09730
0.08328
0.07276
0.06487
0.06662
0.07802
0.09292
0.10607
0.10870
0.10168
0.08766
0.07802
0.07188
0.08328
0.09818
0.11133
0.11396
0.10782
0.09730
0.08328
0.07626
0.08152
0.09379
0.11220
0.12009
0.11834
0.10694
0.09292
0.08503
0.08590
0.09379
0.11220
0.12097
0.12447
0.11746
0.10168
0.08503
0.08503
0.08766
0.10168
0.11133
0.11396
0.10694
0.09204
0.07714
0.06487
0.06662
0.07714
0.08503
0.08328
0.07276
0.05610
0.03594
0.01403
0.01052
0.01578
0.02104
0.02542
0.02367
0.01140
-0.00877
-0.02630
-0.03419
-0.02805
-0.01841
-0.00877
-0.00614
-0.01315
-0.03156
-0.04208
-0.04909
-0.04208
-0.02717
-0.01315
-0.00526
-0.00701
-0.01753
-0.03156
-0.04032
-0.03857
-0.02717
-0.01227
0.00000
-0.00088
-0.00701
-0.02191
-0.03156
-0.03857
-0.02717
-0.01315
-0.00351
0.00351
-0.00701
-0.01841
-0.03682
-0.04471
-0.04383
-0.03243
-0.01841
-0.01052
-0.01753
-0.03243
-0.04646
-0.05435
-0.04734
-0.03156
-0.01227
0.00701
0.02104
0.02367
0.01490
0.01578
0.02191
0.03857
0.06311
0.08065
0.08328
0.07013
0.04120
0.01753
0.00438
0.00175
0.01052
0.01578
0.01841
0.00614
-0.02016
-0.05259
-0.07188
-0.07977
-0.07889
-0.06925
-0.06487
-0.06750
-0.08328
-0.10168
-0.10957
-0.10870
-0.09818
-0.08328
-0.07363
-0.06662
-0.07714
-0.09116
-0.10168
-0.10957
-0.10256
-0.08766
-0.07363
-0.06487
-0.06662
-0.08240
-0.09555
-0.09993
-0.09905
-0.08766
-0.07276
-0.05961
-0.05698
-0.07100
-0.08240
-0.09555
-0.09905
-0.09292
-0.07276
-0.01140
0.09642
0.21915
0.32521
0.40235
0.44618
0.39621
0.19285
-0.15077
-0.54085
-0.85291
-1.07206
-1.23773
-1.32977
-1.31487
-1.18601
-0.98878
-0.77139
-0.54611
-0.35940
-0.23492
-0.15866
-0.10431
-0.06048
-0.02630
0.00175
0.01578
0.01928
0.01403
0.00438
0.00088
0.00614
0.01666
0.03068
0.03506
0.03419
0.02367
0.01315
0.00000
0.00175
0.01666
0.03156
0.04032
0.04471
0.03857
0.02805
0.01490
0.01578
0.02630
0.04208
0.05610
0.06487
0.05785
0.03857
0.02893
0.02016
0.02630
0.04120
0.05610
0.06487
0.06399
0.05347
0.03857
0.02980
0.03156
0.04734
0.06574
0.07539
0.07889
0.06925
0.05873
0.04471
0.04032
0.04734
0.06662
0.08065
0.08503
0.08328
0.06925
0.05961
0.05610
0.06574
0.07626
0.08590
0.09029
0.08941
0.08328
0.06925
0.06487
0.06574
0.07714
0.09642
0.11045
0.11483
0.10870
0.09905
0.08503
0.08590
0.09642
0.11133
0.12535
0.12447
0.11396
0.10344
0.08941
0.08503
0.09204
0.11133
0.13061
0.13499
0.12886
0.11396
0.09993
0.09467
0.09642
0.11045
0.12097
0.13499
0.13499
0.13412
0.11922
0.10957
0.10081
0.10607
0.12097
0.13499
0.13412
0.12360
0.10344
0.07889
0.06487
0.06574
0.08065
0.09029
0.08941
0.07802
0.05347
0.03331
0.01490
0.01490
0.01578
0.03068
0.03419
0.02454
0.01315
-0.00614
-0.01578
-0.02454
-0.01928
-0.00438
0.00526
0.00964
-0.00175
-0.02104
-0.03594
-0.04471
-0.03945
-0.02893
-0.00964
-0.00526
-0.00526
-0.01578
-0.03068
-0.04032
-0.03945
-0.02980
-0.01928
-0.00964
-0.00526
-0.01578
-0.03068
-0.04558
-0.04997
-0.04383
-0.02980
-0.02454
-0.02016
-0.02542
-0.03594
-0.05522
-0.05961
-0.05961
-0.04909
-0.03419
-0.02542
-0.02542
-0.03068
-0.04471
-0.04471
-0.03419
-0.01403
0.01140
0.03594
0.04471
0.03945
0.02980
0.02454
0.02016
0.02542
0.03506
0.03945
0.03419
0.01928
0.00438
-0.01052
-0.02542
-0.02980
-0.02980
-0.03068
-0.04032
-0.05610
-0.07626
-0.09555
-0.11045
-0.11396
-0.09993
-0.08941
-0.07977
-0.08065
-0.09116
-0.11045
-0.12535
-0.12447
-0.10957
-0.09905
-0.08503
-0.08065
-0.09029
-0.10607
-0.12535
-0.12447
-0.11922
-0.09905
-0.08503
-0.07977
-0.08065
-0.09029
-0.10519
-0.11483
-0.10957
-0.09467
-0.07977
-0.06487
-0.06574
-0.07539
-0.08503
-0.07276
0.00877
0.14464
0.29365
0.41199
0.48387
0.44355
0.21915
-0.16129
-0.58819
-0.90025
-1.08345
-1.20705
-1.28594
-1.31400
-1.26140
-1.12465
-0.91953
-0.67935
-0.45056
-0.27262
-0.15340
-0.08415
-0.05435
-0.04032
-0.03506
-0.02454
-0.00438
0.01578
0.03506
0.04032
0.03506
0.02016
0.00964
0.00000
0.01052
0.02542
0.04032
0.04997
0.04471
0.03506
0.02016
0.01490
0.01490
0.03506
0.04997
0.06487
0.06487
0.04997
0.03945
0.02542
0.02542
0.04032
0.05522
0.06487
0.07451
0.06487
0.05522
0.04032
0.03506
0.04032
0.06048
0.07013
0.07977
0.07539
0.06487
0.04997
0.04032
0.04032
0.05522
0.07539
0.08503
0.08503
0.07539
0.06487
0.04997
0.04997
0.05961
0.07539
0.09029
0.09467
0.08503
0.07539
0.06487
0.06487
0.07013
0.08503
0.10519
0.10957
0.10957
0.09467
0.07977
0.07539
0.07977
0.09467
0.10957
0.12009
0.12009
0.11045
0.09993
0.08503
0.08503
0.09467
0.10957
0.12447
0.12973
0.12535
0.11045
0.09993
0.09467
0.09993
0.10957
0.12973
0.13499
0.13499
0.12009
0.10519
0.09993
0.10519
0.11483
0.13499
0.14025
0.14025
0.13061
0.11045
0.09555
0.09029
0.09993
0.10957
0.12009
0.12009
0.11045
0.09029
0.07013
0.05522
0.05522
0.05961
0.06487
0.06487
0.04997
0.03068
0.01052
-0.00964
-0.01490
-0.00526
0.00000
0.00526
0.00000
-0.01490
-0.02980
-0.04471
-0.04997
-0.04032
-0.03068
-0.01578
-0.01052
-0.01928
-0.03419
-0.04909
-0.05522
-0.04558
-0.03068
-0.01578
-0.00526
-0.00964
-0.02454
-0.03506
-0.04471
-0.04032
-0.02542
-0.00614
0.00000
0.00000
-0.00438
-0.02454
-0.02980
-0.03506
-0.02980
-0.01052
-0.00526
-0.00526
-0.00964
-0.02893
-0.03945
-0.04032
-0.03068
-0.01052
0.01403
0.02893
0.03506
0.02542
0.01578
0.01490
0.02893
0.04471
0.06399
0.07451
0.07013
0.05610
0.03156
0.01140
0.00526
0.00964
0.01928
0.02980
0.02016
0.00088
-0.02805
-0.05347
-0.06925
-0.07013
-0.06487
-0.06048
-0.05522
-0.06925
-0.07977
-0.09905
-0.10431
-0.09993
-0.09029
-0.08065
-0.07100
-0.07013
-0.07977
-0.09379
-0.09993
-0.09993
-0.09029
-0.07626
-0.06136
-0.05961
-0.06925
-0.07977
-0.09905
-0.09993
-0.09029
-0.07626
-0.06136
-0.05522
-0.05522
-0.06925
-0.07889
-0.08503
-0.08503
-0.07539
-0.03331
0.06311
0.19548
0.30768
0.38482
0.44618
0.44092
0.29103
-0.01227
-0.41112
-0.75561
-0.99755
-1.19127
-1.31137
-1.34818
-1.28069
-1.10888
-0.86869
-0.62851
-0.41112
-0.26122
-0.16655
-0.10431
-0.05873
-0.01841
0.01227
0.03331
0.03945
0.03506
0.02104
0.01578
0.01490
0.02893
0.04821
0.06399
0.06487
0.05610
0.04120
0.03506
0.03506
0.03945
0.05873
0.07363
0.07977
0.07539
0.06136
0.04208
0.04032
0.04032
0.05347
0.06837
0.08328
0.08065
0.06662
0.05610
0.04120
0.04471
0.05873
0.07363
0.08415
0.08503
0.08065
0.06662
0.05610
0.05084
0.05435
0.06837
0.08328
0.08941
0.08590
0.08065
0.06662
0.06048
0.06487
0.07363
0.08415
0.09818
0.09555
0.08590
0.07626
0.06574
0.06487
0.07363
0.09292
0.10870
0.10957
0.10519
0.09116
0.08065
0.07977
0.08415
0.10256
0.11396
0.11922
0.11571
0.10607
0.09204
0.08590
0.08941
0.10782
0.12360
0.13412
0.13499
0.12184
0.10694
0.09642
0.09467
0.10431
0.11834
0.13324
0.13499
0.12623
0.11133
0.09642
0.09029
0.09905
0.11308
0.13236
0.13499
0.13061
0.11659
0.10168
0.09116
0.09467
0.10782
0.11922
0.12886
0.12535
0.11220
0.08766
0.07626
0.07100
0.07889
0.08415
0.08941
0.08590
0.06750
0.04734
0.02717
0.01666
0.01490
0.02367
0.02980
0.02980
0.01666
-0.00263
-0.01841
-0.02893
-0.02542
-0.01666
-0.00175
0.00877
0.00964
-0.00263
-0.01841
-0.02893
-0.02980
-0.02104
-0.01140
-0.00526
-0.00526
-0.00964
-0.02717
-0.04295
-0.04909
-0.04120
-0.02717
-0.01227
-0.00526
-0.00964
-0.02717
-0.04295
-0.04909
-0.04558
-0.03243
-0.01666
-0.01052
-0.00964
-0.02279
-0.03769
-0.05259
-0.05522
-0.04646
-0.03243
-0.02104
-0.02454
-0.02893
-0.04734
-0.05873
-0.05610
-0.04208
-0.01403
0.01140
0.02805
0.02980
0.02104
0.01578
0.01490
0.02367
0.03769
0.05259
0.05961
0.05172
0.03331
0.00877
-0.00789
-0.01403
-0.01052
-0.00614
-0.00526
-0.01753
-0.03682
-0.06136
-0.08152
-0.09730
-0.09555
-0.08240
-0.07977
-0.07977
-0.08853
-0.10256
-0.11746
-0.12447
-0.12535
-0.10782
-0.09204
-0.08152
-0.07977
-0.09642
-0.10870
-0.11834
-0.11571
-0.10256
-0.09204
-0.08152
-0.07977
-0.08853
-0.09818
-0.10870
-0.10607
-0.10081
-0.08328
-0.06750
-0.06487
-0.07363
-0.08328
-0.09730
-0.10431
-0.09642
-0.04120
0.06574
0.19723
0.31119
0.39621
0.44706
0.41375
0.21915
-0.11834
-0.50666
-0.81873
-1.02735
-1.18426
-1.28857
-1.31312
-1.24036
-1.08082
-0.85642
-0.61711
-0.40586
-0.25070
-0.15954
-0.10782
-0.07539
-0.04558
-0.01578
0.01052
0.02279
0.02542
0.01666
0.00701
0.00088
0.00438
0.01753
0.03594
0.05259
0.05873
0.05172
0.04208
0.02367
0.01578
0.02279
0.03682
0.05610
0.06399
0.05698
0.04295
0.02805
0.01666
0.02279
0.03682
0.05610
0.06399
0.06487
0.04471
0.02805
0.01666
0.01928
0.03243
0.04734
0.05785
0.05961
0.05172
0.04208
0.03594
0.03506
0.04295
0.06136
0.07276
0.07889
0.07188
0.06574
0.05698
0.05084
0.05785
0.06837
0.08240
0.08941
0.08590
0.07276
0.06224
0.05610
0.05522
0.06311
0.07714
0.08415
0.08941
0.08240
0.06837
0.05698
0.05873
0.06837
0.08152
0.10081
0.10870
0.10607
0.08941
0.07714
0.07539
0.08328
0.09642
0.11220
0.12272
0.12097
0.11220
0.09467
0.08240
0.08415
0.09642
0.11220
0.12272
0.12535
0.11308
0.10256
0.09642
0.09467
0.10694
0.11746
0.13149
0.13499
0.13149
0.11396
0.10256
0.09642
0.10256
0.11308
0.12710
0.12973
0.12184
0.10870
0.08941
0.06925
0.06487
0.06925
0.07802
0.07977
0.07188
0.05873
0.03594
0.01841
0.00351
0.00000
0.00789
0.01403
0.01140
-0.00175
-0.02454
-0.04120
-0.04909
-0.04646
-0.03331
-0.02191
-0.01578
-0.01841
-0.03156
-0.04997
-0.05873
-0.05610
-0.05084
-0.03506
-0.02630
-0.02542
-0.02893
-0.04558
-0.05347
-0.05522
-0.04734
-0.03331
-0.02279
-0.01578
-0.02630
-0.04120
-0.05610
-0.06399
-0.05698
-0.04734
-0.03769
-0.03156
-0.03769
-0.05172
-0.06224
-0.07276
-0.07100
-0.06224
-0.05259
-0.03857
-0.03156
-0.03769
-0.04734
-0.04997
-0.03857
-0.02016
0.00351
0.02542
0.03769
0.04032
0.03243
0.01841
0.01490
0.01490
0.01490
0.01841
0.01666
0.01140
-0.00088
-0.02367
-0.03769
-0.04734
-0.04997
-0.04997
-0.05347
-0.06224
-0.07977
-0.09993
-0.12009
-0.12886
-0.12623
-0.11045
-0.09379
-0.09029
-0.09730
-0.11133
-0.12272
-0.12535
-0.12535
-0.11045
-0.09379
-0.08240
-0.08766
-0.09730
-0.11133
-0.11834
-0.11220
-0.09905
-0.08415
-0.07626
-0.07539
-0.08240
-0.09642
-0.10344
-0.10168
-0.09292
-0.07889
-0.06399
-0.05961
-0.06750
-0.07013
-0.02980
0.06574
0.19723
0.32959
0.43391
0.47423
0.36378
0.09818
-0.27612
-0.65042
-0.92041
-1.09397
-1.21144
-1.27280
-1.25965
-1.15533
-0.98265
-0.77052
-0.55049
-0.35940
-0.21564
-0.11834
-0.05873
-0.03419
-0.02630
-0.02542
-0.02104
-0.00877
0.00964
0.02542
0.03682
0.03682
0.02454
0.01666
0.01140
0.01315
0.02542
0.04032
0.05172
0.05522
0.04471
0.03243
0.02279
0.02016
0.03068
0.04558
0.06048
0.06487
0.05785
0.04471
0.03682
0.03156
0.03682
0.04734
0.06048
0.06837
0.06662
0.05785
0.04471
0.03682
0.03857
0.05084
0.06574
0.07714
0.07977
0.06925
0.05435
0.04295
0.04032
0.05084
0.06925
0.08240
0.08503
0.08152
0.06925
0.05785
0.05522
0.06224
0.07539
0.09029
0.09818
0.09292
0.08328
0.06925
0.06487
0.06487
0.07889
0.09555
0.10694
0.10694
0.09818
0.08415
0.07276
0.07363
0.08152
0.09905
0.10870
0.11308
0.11133
0.09642
0.08328
0.07977
0.08328
0.09555
0.10694
0.11659
0.11659
0.10782
0.09467
0.08678
0.08503
0.09555
0.11045
0.12184
0.12184
0.11308
0.09993
0.08853
0.08503
0.09555
0.11045
0.12184
0.12535
0.11483
0.09642
0.08328
0.07626
0.08152
0.08853
0.09642
0.09993
0.09292
0.07626
0.05610
0.04295
0.03682
0.03857
0.04295
0.04471
0.04120
0.02279
0.00175
-0.01490
-0.02016
-0.01666
-0.00789
-0.00526
-0.00877
-0.02367
-0.04032
-0.05172
-0.05873
-0.05698
-0.04120
-0.02805
-0.02191
-0.02367
-0.03506
-0.04997
-0.05873
-0.05698
-0.04471
-0.02980
-0.01490
-0.01315
-0.02454
-0.04032
-0.04821
-0.04646
-0.03506
-0.02016
-0.00877
-0.00526
-0.01140
-0.02454
-0.03682
-0.04295
-0.04208
-0.02980
-0.01841
-0.01140
-0.01666
-0.02980
-0.04471
-0.05347
-0.05522
-0.04208
-0.02191
-0.00877
0.00175
0.00526
0.00175
0.00000
0.00614
0.02016
0.03769
0.05435
0.06311
0.05172
0.03156
0.01227
-0.00175
-0.00526
0.00438
0.01315
0.01490
0.00526
-0.01928
-0.04646
-0.07100
-0.08328
-0.08503
-0.08152
-0.07977
-0.08328
-0.09467
-0.10957
-0.12184
-0.12184
-0.11396
-0.10344
-0.09029
-0.08503
-0.09467
-0.10957
-0.12097
-0.12535
-0.11834
-0.10519
-0.09029
-0.08152
-0.08678
-0.09642
-0.10957
-0.11834
-0.11396
-0.10081
-0.08590
-0.07363
-0.07013
-0.07626
-0.08941
-0.09818
-0.09993
-0.09642
-0.08240
-0.05259
0.00701
0.11045
0.22791
0.32959
0.40936
0.43215
0.32609
0.05785
-0.32258
-0.69162
-0.96775
-1.16498
-1.30172
-1.36045
-1.31049
-1.15007
-0.92216
-0.68286
-0.46985
-0.31119
-0.20424
-0.12973
-0.07363
-0.03331
-0.00175
0.01578
0.01666
0.00877
-0.00088
-0.00526
0.00438
0.02279
0.03594
0.04295
0.04208
0.03068
0.01841
0.01227
0.01315
0.02454
0.03945
0.05084
0.05522
0.04558
0.03419
0.02367
0.02016
0.02893
0.04383
0.05961
0.06224
0.05347
0.04120
0.02542
0.01666
0.02104
0.03419
0.05259
0.06311
0.06224
0.04821
0.03419
0.02717
0.03068
0.04383
0.05873
0.06837
0.06662
0.06224
0.04821
0.03682
0.03769
0.04909
0.06399
0.07626
0.07977
0.07714
0.06925
0.05610
0.04997
0.05259
0.06399
0.07889
0.08503
0.08503
0.07626
0.06399
0.05698
0.06136
0.07363
0.08590
0.09555
0.09730
0.08941
0.07626
0.06662
0.06837
0.07889
0.09116
0.10344
0.10957
0.10431
0.09116
0.07889
0.07539
0.08065
0.09379
0.10607
0.10957
0.10957
0.10081
0.08590
0.07714
0.08065
0.09379
0.10870
0.11834
0.11746
0.10607
0.09116
0.08240
0.07977
0.08590
0.10168
0.11308
0.11220
0.10168
0.08328
0.06662
0.05435
0.05259
0.06048
0.06750
0.06750
0.06224
0.04821
0.02542
0.01227
0.00964
0.01315
0.01753
0.02279
0.02191
0.01140
-0.00614
-0.02367
-0.02980
-0.02454
-0.01140
-0.00175
0.00000
-0.00614
-0.02104
-0.03243
-0.03769
-0.03419
-0.02191
-0.00964
-0.00526
-0.01052
-0.02367
-0.04120
-0.05259
-0.05522
-0.04383
-0.02630
-0.01403
-0.01315
-0.02367
-0.04120
-0.05522
-0.05698
-0.05259
-0.03857
-0.02717
-0.02542
-0.03331
-0.04821
-0.06311
-0.07276
-0.06662
-0.05435
-0.04471
-0.04032
-0.04821
-0.06311
-0.07539
-0.07977
-0.07451
-0.05610
-0.02542
-0.00175
0.01052
0.01227
0.00438
-0.00263
0.00351
0.01841
0.03594
0.04471
0.03945
0.02367
0.00438
-0.01578
-0.02805
-0.02717
-0.02542
-0.02542
-0.03068
-0.04909
-0.07363
-0.09555
-0.11045
-0.11483
-0.10694
-0.09467
-0.08766
-0.09029
-0.10344
-0.11834
-0.13324
-0.14288
-0.13938
-0.12710
-0.10957
-0.09993
-0.10519
-0.11834
-0.13324
-0.14025
-0.13236
-0.11396
-0.09467
-0.08240
-0.08503
-0.09818
-0.11308
-0.12272
-0.11922
-0.10694
-0.08941
-0.07714
-0.07802
-0.08766
-0.10256
-0.11571
-0.10694
-0.04997
0.06399
0.19898
0.31294
0.39709
0.43566
0.36290
0.12886
-0.23668
-0.61974
-0.90901
-1.09660
-1.23335
-1.32451
-1.34731
-1.27981
-1.11501
-0.88622
-0.64166
-0.41988
-0.25947
-0.16567
-0.11659
-0.08678
-0.06224
-0.03682
-0.01490
0.00263
0.01227
0.01227
0.00263
-0.00789
-0.00964
-0.00438
0.00789
0.02542
0.03769
0.03506
0.02191
0.00701
-0.00263
-0.00263
0.00789
0.02279
0.03506
0.03769
0.02980
0.01753
0.00701
0.00789
0.01490
0.02980
0.04295
0.04471
0.04208
0.03243
0.02016
0.01490
0.01753
0.02980
0.04734
0.05522
0.04734
0.03506
0.02279
0.01490
0.02016
0.03243
0.04734
0.05785
0.05785
0.04734
0.03506
0.02717
0.02717
0.03769
0.05522
0.07013
0.07539
0.07013
0.05785
0.04471
0.04032
0.04734
0.06224
0.07714
0.08503
0.08240
0.07276
0.06048
0.05259
0.05785
0.07276
0.08503
0.09204
0.09292
0.08503
0.07276
0.06487
0.06750
0.07714
0.09029
0.09993
0.10782
0.10519
0.09292
0.08240
0.08240
0.08766
0.09993
0.11220
0.11746
0.11483
0.10256
0.09029
0.08503
0.08766
0.09993
0.11746
0.12535
0.12009
0.10782
0.09292
0.08240
0.07977
0.08240
0.09467
0.10782
0.10782
0.09555
0.07539
0.05522
0.04295
0.04471
0.05435
0.06224
0.06224
0.05084
0.02805
0.00526
-0.00701
-0.01227
-0.01052
-0.00526
-0.00526
-0.00964
-0.02191
-0.03945
-0.05259
-0.05522
-0.04997
-0.03769
-0.02980
-0.02980
-0.03682
-0.04997
-0.06224
-0.07013
-0.06311
-0.04997
-0.03769
-0.02980
-0.03682
-0.04997
-0.06224
-0.07276
-0.07013
-0.05785
-0.04032
-0.02980
-0.03243
-0.04208
-0.05698
-0.06925
-0.07013
-0.06048
-0.04821
-0.03769
-0.03769
-0.04646
-0.06224
-0.07451
-0.07977
-0.07539
-0.06311
-0.05084
-0.04471
-0.04997
-0.05522
-0.05698
-0.05785
-0.04383
-0.01841
0.00438
0.02367
0.03506
0.03243
0.02542
0.01753
0.01490
0.01490
0.01753
0.02191
0.02016
0.00614
-0.01403
-0.03419
-0.04909
-0.05522
-0.05522
-0.05522
-0.05961
-0.07188
-0.08853
-0.10870
-0.12184
-0.12535
-0.11571
-0.10081
-0.09467
-0.09730
-0.10694
-0.11922
-0.12710
-0.12798
-0.11834
-0.10344
-0.09029
-0.08941
-0.09905
-0.11396
-0.12535
-0.12535
-0.11834
-0.10344
-0.08853
-0.07977
-0.08415
-0.09467
-0.10431
-0.10957
-0.10607
-0.09379
-0.07889
-0.07013
-0.07451
-0.07977
-0.06487
0.00263
0.12535
0.25859
0.37693
0.46371
0.46283
0.30856
-0.01315
-0.42076
-0.77490
-1.00982
-1.15884
-1.25263
-1.28156
-1.22108
-1.08521
-0.90463
-0.69688
-0.48738
-0.30943
-0.17970
-0.09730
-0.04734
-0.02805
-0.02279
-0.01753
-0.01052
0.00351
0.02104
0.03419
0.04032
0.03594
0.02367
0.01052
0.00701
0.01666
0.03156
0.04383
0.05172
0.04909
0.03594
0.02367
0.01490
0.01928
0.03156
0.04646
0.05698
0.05785
0.04909
0.03419
0.02279
0.02191
0.03156
0.04821
0.06224
0.06487
0.06048
0.04909
0.03769
0.03506
0.03945
0.05084
0.06399
0.07013
0.06574
0.05435
0.04120
0.03506
0.03945
0.05347
0.07100
0.08240
0.08065
0.06925
0.05435
0.04295
0.04383
0.05610
0.07276
0.08678
0.08766
0.08328
0.07363
0.06311
0.06224
0.06925
0.08065
0.09555
0.10519
0.10081
0.08941
0.07451
0.06487
0.06925
0.08065
0.09555
0.10694
0.10782
0.09905
0.08590
0.07802
0.07889
0.08853
0.10081
0.11396
0.11834
0.11133
0.09730
0.08503
0.08503
0.08853
0.10081
0.11571
0.12535
0.12097
0.10957
0.09467
0.08503
0.08853
0.10081
0.11571
0.12535
0.11922
0.10431
0.09116
0.08152
0.07714
0.08415
0.09379
0.09993
0.09467
0.07714
0.05522
0.03594
0.02805
0.02717
0.03419
0.04032
0.03594
0.02454
0.00526
-0.01753
-0.02980
-0.02980
-0.02454
-0.01140
-0.00526
-0.00877
-0.02016
-0.03769
-0.05172
-0.05522
-0.04734
-0.03156
-0.02104
-0.01666
-0.02542
-0.04032
-0.05172
-0.05522
-0.04734
-0.02980
-0.01490
-0.00526
-0.01052
-0.02367
-0.03506
-0.04471
-0.03945
-0.02454
-0.00964
0.00000
-0.00175
-0.01227
-0.03068
-0.04208
-0.04295
-0.03682
-0.02454
-0.01140
-0.00877
-0.02016
-0.03506
-0.04821
-0.05522
-0.04997
-0.03506
-0.01928
-0.00789
-0.00701
-0.01140
-0.01490
-0.01140
0.00175
0.02367
0.04734
0.06136
0.06487
0.05785
0.04120
0.02980
0.01841
0.01841
0.02893
0.03506
0.02980
0.01315
-0.00877
-0.03156
-0.04821
-0.05522
-0.05522
-0.05522
-0.05698
-0.06662
-0.08678
-0.10344
-0.10957
-0.10694
-0.09292
-0.07802
-0.07539
-0.07714
-0.08503
-0.09993
-0.11133
-0.11133
-0.10168
-0.09029
-0.07802
-0.07626
-0.08328
-0.09379
-0.10344
-0.10870
-0.09993
-0.08503
-0.07013
-0.06136
-0.07013
-0.08328
-0.09292
-0.09993
-0.09642
-0.08503
-0.07188
-0.06136
-0.04471
0.00438
0.10431
0.22265
0.33485
0.42602
0.45319
0.35239
0.10168
-0.26560
-0.65305
-0.94846
-1.15183
-1.28770
-1.33679
-1.27893
-1.12816
-0.91690
-0.69513
-0.49527
-0.33485
-0.20950
-0.12272
-0.05873
-0.01666
0.00175
0.00351
-0.00175
-0.00526
-0.00175
0.00964
0.02630
0.04120
0.04383
0.03682
0.02542
0.01315
0.01140
0.02016
0.03506
0.04821
0.05522
0.05172
0.04032
0.02717
0.02191
0.02805
0.03945
0.05435
0.06487
0.06224
0.04997
0.03506
0.02542
0.02630
0.03506
0.04997
0.06136
0.06487
0.06048
0.04558
0.03156
0.02630
0.03419
0.05084
0.06837
0.07363
0.06837
0.05873
0.04383
0.04032
0.04295
0.05435
0.06925
0.07977
0.07889
0.07188
0.06224
0.05347
0.05259
0.06487
0.07977
0.09116
0.09379
0.08678
0.07539
0.06311
0.05961
0.06311
0.07451
0.08941
0.09818
0.09204
0.08065
0.06750
0.05961
0.06311
0.07626
0.09555
0.10957
0.10957
0.10431
0.08678
0.07977
0.08328
0.09555
0.11396
0.12798
0.13324
0.12535
0.11220
0.10256
0.09642
0.10256
0.11396
0.12798
0.13499
0.13236
0.12097
0.10694
0.09993
0.10256
0.11396
0.12798
0.13324
0.12447
0.10431
0.08415
0.06837
0.06487
0.06925
0.08240
0.08853
0.08328
0.07451
0.05435
0.03594
0.02542
0.02805
0.03594
0.04120
0.04383
0.03419
0.01578
0.00088
-0.01140
-0.01227
-0.00263
0.00614
0.00877
0.00263
-0.00877
-0.02279
-0.03156
-0.03331
-0.02630
-0.01227
-0.00351
-0.00175
-0.01052
-0.02805
-0.03594
-0.03857
-0.03331
-0.02630
-0.01403
-0.01227
-0.02279
-0.03419
-0.04734
-0.05522
-0.05259
-0.04120
-0.02630
-0.01403
-0.01403
-0.02980
-0.04909
-0.06224
-0.06750
-0.05522
-0.03594
-0.02367
-0.02279
-0.03419
-0.04909
-0.06224
-0.06837
-0.06136
-0.04471
-0.02367
-0.00263
0.00526
0.00263
-0.00526
-0.00088
0.01490
0.03419
0.04909
0.05873
0.05084
0.03331
0.00964
-0.00614
-0.00964
-0.00877
-0.00351
-0.00088
-0.01140
-0.03769
-0.06574
-0.08853
-0.09993
-0.09905
-0.09292
-0.08415
-0.08240
-0.09204
-0.10519
-0.12097
-0.12535
-0.12272
-0.11133
-0.09642
-0.08503
-0.08853
-0.10256
-0.11220
-0.12097
-0.12272
-0.11133
-0.09555
-0.07977
-0.08240
-0.09204
-0.10344
-0.11659
-0.11746
-0.10782
-0.09642
-0.08240
-0.07539
-0.07714
-0.08853
-0.10256
-0.10957
-0.10519
-0.07714
-0.00964
0.10607
0.23492
0.33836
0.40936
0.42164
0.30154
0.01490
-0.37868
-0.74071
-0.98352
-1.14569
-1.27192
-1.34468
-1.32364
-1.20618
-1.00193
-0.76526
-0.53121
-0.34888
-0.22353
-0.15428
-0.10694
-0.07100
-0.03331
-0.00526
0.01140
0.01490
0.01140
-0.00088
-0.00526
-0.00263
0.00964
0.02805
0.04032
0.03857
0.03156
0.01753
0.00877
0.00701
0.01928
0.03857
0.05347
0.06399
0.05698
0.04295
0.03156
0.02104
0.02805
0.04295
0.05698
0.06487
0.06224
0.04646
0.03156
0.02016
0.02279
0.03769
0.05347
0.06574
0.06925
0.06224
0.04821
0.03857
0.03594
0.04208
0.05347
0.06662
0.07363
0.06662
0.05172
0.04032
0.04032
0.04383
0.06311
0.07802
0.09029
0.08941
0.08240
0.06837
0.05961
0.06224
0.07363
0.09292
0.10607
0.10782
0.09730
0.08240
0.06925
0.06662
0.07714
0.09029
0.11133
0.11483
0.11308
0.10081
0.08328
0.07626
0.08152
0.09379
0.11220
0.12009
0.11834
0.10694
0.09292
0.08503
0.08766
0.10256
0.11746
0.13061
0.13324
0.12184
0.10694
0.09379
0.09204
0.10256
0.11746
0.13061
0.13412
0.12623
0.10782
0.09730
0.08503
0.08766
0.10168
0.11220
0.11922
0.11308
0.10168
0.08240
0.06925
0.06487
0.06662
0.07626
0.07889
0.07188
0.05172
0.03156
0.01227
0.00088
0.00701
0.01490
0.01490
0.01227
-0.00438
-0.02805
-0.04646
-0.05522
-0.05259
-0.03857
-0.02805
-0.02016
-0.02191
-0.03331
-0.05172
-0.06048
-0.06311
-0.05172
-0.03331
-0.02454
-0.02191
-0.03243
-0.04646
-0.05610
-0.05961
-0.05259
-0.03769
-0.02367
-0.01578
-0.02279
-0.03769
-0.05084
-0.05522
-0.05347
-0.04295
-0.02805
-0.02016
-0.02191
-0.03331
-0.05172
-0.05961
-0.05873
-0.04734
-0.03331
-0.02454
-0.02191
-0.03243
-0.04646
-0.05522
-0.05259
-0.03506
-0.00614
0.01753
0.03068
0.03419
0.02805
0.02016
0.02191
0.03243
0.04646
0.05522
0.05259
0.03682
0.01666
-0.00263
-0.01490
-0.01403
-0.00964
-0.00526
-0.00614
-0.01841
-0.04383
-0.06837
-0.09116
-0.09993
-0.09818
-0.08328
-0.07451
-0.07100
-0.07714
-0.09116
-0.10256
-0.11396
-0.10870
-0.09730
-0.07889
-0.07539
-0.08065
-0.08678
-0.10168
-0.10957
-0.10870
-0.09818
-0.08328
-0.07451
-0.07100
-0.08240
-0.09555
-0.10081
-0.10431
-0.09818
-0.08328
-0.06837
-0.05610
-0.06224
-0.08240
-0.09467
-0.08240
-0.02016
0.09818
0.23668
0.35677
0.44004
0.46371
0.35765
0.09116
-0.28840
-0.65393
-0.90726
-1.07732
-1.20530
-1.28156
-1.28332
-1.18163
-0.99141
-0.76000
-0.51894
-0.31732
-0.17970
-0.10081
-0.06750
-0.04734
-0.02805
-0.01227
0.00701
0.02717
0.04032
0.03857
0.02805
0.01490
0.01490
0.01666
0.03156
0.04646
0.05961
0.05785
0.04383
0.03331
0.02016
0.02104
0.03156
0.04734
0.06487
0.06487
0.06311
0.04909
0.03857
0.03068
0.03682
0.05172
0.06574
0.07013
0.06837
0.05347
0.03945
0.03506
0.03594
0.04646
0.06136
0.07013
0.07363
0.06311
0.04471
0.03945
0.03594
0.04646
0.06136
0.07626
0.08415
0.07889
0.06311
0.04909
0.04120
0.05172
0.06662
0.08590
0.09467
0.09379
0.08328
0.06487
0.05961
0.06136
0.07188
0.08678
0.09993
0.09818
0.08328
0.06925
0.06487
0.06574
0.07100
0.08678
0.10519
0.10957
0.10344
0.08941
0.07889
0.07013
0.07626
0.08766
0.11045
0.11483
0.10870
0.09905
0.08503
0.08503
0.08590
0.10081
0.11133
0.12535
0.12447
0.11396
0.10344
0.09029
0.09116
0.10081
0.11133
0.12973
0.12973
0.12360
0.10870
0.08941
0.08503
0.08590
0.09555
0.10519
0.10957
0.10344
0.08328
0.06311
0.04471
0.04032
0.04120
0.04997
0.05435
0.04909
0.03331
0.00877
-0.00526
-0.00964
-0.00438
0.00088
0.00964
0.00877
-0.00614
-0.02630
-0.04032
-0.04997
-0.04383
-0.02893
-0.01928
-0.01052
-0.01578
-0.03068
-0.04558
-0.05522
-0.05435
-0.03857
-0.02367
-0.00964
-0.00614
-0.02104
-0.03594
-0.04997
-0.04909
-0.03945
-0.02367
-0.00526
-0.00526
-0.01140
-0.03068
-0.04558
-0.05435
-0.04909
-0.03945
-0.02980
-0.02542
-0.03068
-0.04120
-0.05522
-0.06487
-0.06487
-0.05435
-0.03945
-0.02980
-0.02542
-0.03068
-0.03506
-0.03945
-0.02893
-0.00877
0.01666
0.04032
0.04997
0.04471
0.03419
0.02016
0.01490
0.02016
0.02542
0.02980
0.02893
0.01403
-0.00088
-0.01578
-0.02980
-0.03506
-0.03506
-0.03506
-0.04032
-0.05610
-0.07626
-0.10081
-0.11483
-0.11922
-0.10957
-0.09467
-0.08503
-0.08065
-0.09029
-0.10519
-0.12009
-0.12009
-0.11483
-0.09905
-0.08503
-0.08503
-0.09555
-0.10607
-0.12535
-0.12973
-0.12447
-0.10957
-0.08941
-0.07977
-0.07539
-0.08590
-0.09993
-0.11045
-0.11483
-0.10431
-0.08941
-0.07451
-0.07013
-0.08065
-0.09467
-0.07802
-0.00088
0.13412
0.26823
0.37781
0.45933
0.44530
0.26034
-0.09116
-0.50929
-0.84064
-1.04401
-1.18251
-1.27630
-1.30874
-1.25614
-1.11501
-0.91427
-0.68461
-0.46108
-0.28226
-0.15866
-0.08415
-0.05435
-0.04032
-0.03945
-0.02980
-0.01928
0.00000
0.01490
0.02454
0.02016
0.01490
-0.00526
-0.00526
-0.00438
0.01490
0.02980
0.04032
0.03945
0.02980
0.02016
0.00964
0.01490
0.02016
0.03506
0.04471
0.04471
0.04032
0.02980
0.02016
0.01490
0.02016
0.03506
0.04471
0.05961
0.05522
0.04471
0.02980
0.02016
0.02542
0.04032
0.05522
0.06487
0.06487
0.05961
0.04032
0.02980
0.03506
0.04032
0.05522
0.06487
0.07013
0.06487
0.04471
0.03506
0.02980
0.04032
0.05961
0.07539
0.08503
0.08503
0.07013
0.05522
0.04471
0.04997
0.06487
0.07977
0.09029
0.09029
0.08503
0.07013
0.06487
0.06487
0.07451
0.09029
0.10957
0.10957
0.09993
0.08503
0.07013
0.06487
0.07013
0.08941
0.10957
0.11483
0.11045
0.09993
0.08503
0.07977
0.08503
0.09993
0.11483
0.12447
0.12535
0.11045
0.09029
0.08503
0.08503
0.09467
0.10957
0.12447
0.12973
0.12009
0.10519
0.09029
0.08503
0.08503
0.09029
0.10431
0.10519
0.09555
0.07539
0.06048
0.04032
0.04032
0.04032
0.04471
0.04997
0.04032
0.02016
0.00088
-0.01490
-0.02454
-0.01490
-0.00526
-0.00526
-0.00526
-0.01490
-0.03419
-0.05435
-0.05522
-0.05522
-0.04032
-0.02542
-0.02016
-0.02980
-0.03945
-0.05435
-0.06487
-0.06048
-0.04997
-0.03594
-0.02980
-0.02980
-0.03506
-0.05435
-0.05961
-0.05961
-0.05522
-0.03594
-0.02542
-0.02542
-0.02980
-0.04909
-0.05522
-0.05961
-0.05522
-0.03594
-0.02542
-0.02016
-0.02454
-0.03945
-0.05435
-0.06487
-0.05522
-0.04032
-0.02104
-0.00088
0.00964
0.00526
0.00000
-0.00438
0.00438
0.01928
0.04383
0.05961
0.05961
0.04120
0.01666
-0.00438
-0.01928
-0.01490
-0.00526
0.00438
0.00526
-0.01403
-0.04383
-0.07363
-0.08941
-0.09905
-0.09555
-0.08590
-0.08065
-0.08503
-0.09905
-0.11396
-0.12447
-0.12009
-0.10607
-0.09116
-0.08065
-0.07977
-0.08941
-0.09905
-0.11396
-0.11483
-0.10519
-0.09116
-0.08065
-0.07539
-0.07977
-0.09379
-0.10431
-0.10957
-0.10519
-0.09116
-0.07626
-0.06574
-0.06925
-0.07977
-0.09379
-0.09993
-0.10431
-0.09993
-0.07188
0.00438
0.12623
0.24632
0.34800
0.42952
0.44881
0.32434
0.05961
-0.30330
-0.65919
-0.91252
-1.09660
-1.23949
-1.31487
-1.27806
-1.13167
-0.91690
-0.67847
-0.46634
-0.30242
-0.20249
-0.13061
-0.08328
-0.04295
-0.00789
0.01315
0.02454
0.02016
0.01052
0.00088
0.00000
0.00877
0.02805
0.03945
0.04909
0.04558
0.03156
0.01666
0.01490
0.01490
0.03331
0.04383
0.05435
0.05522
0.04558
0.03594
0.02630
0.02980
0.03945
0.05785
0.06925
0.06574
0.06048
0.04646
0.03594
0.03506
0.04383
0.05873
0.06925
0.07451
0.06574
0.05610
0.04120
0.03506
0.03945
0.05347
0.06837
0.08328
0.08065
0.06662
0.05610
0.05084
0.04997
0.05873
0.06925
0.08328
0.08503
0.08503
0.07188
0.06574
0.06048
0.06925
0.08328
0.09818
0.10431
0.10081
0.08678
0.07626
0.06574
0.07363
0.08415
0.10256
0.10957
0.10957
0.10081
0.08678
0.07626
0.07539
0.08415
0.10256
0.10957
0.11483
0.10607
0.09204
0.08590
0.08065
0.08415
0.10256
0.11396
0.11483
0.11045
0.09642
0.08590
0.08503
0.08941
0.10782
0.12360
0.13412
0.12623
0.11133
0.09204
0.08590
0.08065
0.08415
0.10256
0.10957
0.10957
0.10081
0.08240
0.06662
0.06048
0.06399
0.06925
0.07451
0.07100
0.05698
0.03331
0.01227
-0.00351
-0.00964
-0.00526
0.00789
0.01403
0.00614
-0.00789
-0.02717
-0.04295
-0.04471
-0.03156
-0.02104
-0.01140
-0.01403
-0.02805
-0.04734
-0.05435
-0.05522
-0.05084
-0.03682
-0.02630
-0.02542
-0.02893
-0.04295
-0.05347
-0.05961
-0.05610
-0.04646
-0.03243
-0.02104
-0.02454
-0.03331
-0.04383
-0.05347
-0.05522
-0.04646
-0.03243
-0.02104
-0.02454
-0.02893
-0.04734
-0.05873
-0.05961
-0.05610
-0.04208
-0.02717
-0.02104
-0.02016
-0.02893
-0.02980
-0.02542
-0.00789
0.01227
0.03594
0.05259
0.05961
0.05610
0.04208
0.03156
0.02542
0.02893
0.03419
0.03945
0.03156
0.01753
-0.00614
-0.02717
-0.04734
-0.05435
-0.05084
-0.04997
-0.05435
-0.07188
-0.08766
-0.10256
-0.10957
-0.10607
-0.09642
-0.08240
-0.07977
-0.08415
-0.09730
-0.11659
-0.12886
-0.12623
-0.11220
-0.09730
-0.08678
-0.08065
-0.08853
-0.09818
-0.11220
-0.11483
-0.10694
-0.09204
-0.08152
-0.07539
-0.08328
-0.09730
-0.11220
-0.11922
-0.11133
-0.09730
-0.08240
-0.07626
-0.07539
-0.06224
-0.00175
0.10607
0.22879
0.34976
0.44443
0.47248
0.33398
0.01841
-0.40060
-0.76876
-1.01245
-1.17024
-1.27367
-1.31487
-1.28244
-1.16322
-0.97914
-0.76789
-0.54874
-0.35765
-0.21827
-0.11659
-0.05873
-0.02980
-0.02104
-0.02016
-0.02016
-0.01140
0.00263
0.01753
0.02805
0.02980
0.02191
0.01578
0.00701
0.00526
0.01315
0.02717
0.03857
0.04821
0.04208
0.03156
0.01753
0.01490
0.02279
0.03682
0.04821
0.05785
0.05610
0.04295
0.02367
0.01578
0.01490
0.03156
0.05084
0.06311
0.06136
0.04821
0.03243
0.02191
0.02016
0.03243
0.04295
0.05698
0.06399
0.05698
0.04734
0.04120
0.03594
0.03945
0.05172
0.06311
0.07276
0.07100
0.06574
0.05259
0.04558
0.04909
0.06224
0.07714
0.08766
0.09029
0.08590
0.07276
0.06574
0.06487
0.07276
0.08678
0.10168
0.10870
0.10168
0.08766
0.08065
0.07626
0.08328
0.09730
0.11220
0.12272
0.11746
0.10694
0.08941
0.08503
0.08503
0.09642
0.11220
0.12272
0.12535
0.11308
0.10168
0.09204
0.09029
0.09818
0.11220
0.12710
0.13412
0.12710
0.11308
0.09818
0.09467
0.09905
0.10782
0.12535
0.13412
0.13499
0.11922
0.10344
0.09204
0.09029
0.09818
0.10782
0.10957
0.10607
0.08941
0.06925
0.04909
0.04120
0.04032
0.04734
0.05347
0.04734
0.03331
0.01490
-0.00175
-0.01315
-0.01490
-0.00701
0.00263
0.00526
-0.00263
-0.02016
-0.03682
-0.04734
-0.04646
-0.03331
-0.01841
-0.01140
-0.00964
-0.02191
-0.03682
-0.04734
-0.04997
-0.03857
-0.02717
-0.01315
-0.00964
-0.01753
-0.02805
-0.04120
-0.04471
-0.03769
-0.02367
-0.00877
-0.00526
-0.00877
-0.02542
-0.03769
-0.04734
-0.04646
-0.03331
-0.02279
-0.01227
-0.01403
-0.02630
-0.03769
-0.04383
-0.04120
-0.02454
-0.00088
0.02016
0.03243
0.03857
0.03243
0.02279
0.02367
0.03594
0.05172
0.06224
0.06136
0.04471
0.02454
0.00526
-0.00789
-0.00964
-0.00614
-0.00526
-0.00526
-0.02367
-0.04909
-0.07363
-0.09467
-0.10344
-0.10168
-0.09292
-0.08240
-0.07977
-0.08766
-0.10081
-0.11659
-0.12009
-0.11220
-0.10256
-0.08853
-0.08152
-0.08328
-0.09642
-0.11133
-0.11834
-0.11220
-0.09905
-0.08415
-0.07276
-0.07013
-0.07714
-0.09116
-0.09905
-0.09993
-0.08853
-0.07363
-0.06224
-0.05610
-0.06574
-0.08065
-0.09642
-0.09642
-0.04734
0.05785
0.19986
0.32784
0.41813
0.45845
0.38131
0.17093
-0.15428
-0.51981
-0.81697
-1.02122
-1.17900
-1.28156
-1.29734
-1.20793
-1.02209
-0.78366
-0.54436
-0.34537
-0.20775
-0.12447
-0.07977
-0.05522
-0.03594
-0.01578
0.00789
0.02980
0.03857
0.03682
0.02805
0.01753
0.01140
0.01403
0.02542
0.03682
0.04734
0.04646
0.04120
0.02893
0.01753
0.01841
0.03068
0.04208
0.05610
0.05961
0.05259
0.04295
0.03243
0.02980
0.03682
0.05084
0.06224
0.06837
0.06662
0.05785
0.04471
0.03682
0.03857
0.05084
0.06574
0.07714
0.07977
0.06925
0.05785
0.04471
0.04383
0.05522
0.06750
0.08065
0.08503
0.07451
0.06311
0.05259
0.04997
0.05698
0.06662
0.08065
0.08853
0.08678
0.07451
0.06311
0.05610
0.06224
0.07188
0.08240
0.08853
0.08678
0.08152
0.07276
0.07013
0.07363
0.08503
0.10081
0.10870
0.11308
0.11133
0.09642
0.08328
0.07626
0.08152
0.09555
0.11045
0.11834
0.11659
0.10431
0.08941
0.07802
0.08152
0.09204
0.10870
0.12184
0.12535
0.11483
0.10344
0.09642
0.09818
0.10694
0.12009
0.13149
0.13499
0.12798
0.11483
0.09642
0.08678
0.08853
0.09993
0.11220
0.11133
0.10344
0.08678
0.06662
0.04646
0.04032
0.04383
0.05172
0.05522
0.04821
0.03156
0.01140
-0.00526
-0.01315
-0.00789
0.00526
0.01315
0.01490
0.00175
-0.01490
-0.02717
-0.02980
-0.02630
-0.01490
-0.00701
-0.00526
-0.01490
-0.02630
-0.04032
-0.04821
-0.04646
-0.03506
-0.02367
-0.01315
-0.01315
-0.02542
-0.04032
-0.05172
-0.05522
-0.04471
-0.02980
-0.01841
-0.01490
-0.02191
-0.03857
-0.05785
-0.06837
-0.06662
-0.05522
-0.04032
-0.03156
-0.03682
-0.04997
-0.06487
-0.07363
-0.06837
-0.05873
-0.04471
-0.03331
-0.02980
-0.02980
-0.02980
-0.02980
-0.02016
-0.00175
0.01490
0.03331
0.04032
0.03682
0.02542
0.01315
0.00351
-0.00351
0.00438
0.01315
0.01490
0.00877
-0.00789
-0.03156
-0.05259
-0.07013
-0.07539
-0.07188
-0.07363
-0.08152
-0.09467
-0.11308
-0.12360
-0.12535
-0.11834
-0.10519
-0.09379
-0.09029
-0.09642
-0.10957
-0.12184
-0.12535
-0.12184
-0.10694
-0.09379
-0.08678
-0.08853
-0.09642
-0.10957
-0.11834
-0.11659
-0.10519
-0.09379
-0.08328
-0.08328
-0.09116
-0.10168
-0.11133
-0.11483
-0.10519
-0.09029
-0.08152
-0.07714
-0.06224
-0.01052
0.08152
0.19898
0.31732
0.41375
0.44180
0.31645
0.00877
-0.40410
-0.77314
-1.01771
-1.17462
-1.27543
-1.31400
-1.27630
-1.15621
-0.97476
-0.76175
-0.54523
-0.35852
-0.22002
-0.12535
-0.06399
-0.02980
-0.01403
-0.01666
-0.02016
-0.01666
-0.00526
0.00964
0.02454
0.03331
0.02893
0.01841
0.00877
0.00175
0.00614
0.01928
0.03419
0.04032
0.03682
0.02893
0.01841
0.01227
0.01315
0.02454
0.03945
0.05084
0.05522
0.04558
0.03068
0.01928
0.01490
0.02104
0.03682
0.05435
0.06311
0.06224
0.04821
0.03419
0.02717
0.03068
0.04383
0.05873
0.06837
0.06662
0.06224
0.04821
0.03682
0.03506
0.04120
0.05698
0.07100
0.07539
0.06925
0.05610
0.04383
0.04295
0.05435
0.06925
0.08065
0.08766
0.08678
0.07626
0.06662
0.06224
0.06311
0.07363
0.08941
0.10081
0.10168
0.09116
0.07889
0.06925
0.06837
0.07889
0.09379
0.10607
0.10957
0.10694
0.09642
0.08415
0.07977
0.08590
0.09905
0.11133
0.11834
0.11396
0.10431
0.09116
0.08240
0.08328
0.09993
0.11922
0.13061
0.13236
0.12097
0.10870
0.09905
0.09818
0.10607
0.11834
0.13061
0.13499
0.12623
0.11133
0.09292
0.08503
0.08766
0.09555
0.10607
0.10694
0.09642
0.07539
0.05347
0.03945
0.03506
0.03769
0.04295
0.04471
0.03594
0.01841
0.00175
-0.01403
-0.02016
-0.01403
-0.00701
-0.00175
-0.00263
-0.01052
-0.02367
-0.03857
-0.04471
-0.03945
-0.02630
-0.01403
-0.00701
-0.01052
-0.02367
-0.03857
-0.04471
-0.03945
-0.02630
-0.01140
-0.00175
-0.00263
-0.01052
-0.02367
-0.03243
-0.03243
-0.02454
-0.01140
0.00088
0.00175
-0.00263
-0.01666
-0.03068
-0.03769
-0.03419
-0.02191
-0.00964
-0.00526
-0.01052
-0.02367
-0.03594
-0.04032
-0.03419
-0.01578
0.01140
0.03331
0.04295
0.04208
0.03419
0.02717
0.03331
0.04558
0.05873
0.06487
0.05698
0.03857
0.01928
0.00175
-0.00789
-0.00701
-0.00263
0.00000
-0.00526
-0.02104
-0.04383
-0.06837
-0.08590
-0.09029
-0.08415
-0.07451
-0.06750
-0.07363
-0.08853
-0.10081
-0.11045
-0.10957
-0.09993
-0.08415
-0.06925
-0.06487
-0.07276
-0.09116
-0.10256
-0.10519
-0.09993
-0.08678
-0.07188
-0.06487
-0.07013
-0.08328
-0.09555
-0.09993
-0.09467
-0.08152
-0.06662
-0.05698
-0.05522
-0.06574
-0.08590
-0.09730
-0.08941
-0.03682
0.07451
0.21476
0.33310
0.41462
0.45056
0.38570
0.17356
-0.16743
-0.53822
-0.83012
-1.03261
-1.18952
-1.28945
-1.29646
-1.20092
-1.02385
-0.79857
-0.56101
-0.35502
-0.21213
-0.12798
-0.08415
-0.05961
-0.03945
-0.01403
0.01315
0.03243
0.04032
0.03506
0.02191
0.00964
0.00789
0.01490
0.03068
0.04821
0.05522
0.04734
0.03506
0.02191
0.01490
0.02016
0.03243
0.04997
0.06224
0.05961
0.04734
0.03243
0.02279
0.02279
0.03243
0.04997
0.06224
0.06487
0.05698
0.04208
0.02980
0.02717
0.03506
0.05259
0.06750
0.07013
0.06750
0.05522
0.04032
0.03506
0.04032
0.05259
0.06487
0.07276
0.07276
0.06487
0.05259
0.04208
0.04471
0.05785
0.07539
0.08766
0.08766
0.07977
0.06750
0.05522
0.05259
0.05961
0.07539
0.09029
0.09467
0.09029
0.07977
0.07013
0.06487
0.07276
0.08766
0.09993
0.10782
0.10519
0.09292
0.07714
0.06750
0.07013
0.07977
0.09204
0.10519
0.10957
0.10256
0.09029
0.07977
0.07714
0.08240
0.09730
0.11483
0.12009
0.11483
0.10256
0.09029
0.08240
0.08240
0.09467
0.10957
0.11746
0.11483
0.10256
0.09029
0.07977
0.07714
0.08240
0.09204
0.10256
0.09993
0.08766
0.07013
0.04997
0.04032
0.04032
0.04471
0.05259
0.05259
0.04295
0.02542
0.00526
-0.00701
-0.00789
-0.00263
0.00438
0.00964
0.00263
-0.01490
-0.03243
-0.04208
-0.04295
-0.03506
-0.02016
-0.00789
-0.00701
-0.01666
-0.02980
-0.03945
-0.04471
-0.03769
-0.02279
-0.01052
-0.00526
-0.01227
-0.02454
-0.03682
-0.04471
-0.04032
-0.02805
-0.01315
-0.00526
-0.00701
-0.01928
-0.03682
-0.04997
-0.05259
-0.04295
-0.03068
-0.02279
-0.02191
-0.03156
-0.04734
-0.05961
-0.06487
-0.06048
-0.04997
-0.03769
-0.02980
-0.03419
-0.04646
-0.05522
-0.05084
-0.03594
-0.01140
0.01666
0.03419
0.03769
0.02805
0.01578
0.00964
0.01227
0.01753
0.02191
0.02542
0.02016
0.00614
-0.01666
-0.03419
-0.04471
-0.04734
-0.04295
-0.04208
-0.04909
-0.06662
-0.08941
-0.10694
-0.11922
-0.12009
-0.10870
-0.09555
-0.09029
-0.09467
-0.10694
-0.11922
-0.12710
-0.12798
-0.11834
-0.10519
-0.09555
-0.09204
-0.09905
-0.11396
-0.12535
-0.12535
-0.11834
-0.10344
-0.08853
-0.07977
-0.08678
-0.09905
-0.11133
-0.12009
-0.11308
-0.09642
-0.08065
-0.07276
-0.07451
-0.08853
-0.09818
-0.06487
0.03331
0.17093
0.30242
0.40498
0.43917
0.33836
0.08503
-0.26385
-0.62237
-0.89850
-1.07995
-1.21231
-1.29208
-1.28945
-1.19040
-1.01508
-0.79681
-0.57504
-0.37781
-0.22616
-0.12798
-0.07188
-0.04646
-0.03331
-0.02805
-0.01666
0.00175
0.01666
0.02893
0.03068
0.02104
0.00614
-0.00964
-0.01315
-0.00351
0.01140
0.02630
0.03682
0.03594
0.02542
0.01578
0.00964
0.01227
0.02104
0.03594
0.04471
0.04295
0.03419
0.01841
0.00789
0.00877
0.02104
0.03594
0.04909
0.05259
0.04558
0.03156
0.01753
0.01666
0.02805
0.04646
0.05873
0.06487
0.05873
0.04383
0.03068
0.02542
0.03068
0.04821
0.06224
0.06487
0.06311
0.05435
0.04295
0.03769
0.03945
0.05347
0.07100
0.08240
0.08328
0.07363
0.05873
0.04558
0.04383
0.05610
0.06925
0.07889
0.08678
0.08766
0.07889
0.06574
0.06224
0.06925
0.07889
0.09116
0.10168
0.10081
0.08941
0.07451
0.06487
0.06925
0.08065
0.09555
0.10694
0.10957
0.10256
0.08415
0.07100
0.06487
0.07276
0.09292
0.10870
0.11659
0.11571
0.10256
0.08766
0.08503
0.08853
0.10081
0.11396
0.12009
0.11396
0.09730
0.07889
0.06837
0.06487
0.07100
0.08415
0.09029
0.08766
0.07714
0.05698
0.03945
0.02805
0.02717
0.03156
0.03682
0.03594
0.02454
0.00701
-0.01227
-0.02717
-0.02805
-0.02104
-0.01315
-0.01227
-0.01841
-0.02893
-0.04032
-0.05172
-0.05522
-0.04909
-0.03594
-0.02630
-0.02367
-0.03331
-0.04558
-0.05698
-0.05785
-0.05172
-0.03945
-0.02630
-0.02016
-0.02367
-0.03769
-0.05347
-0.05961
-0.05610
-0.04471
-0.03156
-0.02542
-0.02893
-0.04032
-0.05347
-0.06224
-0.06136
-0.04997
-0.03594
-0.02980
-0.03331
-0.04558
-0.06048
-0.07363
-0.07977
-0.07276
-0.05435
-0.03945
-0.02805
-0.02717
-0.02980
-0.02980
-0.02805
-0.01753
0.00175
0.02191
0.03682
0.03682
0.02454
0.00614
-0.01490
-0.02542
-0.01928
-0.00789
-0.00526
-0.00701
-0.01666
-0.03857
-0.06399
-0.08152
-0.08328
-0.07977
-0.07977
-0.08328
-0.09555
-0.11220
-0.13061
-0.14025
-0.13499
-0.12184
-0.10957
-0.10168
-0.10870
-0.11834
-0.12973
-0.14025
-0.13675
-0.12447
-0.10957
-0.09818
-0.09642
-0.10519
-0.11834
-0.12710
-0.12798
-0.12009
-0.10519
-0.09204
-0.08503
-0.09029
-0.10344
-0.11308
-0.11834
-0.11133
-0.10168
-0.09029
-0.07802
-0.05961
0.00175
0.10344
0.21827
0.33135
0.42164
0.42339
0.26736
-0.05785
-0.46108
-0.79769
-1.01946
-1.16761
-1.26315
-1.29033
-1.23072
-1.08784
-0.89148
-0.68110
-0.48124
-0.31732
-0.20074
-0.11746
-0.05698
-0.02191
-0.00526
-0.00701
-0.01140
-0.01315
-0.00701
0.00526
0.02016
0.03331
0.03682
0.02542
0.01140
0.00351
0.00351
0.01490
0.02980
0.04295
0.04997
0.04646
0.03506
0.02191
0.01490
0.02016
0.03506
0.04997
0.05961
0.05698
0.04558
0.03156
0.02542
0.02805
0.03769
0.05084
0.06487
0.06311
0.05522
0.04208
0.03331
0.03156
0.03945
0.05435
0.06837
0.07363
0.06662
0.05347
0.04032
0.04032
0.04471
0.05961
0.07451
0.08503
0.08065
0.06574
0.05172
0.04383
0.04471
0.05961
0.07451
0.08678
0.08853
0.08065
0.06662
0.05873
0.05610
0.06487
0.07977
0.09467
0.10344
0.09555
0.08240
0.07188
0.06662
0.07451
0.08941
0.10256
0.10957
0.10519
0.09204
0.08065
0.07013
0.07451
0.08766
0.09905
0.10957
0.10870
0.10081
0.08590
0.07363
0.07276
0.08415
0.09905
0.11133
0.11396
0.10694
0.09555
0.08328
0.07977
0.08328
0.09467
0.10607
0.10957
0.10694
0.09555
0.07889
0.06399
0.06136
0.06750
0.07802
0.08328
0.07539
0.05961
0.03945
0.02191
0.01490
0.01666
0.02279
0.02980
0.02542
0.00964
-0.01052
-0.02805
-0.03682
-0.03682
-0.02717
-0.01753
-0.01140
-0.01928
-0.03419
-0.04734
-0.05522
-0.05259
-0.04120
-0.02630
-0.01227
-0.00789
-0.01928
-0.03419
-0.04471
-0.04208
-0.03243
-0.01928
-0.00526
-0.00526
-0.00877
-0.02279
-0.03156
-0.03506
-0.03068
-0.01578
-0.00351
-0.00175
-0.00789
-0.02016
-0.03857
-0.04997
-0.04734
-0.03769
-0.02630
-0.01490
-0.01753
-0.02717
-0.03857
-0.05172
-0.05084
-0.03506
-0.01315
0.00877
0.02279
0.02893
0.02279
0.01490
0.01666
0.02542
0.04295
0.05259
0.05785
0.04471
0.02454
0.00614
-0.00789
-0.01227
-0.00263
0.00614
0.00789
-0.00526
-0.02893
-0.06136
-0.08503
-0.09993
-0.09730
-0.08766
-0.07977
-0.08152
-0.08853
-0.10344
-0.11659
-0.12009
-0.11483
-0.09730
-0.08766
-0.07977
-0.08328
-0.09905
-0.11396
-0.12535
-0.12272
-0.11045
-0.09116
-0.07977
-0.08152
-0.08853
-0.10256
-0.11133
-0.11220
-0.10168
-0.08766
-0.07802
-0.07100
-0.07714
-0.08853
-0.10344
-0.11308
-0.09555
-0.04032
0.07276
0.20775
0.31995
0.39797
0.43654
0.38745
0.19197
-0.14288
-0.52770
-0.83801
-1.05891
-1.23598
-1.34994
-1.37010
-1.27806
-1.07995
-0.83714
-0.58731
-0.37605
-0.23931
-0.15778
-0.10694
-0.07363
-0.04295
-0.01403
0.00877
0.02016
0.01928
0.01315
0.00263
-0.00351
0.00351
0.01841
0.03243
0.04032
0.04032
0.03594
0.01753
0.00964
0.01140
0.01928
0.03857
0.05259
0.05785
0.04821
0.03594
0.01928
0.01490
0.01928
0.03945
0.05698
0.06487
0.06136
0.04821
0.03769
0.02980
0.03243
0.04295
0.05698
0.06487
0.06311
0.05172
0.03682
0.02542
0.02805
0.04295
0.05785
0.07188
0.07889
0.07188
0.05698
0.04383
0.04032
0.04295
0.05873
0.07714
0.08503
0.08328
0.07276
0.06224
0.04997
0.05172
0.06311
0.07714
0.08590
0.08941
0.08065
0.06311
0.05522
0.05610
0.06311
0.07802
0.09204
0.09993
0.09730
0.08240
0.06925
0.06662
0.07714
0.08853
0.10694
0.11396
0.10870
0.10168
0.08941
0.08503
0.08678
0.09818
0.11308
0.12623
0.12798
0.11746
0.10256
0.08941
0.08678
0.09818
0.11220
0.12097
0.12272
0.11220
0.09730
0.08503
0.08503
0.08766
0.10168
0.11133
0.11396
0.10607
0.08590
0.06750
0.05435
0.05084
0.05698
0.06487
0.06399
0.05698
0.04120
0.02104
0.00351
-0.00438
0.00263
0.01578
0.02016
0.01928
0.01227
-0.00263
-0.01666
-0.02454
-0.01841
-0.00789
0.00088
0.00438
-0.00263
-0.01753
-0.03156
-0.04032
-0.03857
-0.02630
-0.00789
0.00000
-0.00088
-0.00877
-0.02630
-0.03506
-0.03419
-0.02717
-0.01315
-0.00526
-0.00701
-0.01753
-0.03331
-0.05084
-0.05522
-0.05172
-0.03243
-0.01753
-0.00526
-0.00789
-0.02805
-0.04734
-0.05961
-0.05961
-0.05259
-0.03857
-0.02980
-0.03156
-0.04208
-0.05610
-0.05961
-0.05172
-0.03068
-0.00175
0.01841
0.03506
0.03331
0.02367
0.01490
0.01490
0.01666
0.02630
0.03506
0.03243
0.01666
-0.00351
-0.02630
-0.03594
-0.03945
-0.03419
-0.02893
-0.02630
-0.03857
-0.06487
-0.09818
-0.11659
-0.12360
-0.11308
-0.09818
-0.08415
-0.08152
-0.09292
-0.11220
-0.12535
-0.12886
-0.12272
-0.10782
-0.09379
-0.08590
-0.09204
-0.10782
-0.12535
-0.12886
-0.12360
-0.11308
-0.09818
-0.08415
-0.08240
-0.09642
-0.10694
-0.12097
-0.12272
-0.10782
-0.09292
-0.07977
-0.07977
-0.08240
-0.10168
-0.10782
-0.08590
-0.00701
0.12973
0.26999
0.38044
0.45144
0.44092
0.27349
-0.05435
-0.46196
-0.80295
-1.00982
-1.15533
-1.26315
-1.31312
-1.28682
-1.17550
-0.98002
-0.74334
-0.50491
-0.31294
-0.18584
-0.11483
-0.07714
-0.05785
-0.04295
-0.02717
-0.00263
0.01666
0.02542
0.02367
0.01315
-0.00088
-0.00438
0.00175
0.01666
0.03156
0.04032
0.03857
0.02805
0.01403
0.00526
0.00614
0.01753
0.03594
0.04646
0.05347
0.04383
0.03243
0.01490
0.01490
0.01666
0.03156
0.04646
0.05961
0.05347
0.03857
0.02367
0.01578
0.02104
0.03156
0.04646
0.05961
0.05873
0.04821
0.03419
0.02542
0.02630
0.04120
0.05610
0.06574
0.06925
0.06311
0.04909
0.03945
0.03594
0.04208
0.06136
0.07100
0.07977
0.07889
0.06399
0.05435
0.04558
0.05172
0.06662
0.08065
0.09029
0.08941
0.08328
0.06925
0.06487
0.06574
0.07188
0.08678
0.10519
0.10870
0.09818
0.08415
0.07451
0.07100
0.08152
0.09642
0.11045
0.11483
0.10870
0.09905
0.08415
0.08065
0.08678
0.10168
0.11571
0.12447
0.11922
0.10870
0.09379
0.07977
0.08065
0.09204
0.11045
0.12009
0.11922
0.10870
0.09379
0.08415
0.08065
0.08503
0.09116
0.10519
0.10957
0.09818
0.07802
0.05873
0.04032
0.04032
0.04558
0.05522
0.05961
0.04909
0.03331
0.00877
-0.00614
-0.01490
-0.01403
-0.00438
0.00000
0.00000
-0.00614
-0.02630
-0.04032
-0.04909
-0.03945
-0.02893
-0.01490
-0.01052
-0.02104
-0.03594
-0.04997
-0.05522
-0.05435
-0.03857
-0.02454
-0.01490
-0.01578
-0.03068
-0.04120
-0.05435
-0.04909
-0.03857
-0.02367
-0.00964
-0.00526
-0.01578
-0.03156
-0.04997
-0.05435
-0.04383
-0.02980
-0.01928
-0.01490
-0.02104
-0.03156
-0.05522
-0.05961
-0.05873
-0.04383
-0.02980
-0.02016
-0.02016
-0.03068
-0.03506
-0.03945
-0.02893
-0.00351
0.01666
0.04120
0.05435
0.04909
0.03945
0.02454
0.01490
0.01578
0.02542
0.02980
0.02980
0.01928
-0.00088
-0.02016
-0.03068
-0.03506
-0.03506
-0.03068
-0.03594
-0.05610
-0.07626
-0.09555
-0.11045
-0.11483
-0.10431
-0.09467
-0.07977
-0.08065
-0.09029
-0.10081
-0.12009
-0.11922
-0.10957
-0.09905
-0.07977
-0.07539
-0.08065
-0.09555
-0.11045
-0.11483
-0.10957
-0.09467
-0.07977
-0.06487
-0.06574
-0.07539
-0.09029
-0.09993
-0.09467
-0.07977
-0.06487
-0.05522
-0.05522
-0.07013
-0.07802
-0.03156
0.07977
0.21915
0.34800
0.44618
0.47686
0.37167
0.11220
-0.28226
-0.67321
-0.93531
-1.11326
-1.23160
-1.29471
-1.27104
-1.14043
-0.96424
-0.75386
-0.53471
-0.33573
-0.19285
-0.09905
-0.04909
-0.02980
-0.02016
-0.02016
-0.00964
0.00000
0.01578
0.03506
0.04032
0.03945
0.02454
0.01490
0.00526
0.01052
0.02542
0.04032
0.05522
0.05522
0.04471
0.03506
0.02542
0.02542
0.04032
0.05522
0.06487
0.06487
0.05961
0.04471
0.03506
0.03506
0.04032
0.05522
0.07013
0.07451
0.07013
0.05522
0.04032
0.03506
0.04032
0.04997
0.06487
0.07977
0.07977
0.06487
0.05522
0.04032
0.04032
0.05522
0.07013
0.08503
0.08503
0.07977
0.06487
0.05522
0.04997
0.05961
0.07013
0.08503
0.09029
0.08503
0.07539
0.06487
0.05961
0.06487
0.07539
0.09029
0.09993
0.09993
0.08503
0.07539
0.06487
0.06487
0.07977
0.09467
0.10957
0.10957
0.10519
0.08503
0.07539
0.07539
0.08503
0.09993
0.10957
0.11483
0.11045
0.09555
0.08503
0.07539
0.08503
0.09467
0.10957
0.12009
0.11483
0.10519
0.09029
0.07977
0.08503
0.09029
0.10957
0.11483
0.11483
0.10519
0.08503
0.07013
0.06487
0.06487
0.07977
0.08503
0.09029
0.07977
0.06048
0.04032
0.02016
0.02016
0.02980
0.03945
0.04032
0.02542
0.00526
-0.01490
-0.02980
-0.02980
-0.02016
-0.00526
0.00000
0.00000
-0.00964
-0.02980
-0.04471
-0.04997
-0.04032
-0.02542
-0.01052
-0.00526
-0.01490
-0.02980
-0.04471
-0.04997
-0.04558
-0.03068
-0.01052
-0.00526
-0.00526
-0.01928
-0.02980
-0.03945
-0.03506
-0.02980
-0.01578
-0.00526
-0.00526
-0.01490
-0.02980
-0.04471
-0.04997
-0.04558
-0.03068
-0.02016
-0.02016
-0.02454
-0.03945
-0.05435
-0.05961
-0.05522
-0.04032
-0.03068
-0.01578
-0.01490
-0.02454
-0.02980
-0.02980
-0.01578
0.00438
0.02893
0.04471
0.04997
0.04558
0.03068
0.02016
0.01490
0.01490
0.01490
0.02454
0.02542
0.01052
-0.00877
-0.02893
-0.04383
-0.05435
-0.04997
-0.04997
-0.04997
-0.05961
-0.07889
-0.09905
-0.11396
-0.11483
-0.10519
-0.08590
-0.08065
-0.07977
-0.08503
-0.09905
-0.11396
-0.12009
-0.11045
-0.09555
-0.08065
-0.07977
-0.08503
-0.09905
-0.10957
-0.11483
-0.11045
-0.09555
-0.08065
-0.07100
-0.07013
-0.07977
-0.09905
-0.10431
-0.09993
-0.09029
-0.07626
-0.06574
-0.07451
-0.07977
-0.04734
0.04383
0.17093
0.30154
0.41287
0.46634
0.37693
0.13236
-0.22440
-0.61273
-0.90463
-1.10186
-1.24036
-1.31049
-1.28682
-1.16936
-0.98352
-0.77577
-0.56101
-0.37342
-0.23054
-0.13236
-0.06487
-0.03243
-0.01578
-0.01490
-0.01928
-0.01052
-0.00088
0.01403
0.02893
0.03419
0.03068
0.01578
0.01052
0.00964
0.01490
0.03331
0.04909
0.05961
0.05522
0.04558
0.03156
0.01666
0.01490
0.02893
0.03945
0.04909
0.04997
0.04120
0.03506
0.02630
0.02542
0.03857
0.05347
0.06399
0.06487
0.05610
0.04120
0.02191
0.02016
0.02893
0.04383
0.06311
0.07451
0.07013
0.06136
0.04208
0.04032
0.04032
0.05347
0.06837
0.07889
0.07977
0.07100
0.06136
0.05084
0.04997
0.06311
0.07363
0.08415
0.08941
0.08590
0.07188
0.06136
0.05522
0.05961
0.06925
0.08766
0.09905
0.09555
0.08152
0.06662
0.06048
0.06487
0.07363
0.09292
0.10870
0.11483
0.10607
0.08678
0.07626
0.07539
0.08415
0.10256
0.11396
0.11483
0.11045
0.09642
0.08152
0.07539
0.08415
0.10256
0.11834
0.12447
0.12097
0.11133
0.09642
0.08590
0.08941
0.10344
0.11396
0.11922
0.11571
0.10607
0.08766
0.06750
0.06487
0.06925
0.07889
0.08415
0.08503
0.07188
0.04821
0.02717
0.01578
0.01490
0.02367
0.03419
0.03506
0.02630
0.00789
-0.01227
-0.02805
-0.02980
-0.02542
-0.01227
-0.00526
-0.00088
-0.00877
-0.02717
-0.03857
-0.04471
-0.03594
-0.02191
-0.00701
-0.00526
-0.00526
-0.02279
-0.03769
-0.04909
-0.04120
-0.03156
-0.01227
-0.00526
-0.00526
-0.01841
-0.03331
-0.04383
-0.04032
-0.03156
-0.01666
-0.00614
-0.00526
-0.01753
-0.03769
-0.05259
-0.05522
-0.04646
-0.03682
-0.02630
-0.02542
-0.02893
-0.04734
-0.05873
-0.06399
-0.05610
-0.03331
-0.01315
0.00263
0.00964
0.00614
0.00088
0.00000
0.01315
0.02805
0.04295
0.05347
0.05084
0.02893
0.00351
-0.00877
-0.01403
-0.01052
-0.00175
0.00438
-0.00351
-0.02630
-0.05084
-0.08065
-0.09730
-0.09993
-0.09555
-0.08240
-0.07977
-0.08415
-0.09730
-0.11659
-0.12447
-0.12535
-0.11220
-0.10168
-0.09116
-0.09379
-0.09905
-0.10870
-0.11834
-0.12009
-0.11133
-0.09730
-0.08240
-0.07977
-0.08853
-0.09818
-0.10870
-0.11396
-0.10256
-0.08766
-0.07276
-0.06574
-0.06925
-0.07802
-0.09292
-0.09905
-0.09993
-0.07889
-0.01666
0.08678
0.20950
0.31732
0.40147
0.43566
0.35677
0.11571
-0.25421
-0.62325
-0.88447
-1.06592
-1.20705
-1.30085
-1.31049
-1.21056
-1.02472
-0.78717
-0.55488
-0.36203
-0.23492
-0.15691
-0.10782
-0.06662
-0.03156
0.00000
0.01753
0.02454
0.01666
0.00701
-0.00351
-0.00526
0.00701
0.02191
0.03769
0.04383
0.04120
0.02805
0.01666
0.01052
0.01403
0.03506
0.04821
0.05785
0.05610
0.04295
0.03156
0.02191
0.02367
0.03682
0.05610
0.06399
0.06487
0.05259
0.04208
0.02805
0.02893
0.03769
0.05259
0.06311
0.06925
0.06224
0.04383
0.03156
0.02630
0.03331
0.04295
0.05698
0.06399
0.06487
0.05698
0.04295
0.03594
0.03945
0.05172
0.06662
0.07802
0.07977
0.07188
0.05785
0.04734
0.04909
0.06224
0.07714
0.08766
0.09379
0.08678
0.07276
0.06574
0.06136
0.06399
0.08065
0.09292
0.10256
0.10081
0.08766
0.07714
0.07100
0.07363
0.08328
0.10081
0.10870
0.10957
0.10168
0.08853
0.07714
0.07889
0.08766
0.10607
0.11834
0.12360
0.11746
0.10344
0.08853
0.08065
0.08415
0.10081
0.11308
0.11922
0.11220
0.10256
0.08853
0.07714
0.07889
0.08766
0.10607
0.10957
0.10607
0.08941
0.06925
0.05698
0.05084
0.05347
0.06311
0.06487
0.06487
0.04558
0.02454
0.00438
-0.00789
-0.00614
-0.00088
0.00789
0.00964
-0.00175
-0.01666
-0.03594
-0.04734
-0.04997
-0.03419
-0.02191
-0.01578
-0.01490
-0.02630
-0.03769
-0.05172
-0.05084
-0.03857
-0.02367
-0.00877
-0.00526
-0.01227
-0.02630
-0.03769
-0.04383
-0.03331
-0.02191
-0.00877
-0.00088
-0.00351
-0.01666
-0.03156
-0.03857
-0.03594
-0.02367
-0.00877
-0.00088
-0.00351
-0.02016
-0.03682
-0.04734
-0.04646
-0.03769
-0.02367
-0.00877
-0.00526
-0.00877
-0.02104
-0.02893
-0.02279
-0.00526
0.01928
0.04383
0.06136
0.06487
0.05347
0.04208
0.03594
0.03156
0.03769
0.04032
0.04032
0.03594
0.02016
0.00000
-0.02016
-0.02893
-0.03419
-0.03506
-0.03857
-0.04734
-0.06487
-0.08503
-0.10519
-0.11396
-0.10782
-0.09379
-0.08240
-0.07276
-0.07714
-0.08766
-0.10081
-0.11220
-0.11133
-0.10256
-0.08853
-0.08152
-0.07977
-0.09116
-0.10256
-0.11220
-0.11483
-0.10431
-0.08503
-0.07276
-0.07013
-0.07714
-0.08766
-0.09730
-0.09993
-0.09642
-0.08415
-0.06925
-0.06487
-0.07626
-0.07977
-0.04734
0.04558
0.18145
0.31206
0.41813
0.47774
0.42427
0.19548
-0.18321
-0.58731
-0.89236
-1.09660
-1.23598
-1.30611
-1.29120
-1.18864
-1.02034
-0.81347
-0.58731
-0.38657
-0.23317
-0.12623
-0.06399
-0.03156
-0.02104
-0.02016
-0.02016
-0.00877
0.00614
0.02104
0.03594
0.03682
0.02805
0.01753
0.00789
0.00877
0.01753
0.03419
0.04734
0.05347
0.04821
0.03769
0.02454
0.02016
0.02717
0.04032
0.05961
0.06487
0.06487
0.05435
0.04295
0.03243
0.03331
0.04558
0.06048
0.06837
0.06662
0.05785
0.04471
0.03331
0.03331
0.04208
0.05522
0.06750
0.07363
0.06750
0.05084
0.04120
0.04032
0.04734
0.06048
0.07539
0.08328
0.07802
0.06837
0.05435
0.04646
0.05172
0.06224
0.07539
0.08328
0.08503
0.08152
0.06925
0.05785
0.05873
0.06662
0.08065
0.09204
0.09467
0.08766
0.07451
0.06311
0.05961
0.06311
0.07889
0.09555
0.10694
0.10957
0.09993
0.08415
0.07626
0.07889
0.09029
0.10519
0.11308
0.11133
0.10344
0.08941
0.08152
0.08328
0.09204
0.10519
0.12009
0.12184
0.11308
0.09642
0.08328
0.07977
0.08678
0.10344
0.11659
0.12009
0.11308
0.09993
0.08503
0.07626
0.07539
0.08152
0.08853
0.09029
0.08678
0.07100
0.04821
0.02630
0.01666
0.02191
0.03156
0.03857
0.03682
0.02104
0.00175
-0.01490
-0.02367
-0.01841
-0.00789
-0.00175
0.00000
-0.00351
-0.02191
-0.04032
-0.05172
-0.04821
-0.03506
-0.01666
-0.00701
-0.00877
-0.02016
-0.03506
-0.04646
-0.04997
-0.04032
-0.02454
-0.01315
-0.01315
-0.02542
-0.04032
-0.05172
-0.05873
-0.05698
-0.03857
-0.02367
-0.01666
-0.02454
-0.04032
-0.05172
-0.05873
-0.05698
-0.05172
-0.04295
-0.03682
-0.03857
-0.04997
-0.06487
-0.07626
-0.07363
-0.05347
-0.02542
0.00175
0.01315
0.01490
0.01490
0.01140
0.01315
0.02454
0.03945
0.05172
0.04558
0.02717
0.00701
-0.01315
-0.02630
-0.02980
-0.02367
-0.01666
-0.02191
-0.03769
-0.06487
-0.09116
-0.10957
-0.11834
-0.11308
-0.10344
-0.09379
-0.09292
-0.10168
-0.11834
-0.13149
-0.13499
-0.12886
-0.11220
-0.09555
-0.09029
-0.09642
-0.10607
-0.12009
-0.12798
-0.12710
-0.11220
-0.09555
-0.08328
-0.08678
-0.09642
-0.11308
-0.12360
-0.12535
-0.11220
-0.09555
-0.08328
-0.07977
-0.08678
-0.09993
-0.11133
-0.10519
-0.05873
0.04120
0.18058
0.30768
0.40673
0.45232
0.37781
0.14288
-0.22178
-0.59783
-0.86869
-1.04751
-1.18426
-1.28332
-1.31487
-1.24562
-1.07907
-0.85116
-0.60922
-0.39446
-0.24106
-0.15077
-0.09993
-0.06925
-0.04734
-0.02454
0.00088
0.01928
0.03156
0.02893
0.01841
0.00526
0.00000
0.00614
0.01928
0.03419
0.04295
0.04208
0.03419
0.02104
0.01490
0.01841
0.02893
0.04471
0.05610
0.05961
0.05084
0.03594
0.02104
0.01841
0.02893
0.04734
0.06136
0.06487
0.06487
0.05259
0.03857
0.03506
0.03769
0.04909
0.06136
0.06487
0.06487
0.05610
0.04383
0.03682
0.03769
0.05259
0.06925
0.08065
0.08503
0.07626
0.06399
0.05435
0.04997
0.05873
0.07451
0.08590
0.09292
0.08853
0.07889
0.06925
0.06224
0.06311
0.07714
0.09379
0.10607
0.10694
0.09642
0.08065
0.07188
0.07276
0.08415
0.10168
0.10957
0.10957
0.10431
0.09116
0.07889
0.07802
0.08590
0.10168
0.11571
0.12009
0.11396
0.10431
0.09116
0.08503
0.08766
0.10168
0.11922
0.12798
0.12710
0.11571
0.10081
0.09204
0.09555
0.10870
0.12360
0.13324
0.13499
0.12360
0.10870
0.09642
0.08678
0.09379
0.10607
0.11308
0.11220
0.10431
0.08853
0.07100
0.05610
0.04997
0.05610
0.06311
0.06224
0.04821
0.02805
0.00877
-0.00614
-0.01315
-0.00964
-0.00175
0.00263
0.00175
-0.01140
-0.02893
-0.04383
-0.04997
-0.04120
-0.02630
-0.01403
-0.00964
-0.01578
-0.02893
-0.04032
-0.04821
-0.04471
-0.03156
-0.01666
-0.00701
-0.00789
-0.01841
-0.03068
-0.03769
-0.03682
-0.02630
-0.01140
0.00088
0.00175
-0.00877
-0.02367
-0.03594
-0.04032
-0.03419
-0.02191
-0.00964
-0.00789
-0.01841
-0.03331
-0.04821
-0.05522
-0.04383
-0.02630
-0.00877
0.00877
0.01490
0.01490
0.00964
0.01052
0.02016
0.03857
0.06136
0.07802
0.08503
0.07363
0.05084
0.02630
0.01490
0.01490
0.02016
0.03068
0.02980
0.01140
-0.01666
-0.04383
-0.06311
-0.07276
-0.06925
-0.06224
-0.05961
-0.06837
-0.08590
-0.10081
-0.10782
-0.10694
-0.09993
-0.08678
-0.07714
-0.07802
-0.08590
-0.09818
-0.11045
-0.11483
-0.10694
-0.09204
-0.07977
-0.07539
-0.07802
-0.09116
-0.10256
-0.10519
-0.09993
-0.08678
-0.06925
-0.05961
-0.06574
-0.07539
-0.08766
-0.09730
-0.09993
-0.09204
-0.06925
-0.01753
0.07714
0.19460
0.30067
0.38219
0.43391
0.39884
0.21301
-0.11571
-0.49790
-0.81873
-1.05453
-1.22721
-1.32714
-1.32276
-1.20442
-1.00807
-0.78542
-0.56627
-0.38044
-0.24632
-0.15778
-0.10081
-0.05347
-0.01403
0.01052
0.02279
0.02016
0.00964
0.00263
0.00263
0.01052
0.02805
0.04558
0.04997
0.04471
0.03243
0.02016
0.01490
0.01753
0.03068
0.04821
0.05785
0.05698
0.04734
0.03243
0.02542
0.02980
0.04295
0.05785
0.06750
0.06750
0.05698
0.04208
0.02980
0.02717
0.03506
0.04997
0.06224
0.06487
0.06224
0.04997
0.03769
0.03506
0.04032
0.05522
0.07013
0.07714
0.07276
0.05698
0.04471
0.03506
0.03506
0.04734
0.06487
0.07977
0.08503
0.07714
0.06487
0.05522
0.05259
0.06048
0.07539
0.09292
0.09993
0.09204
0.07714
0.06487
0.05961
0.06487
0.07714
0.09292
0.10256
0.10256
0.09292
0.07977
0.07013
0.07013
0.08240
0.09993
0.10957
0.10957
0.10256
0.08766
0.07539
0.07013
0.07714
0.09467
0.10957
0.11220
0.10519
0.09292
0.08240
0.07977
0.08240
0.09467
0.10957
0.11483
0.11220
0.10256
0.08766
0.07539
0.07451
0.08503
0.09730
0.10519
0.09993
0.08766
0.07013
0.05259
0.04471
0.04997
0.05961
0.06487
0.05785
0.04295
0.02542
0.00526
-0.00701
-0.00789
0.00000
0.00964
0.01227
0.00526
-0.00701
-0.02191
-0.03243
-0.03506
-0.02980
-0.01753
-0.00789
-0.00964
-0.02191
-0.03945
-0.05259
-0.05522
-0.04558
-0.02805
-0.01315
-0.00526
-0.01227
-0.02980
-0.04734
-0.05522
-0.05259
-0.04032
-0.02279
-0.01227
-0.01490
-0.02980
-0.04734
-0.05698
-0.05785
-0.04558
-0.03068
-0.02279
-0.02454
-0.03682
-0.04997
-0.05961
-0.06311
-0.05522
-0.04032
-0.02104
-0.00789
-0.00701
-0.01666
-0.02717
-0.02279
-0.00614
0.01666
0.03945
0.05698
0.06048
0.04558
0.02367
0.00351
-0.00263
0.00438
0.01227
0.01490
0.00789
-0.01403
-0.04120
-0.06662
-0.08678
-0.09730
-0.09730
-0.09467
-0.09730
-0.10870
-0.12447
-0.13412
-0.14201
-0.14025
-0.13061
-0.11834
-0.10782
-0.10694
-0.11659
-0.12710
-0.13236
-0.13061
-0.11834
-0.10344
-0.09029
-0.08766
-0.09642
-0.11133
-0.12184
-0.12272
-0.11133
-0.09292
-0.08240
-0.07977
-0.08415
-0.09642
-0.10957
-0.11483
-0.11308
-0.10344
-0.07977
-0.02717
0.06750
0.18321
0.28226
0.36466
0.41901
0.37079
0.16392
-0.18584
-0.57679
-0.88272
-1.08871
-1.23510
-1.31925
-1.32802
-1.24212
-1.07118
-0.85554
-0.63202
-0.43654
-0.29015
-0.19285
-0.12184
-0.06574
-0.02454
-0.00088
0.00526
0.00088
-0.00964
-0.01490
-0.01052
0.00351
0.02104
0.03419
0.03594
0.02367
0.00877
-0.00175
-0.00263
0.00614
0.02367
0.03945
0.04295
0.03331
0.02104
0.01052
0.00701
0.01403
0.02805
0.04383
0.05172
0.04909
0.03331
0.02104
0.01490
0.02104
0.03594
0.05084
0.06224
0.06311
0.05610
0.04558
0.03769
0.03682
0.04383
0.05610
0.06750
0.06837
0.06311
0.05347
0.04295
0.04032
0.04208
0.05347
0.06925
0.07539
0.07100
0.06311
0.05610
0.04997
0.05435
0.06574
0.07889
0.08941
0.09292
0.08590
0.07363
0.06311
0.06224
0.07276
0.08941
0.09905
0.10519
0.09905
0.08415
0.07100
0.06925
0.07889
0.09116
0.10431
0.10957
0.10782
0.09905
0.08590
0.07977
0.08240
0.09292
0.11133
0.12184
0.12272
0.11396
0.09905
0.08766
0.08503
0.09116
0.10607
0.12097
0.12798
0.11922
0.10431
0.09116
0.08503
0.08853
0.10081
0.11220
0.11483
0.11133
0.09730
0.07889
0.06837
0.06487
0.06925
0.07714
0.07802
0.07100
0.05522
0.03243
0.01403
0.00526
0.00877
0.01490
0.01490
0.01315
0.00263
-0.01753
-0.03594
-0.04471
-0.03945
-0.02630
-0.01578
-0.01227
-0.01841
-0.03068
-0.04383
-0.04997
-0.04646
-0.03419
-0.01928
-0.00789
-0.00877
-0.02104
-0.03331
-0.04208
-0.04120
-0.02980
-0.01403
-0.00351
0.00000
-0.00351
-0.01753
-0.03331
-0.04032
-0.03594
-0.02279
-0.00789
-0.00526
-0.01052
-0.02542
-0.03857
-0.04646
-0.04471
-0.02980
-0.01490
-0.00175
0.00701
0.00789
0.00351
0.00000
0.00526
0.02367
0.04909
0.06837
0.07539
0.07100
0.05610
0.03243
0.01841
0.01841
0.02893
0.03506
0.03156
0.01753
-0.00614
-0.03594
-0.06048
-0.07013
-0.06837
-0.06487
-0.06487
-0.06837
-0.08065
-0.09379
-0.10344
-0.10782
-0.09993
-0.08503
-0.07363
-0.07188
-0.07889
-0.09029
-0.10168
-0.10519
-0.10344
-0.09292
-0.07626
-0.07013
-0.07363
-0.08678
-0.10344
-0.10870
-0.10168
-0.08941
-0.07451
-0.06311
-0.06311
-0.07363
-0.08503
-0.09642
-0.09818
-0.09116
-0.07802
-0.04997
0.00877
0.10431
0.21564
0.31382
0.39183
0.41988
0.31732
0.04909
-0.32872
-0.68987
-0.95284
-1.13605
-1.26403
-1.31838
