0.00000
0.00400
0.00800
0.01200
0.01600
0.02000
0.02400
0.02800
0.03200
0.03600
0.04000
0.04400
0.04800
0.05200
0.05600
0.06000
0.06400
0.06800
0.07200
0.07600
0.08000
0.08400
0.08800
0.09200
0.09600
0.10000
0.10400
0.10800
0.11200
0.11600
0.12000
0.12400
0.12800
0.13200
0.13600
0.14000
0.14400
0.14800
0.15200
0.15600
0.16000
0.16400
0.16800
0.17200
0.17600
0.18000
0.18400
0.18800
0.19200
0.19600
0.20000
0.20400
0.20800
0.21200
0.21600
0.22000
0.22400
0.22800
0.23200
0.23600
0.24000
0.24400
0.24800
0.25200
0.25600
0.26000
0.26400
0.26800
0.27200
0.27600
0.28000
0.28400
0.28800
0.29200
0.29600
0.30000
0.30400
0.30800
0.31200
0.31600
0.32000
0.32400
0.32800
0.33200
0.33600
0.34000
0.34400
0.34800
0.35200
0.35600
0.36000
0.36400
0.36800
0.37200
0.37600
0.38000
0.38400
0.38800
0.39200
0.39600
0.40000
0.40400
0.40800
0.41200
0.41600
0.42000
0.42400
0.42800
0.43200
0.43600
0.44000
0.44400
0.44800
0.45200
0.45600
0.46000
0.46400
0.46800
0.47200
0.47600
0.48000
0.48400
0.48800
0.49200
0.49600
0.50000
0.50400
0.50800
0.51200
0.51600
0.52000
0.52400
0.52800
0.53200
0.53600
0.54000
0.54400
0.54800
0.55200
0.55600
0.56000
0.56400
0.56800
0.57200
0.57600
0.58000
0.58400
0.58800
0.59200
0.59600
0.60000
0.60400
0.60800
0.61200
0.61600
0.62000
0.62400
0.62800
0.63200
0.63600
0.64000
0.64400
0.64800
0.65200
0.65600
0.66000
0.66400
0.66800
0.67200
0.67600
0.68000
0.68400
0.68800
0.69200
0.69600
0.70000
0.70400
0.70800
0.71200
0.71600
0.72000
0.72400
0.72800
0.73200
0.73600
0.74000
0.74400
0.74800
0.75200
0.75600
0.76000
0.76400
0.76800
0.77200
0.77600
0.78000
0.78400
0.78800
0.79200
0.79600
0.80000
0.80400
0.80800
0.81200
0.81600
0.82000
0.82400
0.82800
0.83200
0.83600
0.84000
0.84400
0.84800
0.85200
0.85600
0.86000
0.86400
0.86800
0.87200
0.87600
0.88000
0.88400
0.88800
0.89200
0.89600
0.90000
0.90400
0.90800
0.91200
0.91600
0.92000
0.92400
0.92800
0.93200
0.93600
0.94000
0.94400
0.94800
0.95200
0.95600
0.96000
0.96400
0.96800
0.97200
0.97600
0.98000
0.98400
0.98800
0.99200
0.99600
1.00000
1.00400
1.00800
1.01200
1.01600
1.02000
1.02400
1.02800
1.03200
1.03600
1.04000
1.04400
1.04800
1.05200
1.05600
1.06000
1.06400
1.06800
1.07200
1.07600
1.08000
1.08400
1.08800
1.09200
1.09600
1.10000
1.10400
1.10800
1.11200
1.11600
1.12000
1.12400
1.12800
1.13200
1.13600
1.14000
1.14400
1.14800
1.15200
1.15600
1.16000
1.16400
1.16800
1.17200
1.17600
1.18000
1.18400
1.18800
1.19200
1.19600
1.20000
1.20400
1.20800
1.21200
1.21600
1.22000
1.22400
1.22800
1.23200
1.23600
1.24000
1.24400
1.24800
1.25200
1.25600
1.26000
1.26400
1.26800
1.27200
1.27600
1.28000
1.28400
1.28800
1.29200
1.29600
1.30000
1.30400
1.30800
1.31200
1.31600
1.32000
1.32400
1.32800
1.33200
1.33600
1.34000
1.34400
1.34800
1.35200
1.35600
1.36000
1.36400
1.36800
1.37200
1.37600
1.38000
1.38400
1.38800
1.39200
1.39600
1.40000
1.40400
1.40800
1.41200
1.41600
1.42000
1.42400
1.42800
1.43200
1.43600
1.44000
1.44400
1.44800
1.45200
1.45600
1.46000
1.46400
1.46800
1.47200
1.47600
1.48000
1.48400
1.48800
1.49200
1.49600
1.50000
1.50400
1.50800
1.51200
1.51600
1.52000
1.52400
1.52800
1.53200
1.53600
1.54000
1.54400
1.54800
1.55200
1.55600
1.56000
1.56400
1.56800
1.57200
1.57600
1.58000
1.58400
1.58800
1.59200
1.59600
1.60000
1.60400
1.60800
1.61200
1.61600
1.62000
1.62400
1.62800
1.63200
1.63600
1.64000
1.64400
1.64800
1.65200
1.65600
1.66000
1.66400
1.66800
1.67200
1.67600
1.68000
1.68400
1.68800
1.69200
1.69600
1.70000
1.70400
1.70800
1.71200
1.71600
1.72000
1.72400
1.72800
1.73200
1.73600
1.74000
1.74400
1.74800
1.75200
1.75600
1.76000
1.76400
1.76800
1.77200
1.77600
1.78000
1.78400
1.78800
1.79200
1.79600
1.80000
1.80400
1.80800
1.81200
1.81600
1.82000
1.82400
1.82800
1.83200
1.83600
1.84000
1.84400
1.84800
1.85200
1.85600
1.86000
1.86400
1.86800
1.87200
1.87600
1.88000
1.88400
1.88800
1.89200
1.89600
1.90000
1.90400
1.90800
1.91200
1.91600
1.92000
1.92400
1.92800
1.93200
1.93600
1.94000
1.94400
1.94800
1.95200
1.95600
1.96000
1.96400
1.96800
1.97200
1.97600
1.98000
1.98400
1.98800
1.99200
1.99600
2.00000
2.00400
2.00800
2.01200
2.01600
2.02000
2.02400
2.02800
2.03200
2.03600
2.04000
2.04400
2.04800
2.05200
2.05600
2.06000
2.06400
2.06800
2.07200
2.07600
2.08000
2.08400
2.08800
2.09200
2.09600
2.10000
2.10400
2.10800
2.11200
2.11600
2.12000
2.12400
2.12800
2.13200
2.13600
2.14000
2.14400
2.14800
2.15200
2.15600
2.16000
2.16400
2.16800
2.17200
2.17600
2.18000
2.18400
2.18800
2.19200
2.19600
2.20000
2.20400
2.20800
2.21200
2.21600
2.22000
2.22400
2.22800
2.23200
2.23600
2.24000
2.24400
2.24800
2.25200
2.25600
2.26000
2.26400
2.26800
2.27200
2.27600
2.28000
2.28400
2.28800
2.29200
2.29600
2.30000
2.30400
2.30800
2.31200
2.31600
2.32000
2.32400
2.32800
2.33200
2.33600
2.34000
2.34400
2.34800
2.35200
2.35600
2.36000
2.36400
2.36800
2.37200
2.37600
2.38000
2.38400
2.38800
2.39200
2.39600
2.40000
2.40400
2.40800
2.41200
2.41600
2.42000
2.42400
2.42800
2.43200
2.43600
2.44000
2.44400
2.44800
2.45200
2.45600
2.46000
2.46400
2.46800
2.47200
2.47600
2.48000
2.48400
2.48800
2.49200
2.49600
2.50000
2.50400
2.50800
2.51200
2.51600
2.52000
2.52400
2.52800
2.53200
2.53600
2.54000
2.54400
2.54800
2.55200
2.55600
2.56000
2.56400
2.56800
2.57200
2.57600
2.58000
2.58400
2.58800
2.59200
2.59600
2.60000
2.60400
2.60800
2.61200
2.61600
2.62000
2.62400
2.62800
2.63200
2.63600
2.64000
2.64400
2.64800
2.65200
2.65600
2.66000
2.66400
2.66800
2.67200
2.67600
2.68000
2.68400
2.68800
2.69200
2.69600
2.70000
2.70400
2.70800
2.71200
2.71600
2.72000
2.72400
2.72800
2.73200
2.73600
2.74000
2.74400
2.74800
2.75200
2.75600
2.76000
2.76400
2.76800
2.77200
2.77600
2.78000
2.78400
2.78800
2.79200
2.79600
2.80000
2.80400
2.80800
2.81200
2.81600
2.82000
2.82400
2.82800
2.83200
2.83600
2.84000
2.84400
2.84800
2.85200
2.85600
2.86000
2.86400
2.86800
2.87200
2.87600
2.88000
2.88400
2.88800
2.89200
2.89600
2.90000
2.90400
2.90800
2.91200
2.91600
2.92000
2.92400
2.92800
2.93200
2.93600
2.94000
2.94400
2.94800
2.95200
2.95600
2.96000
2.96400
2.96800
2.97200
2.97600
2.98000
2.98400
2.98800
2.99200
2.99600
3.00000
3.00400
3.00800
3.01200
3.01600
3.02000
3.02400
3.02800
3.03200
3.03600
3.04000
3.04400
3.04800
3.05200
3.05600
3.06000
3.06400
3.06800
3.07200
3.07600
3.08000
3.08400
3.08800
3.09200
3.09600
3.10000
3.10400
3.10800
3.11200
3.11600
3.12000
3.12400
3.12800
3.13200
3.13600
3.14000
3.14400
3.14800
3.15200
3.15600
3.16000
3.16400
3.16800
3.17200
3.17600
3.18000
3.18400
3.18800
3.19200
3.19600
3.20000
3.20400
3.20800
3.21200
3.21600
3.22000
3.22400
3.22800
3.23200
3.23600
3.24000
3.24400
3.24800
3.25200
3.25600
3.26000
3.26400
3.26800
3.27200
3.27600
3.28000
3.28400
3.28800
3.29200
3.29600
3.30000
3.30400
3.30800
3.31200
3.31600
3.32000
3.32400
3.32800
3.33200
3.33600
3.34000
3.34400
3.34800
3.35200
3.35600
3.36000
3.36400
3.36800
3.37200
3.37600
3.38000
3.38400
3.38800
3.39200
3.39600
3.40000
3.40400
3.40800
3.41200
3.41600
3.42000
3.42400
3.42800
3.43200
3.43600
3.44000
3.44400
3.44800
3.45200
3.45600
3.46000
3.46400
3.46800
3.47200
3.47600
3.48000
3.48400
3.48800
3.49200
3.49600
3.50000
3.50400
3.50800
3.51200
3.51600
3.52000
3.52400
3.52800
3.53200
3.53600
3.54000
3.54400
3.54800
3.55200
3.55600
3.56000
3.56400
3.56800
3.57200
3.57600
3.58000
3.58400
3.58800
3.59200
3.59600
3.60000
3.60400
3.60800
3.61200
3.61600
3.62000
3.62400
3.62800
3.63200
3.63600
3.64000
3.64400
3.64800
3.65200
3.65600
3.66000
3.66400
3.66800
3.67200
3.67600
3.68000
3.68400
3.68800
3.69200
3.69600
3.70000
3.70400
3.70800
3.71200
3.71600
3.72000
3.72400
3.72800
3.73200
3.73600
3.74000
3.74400
3.74800
3.75200
3.75600
3.76000
3.76400
3.76800
3.77200
3.77600
3.78000
3.78400
3.78800
3.79200
3.79600
3.80000
3.80400
3.80800
3.81200
3.81600
3.82000
3.82400
3.82800
3.83200
3.83600
3.84000
3.84400
3.84800
3.85200
3.85600
3.86000
3.86400
3.86800
3.87200
3.87600
3.88000
3.88400
3.88800
3.89200
3.89600
3.90000
3.90400
3.90800
3.91200
3.91600
3.92000
3.92400
3.92800
3.93200
3.93600
3.94000
3.94400
3.94800
3.95200
3.95600
3.96000
3.96400
3.96800
3.97200
3.97600
3.98000
3.98400
3.98800
3.99200
3.99600
4.00000
4.00400
4.00800
4.01200
4.01600
4.02000
4.02400
4.02800
4.03200
4.03600
4.04000
4.04400
4.04800
4.05200
4.05600
4.06000
4.06400
4.06800
4.07200
4.07600
4.08000
4.08400
4.08800
4.09200
4.09600
4.10000
4.10400
4.10800
4.11200
4.11600
4.12000
4.12400
4.12800
4.13200
4.13600
4.14000
4.14400
4.14800
4.15200
4.15600
4.16000
4.16400
4.16800
4.17200
4.17600
4.18000
4.18400
4.18800
4.19200
4.19600
4.20000
4.20400
4.20800
4.21200
4.21600
4.22000
4.22400
4.22800
4.23200
4.23600
4.24000
4.24400
4.24800
4.25200
4.25600
4.26000
4.26400
4.26800
4.27200
4.27600
4.28000
4.28400
4.28800
4.29200
4.29600
4.30000
4.30400
4.30800
4.31200
4.31600
4.32000
4.32400
4.32800
4.33200
4.33600
4.34000
4.34400
4.34800
4.35200
4.35600
4.36000
4.36400
4.36800
4.37200
4.37600
4.38000
4.38400
4.38800
4.39200
4.39600
4.40000
4.40400
4.40800
4.41200
4.41600
4.42000
4.42400
4.42800
4.43200
4.43600
4.44000
4.44400
4.44800
4.45200
4.45600
4.46000
4.46400
4.46800
4.47200
4.47600
4.48000
4.48400
4.48800
4.49200
4.49600
4.50000
4.50400
4.50800
4.51200
4.51600
4.52000
4.52400
4.52800
4.53200
4.53600
4.54000
4.54400
4.54800
4.55200
4.55600
4.56000
4.56400
4.56800
4.57200
4.57600
4.58000
4.58400
4.58800
4.59200
4.59600
4.60000
4.60400
4.60800
4.61200
4.61600
4.62000
4.62400
4.62800
4.63200
4.63600
4.64000
4.64400
4.64800
4.65200
4.65600
4.66000
4.66400
4.66800
4.67200
4.67600
4.68000
4.68400
4.68800
4.69200
4.69600
4.70000
4.70400
4.70800
4.71200
4.71600
4.72000
4.72400
4.72800
4.73200
4.73600
4.74000
4.74400
4.74800
4.75200
4.75600
4.76000
4.76400
4.76800
4.77200
4.77600
4.78000
4.78400
4.78800
4.79200
4.79600
4.80000
4.80400
4.80800
4.81200
4.81600
4.82000
4.82400
4.82800
4.83200
4.83600
4.84000
4.84400
4.84800
4.85200
4.85600
4.86000
4.86400
4.86800
4.87200
4.87600
4.88000
4.88400
4.88800
4.89200
4.89600
4.90000
4.90400
4.90800
4.91200
4.91600
4.92000
4.92400
4.92800
4.93200
4.93600
4.94000
4.94400
4.94800
4.95200
4.95600
4.96000
4.96400
4.96800
4.97200
4.97600
4.98000
4.98400
4.98800
4.99200
4.99600
5.00000
5.00400
5.00800
5.01200
5.01600
5.02000
5.02400
5.02800
5.03200
5.03600
5.04000
5.04400
5.04800
5.05200
5.05600
5.06000
5.06400
5.06800
5.07200
5.07600
5.08000
5.08400
5.08800
5.09200
5.09600
5.10000
5.10400
5.10800
5.11200
5.11600
5.12000
5.12400
5.12800
5.13200
5.13600
5.14000
5.14400
5.14800
5.15200
5.15600
5.16000
5.16400
5.16800
5.17200
5.17600
5.18000
5.18400
5.18800
5.19200
5.19600
5.20000
5.20400
5.20800
5.21200
5.21600
5.22000
5.22400
5.22800
5.23200
5.23600
5.24000
5.24400
5.24800
5.25200
5.25600
5.26000
5.26400
5.26800
5.27200
5.27600
5.28000
5.28400
5.28800
5.29200
5.29600
5.30000
5.30400
5.30800
5.31200
5.31600
5.32000
5.32400
5.32800
5.33200
5.33600
5.34000
5.34400
5.34800
5.35200
5.35600
5.36000
5.36400
5.36800
5.37200
5.37600
5.38000
5.38400
5.38800
5.39200
5.39600
5.40000
5.40400
5.40800
5.41200
5.41600
5.42000
5.42400
5.42800
5.43200
5.43600
5.44000
5.44400
5.44800
5.45200
5.45600
5.46000
5.46400
5.46800
5.47200
5.47600
5.48000
5.48400
5.48800
5.49200
5.49600
5.50000
5.50400
5.50800
5.51200
5.51600
5.52000
5.52400
5.52800
5.53200
5.53600
5.54000
5.54400
5.54800
5.55200
5.55600
5.56000
5.56400
5.56800
5.57200
5.57600
5.58000
5.58400
5.58800
5.59200
5.59600
5.60000
5.60400
5.60800
5.61200
5.61600
5.62000
5.62400
5.62800
5.63200
5.63600
5.64000
5.64400
5.64800
5.65200
5.65600
5.66000
5.66400
5.66800
5.67200
5.67600
5.68000
5.68400
5.68800
5.69200
5.69600
5.70000
5.70400
5.70800
5.71200
5.71600
5.72000
5.72400
5.72800
5.73200
5.73600
5.74000
5.74400
5.74800
5.75200
5.75600
5.76000
5.76400
5.76800
5.77200
5.77600
5.78000
5.78400
5.78800
5.79200
5.79600
5.80000
5.80400
5.80800
5.81200
5.81600
5.82000
5.82400
5.82800
5.83200
5.83600
5.84000
5.84400
5.84800
5.85200
5.85600
5.86000
5.86400
5.86800
5.87200
5.87600
5.88000
5.88400
5.88800
5.89200
5.89600
5.90000
5.90400
5.90800
5.91200
5.91600
5.92000
5.92400
5.92800
5.93200
5.93600
5.94000
5.94400
5.94800
5.95200
5.95600
5.96000
5.96400
5.96800
5.97200
5.97600
5.98000
5.98400
5.98800
5.99200
5.99600
6.00000
6.00400
6.00800
6.01200
6.01600
6.02000
6.02400
6.02800
6.03200
6.03600
6.04000
6.04400
6.04800
6.05200
6.05600
6.06000
6.06400
6.06800
6.07200
6.07600
6.08000
6.08400
6.08800
6.09200
6.09600
6.10000
6.10400
6.10800
6.11200
6.11600
6.12000
6.12400
6.12800
6.13200
6.13600
6.14000
6.14400
6.14800
6.15200
6.15600
6.16000
6.16400
6.16800
6.17200
6.17600
6.18000
6.18400
6.18800
6.19200
6.19600
6.20000
6.20400
6.20800
6.21200
6.21600
6.22000
6.22400
6.22800
6.23200
6.23600
6.24000
6.24400
6.24800
6.25200
6.25600
6.26000
6.26400
6.26800
6.27200
6.27600
6.28000
6.28400
6.28800
6.29200
6.29600
6.30000
6.30400
6.30800
6.31200
6.31600
6.32000
6.32400
6.32800
6.33200
6.33600
6.34000
6.34400
6.34800
6.35200
6.35600
6.36000
6.36400
6.36800
6.37200
6.37600
6.38000
6.38400
6.38800
6.39200
6.39600
6.40000
6.40400
6.40800
6.41200
6.41600
6.42000
6.42400
6.42800
6.43200
6.43600
6.44000
6.44400
6.44800
6.45200
6.45600
6.46000
6.46400
6.46800
6.47200
6.47600
6.48000
6.48400
6.48800
6.49200
6.49600
6.50000
6.50400
6.50800
6.51200
6.51600
6.52000
6.52400
6.52800
6.53200
6.53600
6.54000
6.54400
6.54800
6.55200
6.55600
6.56000
6.56400
6.56800
6.57200
6.57600
6.58000
6.58400
6.58800
6.59200
6.59600
6.60000
6.60400
6.60800
6.61200
6.61600
6.62000
6.62400
6.62800
6.63200
6.63600
6.64000
6.64400
6.64800
6.65200
6.65600
6.66000
6.66400
6.66800
6.67200
6.67600
6.68000
6.68400
6.68800
6.69200
6.69600
6.70000
6.70400
6.70800
6.71200
6.71600
6.72000
6.72400
6.72800
6.73200
6.73600
6.74000
6.74400
6.74800
6.75200
6.75600
6.76000
6.76400
6.76800
6.77200
6.77600
6.78000
6.78400
6.78800
6.79200
6.79600
6.80000
6.80400
6.80800
6.81200
6.81600
6.82000
6.82400
6.82800
6.83200
6.83600
6.84000
6.84400
6.84800
6.85200
6.85600
6.86000
6.86400
6.86800
6.87200
6.87600
6.88000
6.88400
6.88800
6.89200
6.89600
6.90000
6.90400
6.90800
6.91200
6.91600
6.92000
6.92400
6.92800
6.93200
6.93600
6.94000
6.94400
6.94800
6.95200
6.95600
6.96000
6.96400
6.96800
6.97200
6.97600
6.98000
6.98400
6.98800
6.99200
6.99600
7.00000
7.00400
7.00800
7.01200
7.01600
7.02000
7.02400
7.02800
7.03200
7.03600
7.04000
7.04400
7.04800
7.05200
7.05600
7.06000
7.06400
7.06800
7.07200
7.07600
7.08000
7.08400
7.08800
7.09200
7.09600
7.10000
7.10400
7.10800
7.11200
7.11600
7.12000
7.12400
7.12800
7.13200
7.13600
7.14000
7.14400
7.14800
7.15200
7.15600
7.16000
7.16400
7.16800
7.17200
7.17600
7.18000
7.18400
7.18800
7.19200
7.19600
7.20000
7.20400
7.20800
7.21200
7.21600
7.22000
7.22400
7.22800
7.23200
7.23600
7.24000
7.24400
7.24800
7.25200
7.25600
7.26000
7.26400
7.26800
7.27200
7.27600
7.28000
7.28400
7.28800
7.29200
7.29600
7.30000
7.30400
7.30800
7.31200
7.31600
7.32000
7.32400
7.32800
7.33200
7.33600
7.34000
7.34400
7.34800
7.35200
7.35600
7.36000
7.36400
7.36800
7.37200
7.37600
7.38000
7.38400
7.38800
7.39200
7.39600
7.40000
7.40400
7.40800
7.41200
7.41600
7.42000
7.42400
7.42800
7.43200
7.43600
7.44000
7.44400
7.44800
7.45200
7.45600
7.46000
7.46400
7.46800
7.47200
7.47600
7.48000
7.48400
7.48800
7.49200
7.49600
7.50000
7.50400
7.50800
7.51200
7.51600
7.52000
7.52400
7.52800
7.53200
7.53600
7.54000
7.54400
7.54800
7.55200
7.55600
7.56000
7.56400
7.56800
7.57200
7.57600
7.58000
7.58400
7.58800
7.59200
7.59600
7.60000
7.60400
7.60800
7.61200
7.61600
7.62000
7.62400
7.62800
7.63200
7.63600
7.64000
7.64400
7.64800
7.65200
7.65600
7.66000
7.66400
7.66800
7.67200
7.67600
7.68000
7.68400
7.68800
7.69200
7.69600
7.70000
7.70400
7.70800
7.71200
7.71600
7.72000
7.72400
7.72800
7.73200
7.73600
7.74000
7.74400
7.74800
7.75200
7.75600
7.76000
7.76400
7.76800
7.77200
7.77600
7.78000
7.78400
7.78800
7.79200
7.79600
7.80000
7.80400
7.80800
7.81200
7.81600
7.82000
7.82400
7.82800
7.83200
7.83600
7.84000
7.84400
7.84800
7.85200
7.85600
7.86000
7.86400
7.86800
7.87200
7.87600
7.88000
7.88400
7.88800
7.89200
7.89600
7.90000
7.90400
7.90800
7.91200
7.91600
7.92000
7.92400
7.92800
7.93200
7.93600
7.94000
7.94400
7.94800
7.95200
7.95600
7.96000
7.96400
7.96800
7.97200
7.97600
7.98000
7.98400
7.98800
7.99200
7.99600
8.00000
8.00400
8.00800
8.01200
8.01600
8.02000
8.02400
8.02800
8.03200
8.03600
8.04000
8.04400
8.04800
8.05200
8.05600
8.06000
8.06400
8.06800
8.07200
8.07600
8.08000
8.08400
8.08800
8.09200
8.09600
8.10000
8.10400
8.10800
8.11200
8.11600
8.12000
8.12400
8.12800
8.13200
8.13600
8.14000
8.14400
8.14800
8.15200
8.15600
8.16000
8.16400
8.16800
8.17200
8.17600
8.18000
8.18400
8.18800
8.19200
8.19600
8.20000
8.20400
8.20800
8.21200
8.21600
8.22000
8.22400
8.22800
8.23200
8.23600
8.24000
8.24400
8.24800
8.25200
8.25600
8.26000
8.26400
8.26800
8.27200
8.27600
8.28000
8.28400
8.28800
8.29200
8.29600
8.30000
8.30400
8.30800
8.31200
8.31600
8.32000
8.32400
8.32800
8.33200
8.33600
8.34000
8.34400
8.34800
8.35200
8.35600
8.36000
8.36400
8.36800
8.37200
8.37600
8.38000
8.38400
8.38800
8.39200
8.39600
8.40000
8.40400
8.40800
8.41200
8.41600
8.42000
8.42400
8.42800
8.43200
8.43600
8.44000
8.44400
8.44800
8.45200
8.45600
8.46000
8.46400
8.46800
8.47200
8.47600
8.48000
8.48400
8.48800
8.49200
8.49600
8.50000
8.50400
8.50800
8.51200
8.51600
8.52000
8.52400
8.52800
8.53200
8.53600
8.54000
8.54400
8.54800
8.55200
8.55600
8.56000
8.56400
8.56800
8.57200
8.57600
8.58000
8.58400
8.58800
8.59200
8.59600
8.60000
8.60400
8.60800
8.61200
8.61600
8.62000
8.62400
8.62800
8.63200
8.63600
8.64000
8.64400
8.64800
8.65200
8.65600
8.66000
8.66400
8.66800
8.67200
8.67600
8.68000
8.68400
8.68800
8.69200
8.69600
8.70000
8.70400
8.70800
8.71200
8.71600
8.72000
8.72400
8.72800
8.73200
8.73600
8.74000
8.74400
8.74800
8.75200
8.75600
8.76000
8.76400
8.76800
8.77200
8.77600
8.78000
8.78400
8.78800
8.79200
8.79600
8.80000
8.80400
8.80800
8.81200
8.81600
8.82000
8.82400
8.82800
8.83200
8.83600
8.84000
8.84400
8.84800
8.85200
8.85600
8.86000
8.86400
8.86800
8.87200
8.87600
8.88000
8.88400
8.88800
8.89200
8.89600
8.90000
8.90400
8.90800
8.91200
8.91600
8.92000
8.92400
8.92800
8.93200
8.93600
8.94000
8.94400
8.94800
8.95200
8.95600
8.96000
8.96400
8.96800
8.97200
8.97600
8.98000
8.98400
8.98800
8.99200
8.99600
9.00000
9.00400
9.00800
9.01200
9.01600
9.02000
9.02400
9.02800
9.03200
9.03600
9.04000
9.04400
9.04800
9.05200
9.05600
9.06000
9.06400
9.06800
9.07200
9.07600
9.08000
9.08400
9.08800
9.09200
9.09600
9.10000
9.10400
9.10800
9.11200
9.11600
9.12000
9.12400
9.12800
9.13200
9.13600
9.14000
9.14400
9.14800
9.15200
9.15600
9.16000
9.16400
9.16800
9.17200
9.17600
9.18000
9.18400
9.18800
9.19200
9.19600
9.20000
9.20400
9.20800
9.21200
9.21600
9.22000
9.22400
9.22800
9.23200
9.23600
9.24000
9.24400
9.24800
9.25200
9.25600
9.26000
9.26400
9.26800
9.27200
9.27600
9.28000
9.28400
9.28800
9.29200
9.29600
9.30000
9.30400
9.30800
9.31200
9.31600
9.32000
9.32400
9.32800
9.33200
9.33600
9.34000
9.34400
9.34800
9.35200
9.35600
9.36000
9.36400
9.36800
9.37200
9.37600
9.38000
9.38400
9.38800
9.39200
9.39600
9.40000
9.40400
9.40800
9.41200
9.41600
9.42000
9.42400
9.42800
9.43200
9.43600
9.44000
9.44400
9.44800
9.45200
9.45600
9.46000
9.46400
9.46800
9.47200
9.47600
9.48000
9.48400
9.48800
9.49200
9.49600
9.50000
9.50400
9.50800
9.51200
9.51600
9.52000
9.52400
9.52800
9.53200
9.53600
9.54000
9.54400
9.54800
9.55200
9.55600
9.56000
9.56400
9.56800
9.57200
9.57600
9.58000
9.58400
9.58800
9.59200
9.59600
9.60000
9.60400
9.60800
9.61200
9.61600
9.62000
9.62400
9.62800
9.63200
9.63600
9.64000
9.64400
9.64800
9.65200
9.65600
9.66000
9.66400
9.66800
9.67200
9.67600
9.68000
9.68400
9.68800
9.69200
9.69600
9.70000
9.70400
9.70800
9.71200
9.71600
9.72000
9.72400
9.72800
9.73200
9.73600
9.74000
9.74400
9.74800
9.75200
9.75600
9.76000
9.76400
9.76800
9.77200
9.77600
9.78000
9.78400
9.78800
9.79200
9.79600
9.80000
9.80400
9.80800
9.81200
9.81600
9.82000
9.82400
9.82800
9.83200
9.83600
9.84000
9.84400
9.84800
9.85200
9.85600
9.86000
9.86400
9.86800
9.87200
9.87600
9.88000
9.88400
9.88800
9.89200
9.89600
9.90000
9.90400
9.90800
9.91200
9.91600
9.92000
9.92400
9.92800
9.93200
9.93600
9.94000
9.94400
9.94800
9.95200
9.95600
9.96000
9.96400
9.96800
9.97200
9.97600
9.98000
9.98400
9.98800
9.99200
9.99600
10.00000
10.00400
10.00800
10.01200
10.01600
10.02000
10.02400
10.02800
10.03200
10.03600
10.04000
10.04400
10.04800
10.05200
10.05600
10.06000
10.06400
10.06800
10.07200
10.07600
10.08000
10.08400
10.08800
10.09200
10.09600
10.10000
10.10400
10.10800
10.11200
10.11600
10.12000
10.12400
10.12800
10.13200
10.13600
10.14000
10.14400
10.14800
10.15200
10.15600
10.16000
10.16400
10.16800
10.17200
10.17600
10.18000
10.18400
10.18800
10.19200
10.19600
10.20000
10.20400
10.20800
10.21200
10.21600
10.22000
10.22400
10.22800
10.23200
10.23600
10.24000
10.24400
10.24800
10.25200
10.25600
10.26000
10.26400
10.26800
10.27200
10.27600
10.28000
10.28400
10.28800
10.29200
10.29600
10.30000
10.30400
10.30800
10.31200
10.31600
10.32000
10.32400
10.32800
10.33200
10.33600
10.34000
10.34400
10.34800
10.35200
10.35600
10.36000
10.36400
10.36800
10.37200
10.37600
10.38000
10.38400
10.38800
10.39200
10.39600
10.40000
10.40400
10.40800
10.41200
10.41600
10.42000
10.42400
10.42800
10.43200
10.43600
10.44000
10.44400
10.44800
10.45200
10.45600
10.46000
10.46400
10.46800
10.47200
10.47600
10.48000
10.48400
10.48800
10.49200
10.49600
10.50000
10.50400
10.50800
10.51200
10.51600
10.52000
10.52400
10.52800
10.53200
10.53600
10.54000
10.54400
10.54800
10.55200
10.55600
10.56000
10.56400
10.56800
10.57200
10.57600
10.58000
10.58400
10.58800
10.59200
10.59600
10.60000
10.60400
10.60800
10.61200
10.61600
10.62000
10.62400
10.62800
10.63200
10.63600
10.64000
10.64400
10.64800
10.65200
10.65600
10.66000
10.66400
10.66800
10.67200
10.67600
10.68000
10.68400
10.68800
10.69200
10.69600
10.70000
10.70400
10.70800
10.71200
10.71600
10.72000
10.72400
10.72800
10.73200
10.73600
10.74000
10.74400
10.74800
10.75200
10.75600
10.76000
10.76400
10.76800
10.77200
10.77600
10.78000
10.78400
10.78800
10.79200
10.79600
10.80000
10.80400
10.80800
10.81200
10.81600
10.82000
10.82400
10.82800
10.83200
10.83600
10.84000
10.84400
10.84800
10.85200
10.85600
10.86000
10.86400
10.86800
10.87200
10.87600
10.88000
10.88400
10.88800
10.89200
10.89600
10.90000
10.90400
10.90800
10.91200
10.91600
10.92000
10.92400
10.92800
10.93200
10.93600
10.94000
10.94400
10.94800
10.95200
10.95600
10.96000
10.96400
10.96800
10.97200
10.97600
10.98000
10.98400
10.98800
10.99200
10.99600
11.00000
11.00400
11.00800
11.01200
11.01600
11.02000
11.02400
11.02800
11.03200
11.03600
11.04000
11.04400
11.04800
11.05200
11.05600
11.06000
11.06400
11.06800
11.07200
11.07600
11.08000
11.08400
11.08800
11.09200
11.09600
11.10000
11.10400
11.10800
11.11200
11.11600
11.12000
11.12400
11.12800
11.13200
11.13600
11.14000
11.14400
11.14800
11.15200
11.15600
11.16000
11.16400
11.16800
11.17200
11.17600
11.18000
11.18400
11.18800
11.19200
11.19600
11.20000
11.20400
11.20800
11.21200
11.21600
11.22000
11.22400
11.22800
11.23200
11.23600
11.24000
11.24400
11.24800
11.25200
11.25600
11.26000
11.26400
11.26800
11.27200
11.27600
11.28000
11.28400
11.28800
11.29200
11.29600
11.30000
11.30400
11.30800
11.31200
11.31600
11.32000
11.32400
11.32800
11.33200
11.33600
11.34000
11.34400
11.34800
11.35200
11.35600
11.36000
11.36400
11.36800
11.37200
11.37600
11.38000
11.38400
11.38800
11.39200
11.39600
11.40000
11.40400
11.40800
11.41200
11.41600
11.42000
11.42400
11.42800
11.43200
11.43600
11.44000
11.44400
11.44800
11.45200
11.45600
11.46000
11.46400
11.46800
11.47200
11.47600
11.48000
11.48400
11.48800
11.49200
11.49600
11.50000
11.50400
11.50800
11.51200
11.51600
11.52000
11.52400
11.52800
11.53200
11.53600
11.54000
11.54400
11.54800
11.55200
11.55600
11.56000
11.56400
11.56800
11.57200
11.57600
11.58000
11.58400
11.58800
11.59200
11.59600
11.60000
11.60400
11.60800
11.61200
11.61600
11.62000
11.62400
11.62800
11.63200
11.63600
11.64000
11.64400
11.64800
11.65200
11.65600
11.66000
11.66400
11.66800
11.67200
11.67600
11.68000
11.68400
11.68800
11.69200
11.69600
11.70000
11.70400
11.70800
11.71200
11.71600
11.72000
11.72400
11.72800
11.73200
11.73600
11.74000
11.74400
11.74800
11.75200
11.75600
11.76000
11.76400
11.76800
11.77200
11.77600
11.78000
11.78400
11.78800
11.79200
11.79600
11.80000
11.80400
11.80800
11.81200
11.81600
11.82000
11.82400
11.82800
11.83200
11.83600
11.84000
11.84400
11.84800
11.85200
11.85600
11.86000
11.86400
11.86800
11.87200
11.87600
11.88000
11.88400
11.88800
11.89200
11.89600
11.90000
11.90400
11.90800
11.91200
11.91600
11.92000
11.92400
11.92800
11.93200
11.93600
11.94000
11.94400
11.94800
11.95200
11.95600
11.96000
11.96400
11.96800
11.97200
11.97600
11.98000
11.98400
11.98800
11.99200
11.99600
12.00000
12.00400
12.00800
12.01200
12.01600
12.02000
12.02400
12.02800
12.03200
12.03600
12.04000
12.04400
12.04800
12.05200
12.05600
12.06000
12.06400
12.06800
12.07200
12.07600
12.08000
12.08400
12.08800
12.09200
12.09600
12.10000
12.10400
12.10800
12.11200
12.11600
12.12000
12.12400
12.12800
12.13200
12.13600
12.14000
12.14400
12.14800
12.15200
12.15600
12.16000
12.16400
12.16800
12.17200
12.17600
12.18000
12.18400
12.18800
12.19200
12.19600
12.20000
12.20400
12.20800
12.21200
12.21600
12.22000
12.22400
12.22800
12.23200
12.23600
12.24000
12.24400
12.24800
12.25200
12.25600
12.26000
12.26400
12.26800
12.27200
12.27600
12.28000
12.28400
12.28800
12.29200
12.29600
12.30000
12.30400
12.30800
12.31200
12.31600
12.32000
12.32400
12.32800
12.33200
12.33600
12.34000
12.34400
12.34800
12.35200
12.35600
12.36000
12.36400
12.36800
12.37200
12.37600
12.38000
12.38400
12.38800
12.39200
12.39600
12.40000
12.40400
12.40800
12.41200
12.41600
12.42000
12.42400
12.42800
12.43200
12.43600
12.44000
12.44400
12.44800
12.45200
12.45600
12.46000
12.46400
12.46800
12.47200
12.47600
12.48000
12.48400
12.48800
12.49200
12.49600
12.50000
12.50400
12.50800
12.51200
12.51600
12.52000
12.52400
12.52800
12.53200
12.53600
12.54000
12.54400
12.54800
12.55200
12.55600
12.56000
12.56400
12.56800
12.57200
12.57600
12.58000
12.58400
12.58800
12.59200
12.59600
12.60000
12.60400
12.60800
12.61200
12.61600
12.62000
12.62400
12.62800
12.63200
12.63600
12.64000
12.64400
12.64800
12.65200
12.65600
12.66000
12.66400
12.66800
12.67200
12.67600
12.68000
12.68400
12.68800
12.69200
12.69600
12.70000
12.70400
12.70800
12.71200
12.71600
12.72000
12.72400
12.72800
12.73200
12.73600
12.74000
12.74400
12.74800
12.75200
12.75600
12.76000
12.76400
12.76800
12.77200
12.77600
12.78000
12.78400
12.78800
12.79200
12.79600
12.80000
12.80400
12.80800
12.81200
12.81600
12.82000
12.82400
12.82800
12.83200
12.83600
12.84000
12.84400
12.84800
12.85200
12.85600
12.86000
12.86400
12.86800
12.87200
12.87600
12.88000
12.88400
12.88800
12.89200
12.89600
12.90000
12.90400
12.90800
12.91200
12.91600
12.92000
12.92400
12.92800
12.93200
12.93600
12.94000
12.94400
12.94800
12.95200
12.95600
12.96000
12.96400
12.96800
12.97200
12.97600
12.98000
12.98400
12.98800
12.99200
12.99600
13.00000
13.00400
13.00800
13.01200
13.01600
13.02000
13.02400
13.02800
13.03200
13.03600
13.04000
13.04400
13.04800
13.05200
13.05600
13.06000
13.06400
13.06800
13.07200
13.07600
13.08000
13.08400
13.08800
13.09200
13.09600
13.10000
13.10400
13.10800
13.11200
13.11600
13.12000
13.12400
13.12800
13.13200
13.13600
13.14000
13.14400
13.14800
13.15200
13.15600
13.16000
13.16400
13.16800
13.17200
13.17600
13.18000
13.18400
13.18800
13.19200
13.19600
13.20000
13.20400
13.20800
13.21200
13.21600
13.22000
13.22400
13.22800
13.23200
13.23600
13.24000
13.24400
13.24800
13.25200
13.25600
13.26000
13.26400
13.26800
13.27200
13.27600
13.28000
13.28400
13.28800
13.29200
13.29600
13.30000
13.30400
13.30800
13.31200
13.31600
13.32000
13.32400
13.32800
13.33200
13.33600
13.34000
13.34400
13.34800
13.35200
13.35600
13.36000
13.36400
13.36800
13.37200
13.37600
13.38000
13.38400
13.38800
13.39200
13.39600
13.40000
13.40400
13.40800
13.41200
13.41600
13.42000
13.42400
13.42800
13.43200
13.43600
13.44000
13.44400
13.44800
13.45200
13.45600
13.46000
13.46400
13.46800
13.47200
13.47600
13.48000
13.48400
13.48800
13.49200
13.49600
13.50000
13.50400
13.50800
13.51200
13.51600
13.52000
13.52400
13.52800
13.53200
13.53600
13.54000
13.54400
13.54800
13.55200
13.55600
13.56000
13.56400
13.56800
13.57200
13.57600
13.58000
13.58400
13.58800
13.59200
13.59600
13.60000
13.60400
13.60800
13.61200
13.61600
13.62000
13.62400
13.62800
13.63200
13.63600
13.64000
13.64400
13.64800
13.65200
13.65600
13.66000
13.66400
13.66800
13.67200
13.67600
13.68000
13.68400
13.68800
13.69200
13.69600
13.70000
13.70400
13.70800
13.71200
13.71600
13.72000
13.72400
13.72800
13.73200
13.73600
13.74000
13.74400
13.74800
13.75200
13.75600
13.76000
13.76400
13.76800
13.77200
13.77600
13.78000
13.78400
13.78800
13.79200
13.79600
13.80000
13.80400
13.80800
13.81200
13.81600
13.82000
13.82400
13.82800
13.83200
13.83600
13.84000
13.84400
13.84800
13.85200
13.85600
13.86000
13.86400
13.86800
13.87200
13.87600
13.88000
13.88400
13.88800
13.89200
13.89600
13.90000
13.90400
13.90800
13.91200
13.91600
13.92000
13.92400
13.92800
13.93200
13.93600
13.94000
13.94400
13.94800
13.95200
13.95600
13.96000
13.96400
13.96800
13.97200
13.97600
13.98000
13.98400
13.98800
13.99200
13.99600
14.00000
14.00400
14.00800
14.01200
14.01600
14.02000
14.02400
14.02800
14.03200
14.03600
14.04000
14.04400
14.04800
14.05200
14.05600
14.06000
14.06400
14.06800
14.07200
14.07600
14.08000
14.08400
14.08800
14.09200
14.09600
14.10000
14.10400
14.10800
14.11200
14.11600
14.12000
14.12400
14.12800
14.13200
14.13600
14.14000
14.14400
14.14800
14.15200
14.15600
14.16000
14.16400
14.16800
14.17200
14.17600
14.18000
14.18400
14.18800
14.19200
14.19600
14.20000
14.20400
14.20800
14.21200
14.21600
14.22000
14.22400
14.22800
14.23200
14.23600
14.24000
14.24400
14.24800
14.25200
14.25600
14.26000
14.26400
14.26800
14.27200
14.27600
14.28000
14.28400
14.28800
14.29200
14.29600
14.30000
14.30400
14.30800
14.31200
14.31600
14.32000
14.32400
14.32800
14.33200
14.33600
14.34000
14.34400
14.34800
14.35200
14.35600
14.36000
14.36400
14.36800
14.37200
14.37600
14.38000
14.38400
14.38800
14.39200
14.39600
14.40000
14.40400
14.40800
14.41200
14.41600
14.42000
14.42400
14.42800
14.43200
14.43600
14.44000
14.44400
14.44800
14.45200
14.45600
14.46000
14.46400
14.46800
14.47200
14.47600
14.48000
14.48400
14.48800
14.49200
14.49600
14.50000
14.50400
14.50800
14.51200
14.51600
14.52000
14.52400
14.52800
14.53200
14.53600
14.54000
14.54400
14.54800
14.55200
14.55600
14.56000
14.56400
14.56800
14.57200
14.57600
14.58000
14.58400
14.58800
14.59200
14.59600
14.60000
14.60400
14.60800
14.61200
14.61600
14.62000
14.62400
14.62800
14.63200
14.63600
14.64000
14.64400
14.64800
14.65200
14.65600
14.66000
14.66400
14.66800
14.67200
14.67600
14.68000
14.68400
14.68800
14.69200
14.69600
14.70000
14.70400
14.70800
14.71200
14.71600
14.72000
14.72400
14.72800
14.73200
14.73600
14.74000
14.74400
14.74800
14.75200
14.75600
14.76000
14.76400
14.76800
14.77200
14.77600
14.78000
14.78400
14.78800
14.79200
14.79600
14.80000
14.80400
14.80800
14.81200
14.81600
14.82000
14.82400
14.82800
14.83200
14.83600
14.84000
14.84400
14.84800
14.85200
14.85600
14.86000
14.86400
14.86800
14.87200
14.87600
14.88000
14.88400
14.88800
14.89200
14.89600
14.90000
14.90400
14.90800
14.91200
14.91600
14.92000
14.92400
14.92800
14.93200
14.93600
14.94000
14.94400
14.94800
14.95200
14.95600
14.96000
14.96400
14.96800
14.97200
14.97600
14.98000
14.98400
14.98800
14.99200
14.99600
15.00000
15.00400
15.00800
15.01200
15.01600
15.02000
15.02400
15.02800
15.03200
15.03600
15.04000
15.04400
15.04800
15.05200
15.05600
15.06000
15.06400
15.06800
15.07200
15.07600
15.08000
15.08400
15.08800
15.09200
15.09600
15.10000
15.10400
15.10800
15.11200
15.11600
15.12000
15.12400
15.12800
15.13200
15.13600
15.14000
15.14400
15.14800
15.15200
15.15600
15.16000
15.16400
15.16800
15.17200
15.17600
15.18000
15.18400
15.18800
15.19200
15.19600
15.20000
15.20400
15.20800
15.21200
15.21600
15.22000
15.22400
15.22800
15.23200
15.23600
15.24000
15.24400
15.24800
15.25200
15.25600
15.26000
15.26400
15.26800
15.27200
15.27600
15.28000
15.28400
15.28800
15.29200
15.29600
15.30000
15.30400
15.30800
15.31200
15.31600
15.32000
15.32400
15.32800
15.33200
15.33600
15.34000
15.34400
15.34800
15.35200
15.35600
15.36000
15.36400
15.36800
15.37200
15.37600
15.38000
15.38400
15.38800
15.39200
15.39600
15.40000
15.40400
15.40800
15.41200
15.41600
15.42000
15.42400
15.42800
15.43200
15.43600
15.44000
15.44400
15.44800
15.45200
15.45600
15.46000
15.46400
15.46800
15.47200
15.47600
15.48000
15.48400
15.48800
15.49200
15.49600
15.50000
15.50400
15.50800
15.51200
15.51600
15.52000
15.52400
15.52800
15.53200
15.53600
15.54000
15.54400
15.54800
15.55200
15.55600
15.56000
15.56400
15.56800
15.57200
15.57600
15.58000
15.58400
15.58800
15.59200
15.59600
15.60000
15.60400
15.60800
15.61200
15.61600
15.62000
15.62400
15.62800
15.63200
15.63600
15.64000
15.64400
15.64800
15.65200
15.65600
15.66000
15.66400
15.66800
15.67200
15.67600
15.68000
15.68400
15.68800
15.69200
15.69600
15.70000
15.70400
15.70800
15.71200
15.71600
15.72000
15.72400
15.72800
15.73200
15.73600
15.74000
15.74400
15.74800
15.75200
15.75600
15.76000
15.76400
15.76800
15.77200
15.77600
15.78000
15.78400
15.78800
15.79200
15.79600
15.80000
15.80400
15.80800
15.81200
15.81600
15.82000
15.82400
15.82800
15.83200
15.83600
15.84000
15.84400
15.84800
15.85200
15.85600
15.86000
15.86400
15.86800
15.87200
15.87600
15.88000
15.88400
15.88800
15.89200
15.89600
15.90000
15.90400
15.90800
15.91200
15.91600
15.92000
15.92400
15.92800
15.93200
15.93600
15.94000
15.94400
15.94800
15.95200
15.95600
15.96000
15.96400
15.96800
15.97200
15.97600
15.98000
15.98400
15.98800
15.99200
15.99600
16.00000
16.00400
16.00800
16.01200
16.01600
16.02000
16.02400
16.02800
16.03200
16.03600
16.04000
16.04400
16.04800
16.05200
16.05600
16.06000
16.06400
16.06800
16.07200
16.07600
16.08000
16.08400
16.08800
16.09200
16.09600
16.10000
16.10400
16.10800
16.11200
16.11600
16.12000
16.12400
16.12800
16.13200
16.13600
16.14000
16.14400
16.14800
16.15200
16.15600
16.16000
16.16400
16.16800
16.17200
16.17600
16.18000
16.18400
16.18800
16.19200
16.19600
16.20000
16.20400
16.20800
16.21200
16.21600
16.22000
16.22400
16.22800
16.23200
16.23600
16.24000
16.24400
16.24800
16.25200
16.25600
16.26000
16.26400
16.26800
16.27200
16.27600
16.28000
16.28400
16.28800
16.29200
16.29600
16.30000
16.30400
16.30800
16.31200
16.31600
16.32000
16.32400
16.32800
16.33200
16.33600
16.34000
16.34400
16.34800
16.35200
16.35600
16.36000
16.36400
16.36800
16.37200
16.37600
16.38000
16.38400
16.38800
16.39200
16.39600
16.40000
16.40400
16.40800
16.41200
16.41600
16.42000
16.42400
16.42800
16.43200
16.43600
16.44000
16.44400
16.44800
16.45200
16.45600
16.46000
16.46400
16.46800
16.47200
16.47600
16.48000
16.48400
16.48800
16.49200
16.49600
16.50000
16.50400
16.50800
16.51200
16.51600
16.52000
16.52400
16.52800
16.53200
16.53600
16.54000
16.54400
16.54800
16.55200
16.55600
16.56000
16.56400
16.56800
16.57200
16.57600
16.58000
16.58400
16.58800
16.59200
16.59600
16.60000
16.60400
16.60800
16.61200
16.61600
16.62000
16.62400
16.62800
16.63200
16.63600
16.64000
16.64400
16.64800
16.65200
16.65600
16.66000
16.66400
16.66800
16.67200
16.67600
16.68000
16.68400
16.68800
16.69200
16.69600
16.70000
16.70400
16.70800
16.71200
16.71600
16.72000
16.72400
16.72800
16.73200
16.73600
16.74000
16.74400
16.74800
16.75200
16.75600
16.76000
16.76400
16.76800
16.77200
16.77600
16.78000
16.78400
16.78800
16.79200
16.79600
16.80000
16.80400
16.80800
16.81200
16.81600
16.82000
16.82400
16.82800
16.83200
16.83600
16.84000
16.84400
16.84800
16.85200
16.85600
16.86000
16.86400
16.86800
16.87200
16.87600
16.88000
16.88400
16.88800
16.89200
16.89600
16.90000
16.90400
16.90800
16.91200
16.91600
16.92000
16.92400
16.92800
16.93200
16.93600
16.94000
16.94400
16.94800
16.95200
16.95600
16.96000
16.96400
16.96800
16.97200
16.97600
16.98000
16.98400
16.98800
16.99200
16.99600
17.00000
17.00400
17.00800
17.01200
17.01600
17.02000
17.02400
17.02800
17.03200
17.03600
17.04000
17.04400
17.04800
17.05200
17.05600
17.06000
17.06400
17.06800
17.07200
17.07600
17.08000
17.08400
17.08800
17.09200
17.09600
17.10000
17.10400
17.10800
17.11200
17.11600
17.12000
17.12400
17.12800
17.13200
17.13600
17.14000
17.14400
17.14800
17.15200
17.15600
17.16000
17.16400
17.16800
17.17200
17.17600
17.18000
17.18400
17.18800
17.19200
17.19600
17.20000
17.20400
17.20800
17.21200
17.21600
17.22000
17.22400
17.22800
17.23200
17.23600
17.24000
17.24400
17.24800
17.25200
17.25600
17.26000
17.26400
17.26800
17.27200
17.27600
17.28000
17.28400
17.28800
17.29200
17.29600
17.30000
17.30400
17.30800
17.31200
17.31600
17.32000
17.32400
17.32800
17.33200
17.33600
17.34000
17.34400
17.34800
17.35200
17.35600
17.36000
17.36400
17.36800
17.37200
17.37600
17.38000
17.38400
17.38800
17.39200
17.39600
17.40000
17.40400
17.40800
17.41200
17.41600
17.42000
17.42400
17.42800
17.43200
17.43600
17.44000
17.44400
17.44800
17.45200
17.45600
17.46000
17.46400
17.46800
17.47200
17.47600
17.48000
17.48400
17.48800
17.49200
17.49600
17.50000
17.50400
17.50800
17.51200
17.51600
17.52000
17.52400
17.52800
17.53200
17.53600
17.54000
17.54400
17.54800
17.55200
17.55600
17.56000
17.56400
17.56800
17.57200
17.57600
17.58000
17.58400
17.58800
17.59200
17.59600
17.60000
17.60400
17.60800
17.61200
17.61600
17.62000
17.62400
17.62800
17.63200
17.63600
17.64000
17.64400
17.64800
17.65200
17.65600
17.66000
17.66400
17.66800
17.67200
17.67600
17.68000
17.68400
17.68800
17.69200
17.69600
17.70000
17.70400
17.70800
17.71200
17.71600
17.72000
17.72400
17.72800
17.73200
17.73600
17.74000
17.74400
17.74800
17.75200
17.75600
17.76000
17.76400
17.76800
17.77200
17.77600
17.78000
17.78400
17.78800
17.79200
17.79600
17.80000
17.80400
17.80800
17.81200
17.81600
17.82000
17.82400
17.82800
17.83200
17.83600
17.84000
17.84400
17.84800
17.85200
17.85600
17.86000
17.86400
17.86800
17.87200
17.87600
17.88000
17.88400
17.88800
17.89200
17.89600
17.90000
17.90400
17.90800
17.91200
17.91600
17.92000
17.92400
17.92800
17.93200
17.93600
17.94000
17.94400
17.94800
17.95200
17.95600
17.96000
17.96400
17.96800
17.97200
17.97600
17.98000
17.98400
17.98800
17.99200
17.99600
18.00000
18.00400
18.00800
18.01200
18.01600
18.02000
18.02400
18.02800
18.03200
18.03600
18.04000
18.04400
18.04800
18.05200
18.05600
18.06000
18.06400
18.06800
18.07200
18.07600
18.08000
18.08400
18.08800
18.09200
18.09600
18.10000
18.10400
18.10800
18.11200
18.11600
18.12000
18.12400
18.12800
18.13200
18.13600
18.14000
18.14400
18.14800
18.15200
18.15600
18.16000
18.16400
18.16800
18.17200
18.17600
18.18000
18.18400
18.18800
18.19200
18.19600
18.20000
18.20400
18.20800
18.21200
18.21600
18.22000
18.22400
18.22800
18.23200
18.23600
18.24000
18.24400
18.24800
18.25200
18.25600
18.26000
18.26400
18.26800
18.27200
18.27600
18.28000
18.28400
18.28800
18.29200
18.29600
18.30000
18.30400
18.30800
18.31200
18.31600
18.32000
18.32400
18.32800
18.33200
18.33600
18.34000
18.34400
18.34800
18.35200
18.35600
18.36000
18.36400
18.36800
18.37200
18.37600
18.38000
18.38400
18.38800
18.39200
18.39600
18.40000
18.40400
18.40800
18.41200
18.41600
18.42000
18.42400
18.42800
18.43200
18.43600
18.44000
18.44400
18.44800
18.45200
18.45600
18.46000
18.46400
18.46800
18.47200
18.47600
18.48000
18.48400
18.48800
18.49200
18.49600
18.50000
18.50400
18.50800
18.51200
18.51600
18.52000
18.52400
18.52800
18.53200
18.53600
18.54000
18.54400
18.54800
18.55200
18.55600
18.56000
18.56400
18.56800
18.57200
18.57600
18.58000
18.58400
18.58800
18.59200
18.59600
18.60000
18.60400
18.60800
18.61200
18.61600
18.62000
18.62400
18.62800
18.63200
18.63600
18.64000
18.64400
18.64800
18.65200
18.65600
18.66000
18.66400
18.66800
18.67200
18.67600
18.68000
18.68400
18.68800
18.69200
18.69600
18.70000
18.70400
18.70800
18.71200
18.71600
18.72000
18.72400
18.72800
18.73200
18.73600
18.74000
18.74400
18.74800
18.75200
18.75600
18.76000
18.76400
18.76800
18.77200
18.77600
18.78000
18.78400
18.78800
18.79200
18.79600
18.80000
18.80400
18.80800
18.81200
18.81600
18.82000
18.82400
18.82800
18.83200
18.83600
18.84000
18.84400
18.84800
18.85200
18.85600
18.86000
18.86400
18.86800
18.87200
18.87600
18.88000
18.88400
18.88800
18.89200
18.89600
18.90000
18.90400
18.90800
18.91200
18.91600
18.92000
18.92400
18.92800
18.93200
18.93600
18.94000
18.94400
18.94800
18.95200
18.95600
18.96000
18.96400
18.96800
18.97200
18.97600
18.98000
18.98400
18.98800
18.99200
18.99600
19.00000
19.00400
19.00800
19.01200
19.01600
19.02000
19.02400
19.02800
19.03200
19.03600
19.04000
19.04400
19.04800
19.05200
19.05600
19.06000
19.06400
19.06800
19.07200
19.07600
19.08000
19.08400
19.08800
19.09200
19.09600
19.10000
19.10400
19.10800
19.11200
19.11600
19.12000
19.12400
19.12800
19.13200
19.13600
19.14000
19.14400
19.14800
19.15200
19.15600
19.16000
19.16400
19.16800
19.17200
19.17600
19.18000
19.18400
19.18800
19.19200
19.19600
19.20000
19.20400
19.20800
19.21200
19.21600
19.22000
19.22400
19.22800
19.23200
19.23600
19.24000
19.24400
19.24800
19.25200
19.25600
19.26000
19.26400
19.26800
19.27200
19.27600
19.28000
19.28400
19.28800
19.29200
19.29600
19.30000
19.30400
19.30800
19.31200
19.31600
19.32000
19.32400
19.32800
19.33200
19.33600
19.34000
19.34400
19.34800
19.35200
19.35600
19.36000
19.36400
19.36800
19.37200
19.37600
19.38000
19.38400
19.38800
19.39200
19.39600
19.40000
19.40400
19.40800
19.41200
19.41600
19.42000
19.42400
19.42800
19.43200
19.43600
19.44000
19.44400
19.44800
19.45200
19.45600
19.46000
19.46400
19.46800
19.47200
19.47600
19.48000
19.48400
19.48800
19.49200
19.49600
19.50000
19.50400
19.50800
19.51200
19.51600
19.52000
19.52400
19.52800
19.53200
19.53600
19.54000
19.54400
19.54800
19.55200
19.55600
19.56000
19.56400
19.56800
19.57200
19.57600
19.58000
19.58400
19.58800
19.59200
19.59600
19.60000
19.60400
19.60800
19.61200
19.61600
19.62000
19.62400
19.62800
19.63200
19.63600
19.64000
19.64400
19.64800
19.65200
19.65600
19.66000
19.66400
19.66800
19.67200
19.67600
19.68000
19.68400
19.68800
19.69200
19.69600
19.70000
19.70400
19.70800
19.71200
19.71600
19.72000
19.72400
19.72800
19.73200
19.73600
19.74000
19.74400
19.74800
19.75200
19.75600
19.76000
19.76400
19.76800
19.77200
19.77600
19.78000
19.78400
19.78800
19.79200
19.79600
19.80000
19.80400
19.80800
19.81200
19.81600
19.82000
19.82400
19.82800
19.83200
19.83600
19.84000
19.84400
19.84800
19.85200
19.85600
19.86000
19.86400
19.86800
19.87200
19.87600
19.88000
19.88400
19.88800
19.89200
19.89600
19.90000
19.90400
19.90800
19.91200
19.91600
19.92000
19.92400
19.92800
19.93200
19.93600
19.94000
19.94400
19.94800
19.95200
19.95600
19.96000
19.96400
19.96800
19.97200
19.97600
19.98000
19.98400
19.98800
19.99200
19.99600
20.00000
20.00400
20.00800
20.01200
20.01600
20.02000
20.02400
20.02800
20.03200
20.03600
20.04000
20.04400
20.04800
20.05200
20.05600
20.06000
20.06400
20.06800
20.07200
20.07600
20.08000
20.08400
20.08800
20.09200
20.09600
20.10000
20.10400
20.10800
20.11200
20.11600
20.12000
20.12400
20.12800
20.13200
20.13600
20.14000
20.14400
20.14800
20.15200
20.15600
20.16000
20.16400
20.16800
20.17200
20.17600
20.18000
20.18400
20.18800
20.19200
20.19600
20.20000
20.20400
20.20800
20.21200
20.21600
20.22000
20.22400
20.22800
20.23200
20.23600
20.24000
20.24400
20.24800
20.25200
20.25600
20.26000
20.26400
20.26800
20.27200
20.27600
20.28000
20.28400
20.28800
20.29200
20.29600
20.30000
20.30400
20.30800
20.31200
20.31600
20.32000
20.32400
20.32800
20.33200
20.33600
20.34000
20.34400
20.34800
20.35200
20.35600
20.36000
20.36400
20.36800
20.37200
20.37600
20.38000
20.38400
20.38800
20.39200
20.39600
20.40000
20.40400
20.40800
20.41200
20.41600
20.42000
20.42400
20.42800
20.43200
20.43600
20.44000
20.44400
20.44800
20.45200
20.45600
20.46000
20.46400
20.46800
20.47200
20.47600
20.48000
20.48400
20.48800
20.49200
20.49600
20.50000
20.50400
20.50800
20.51200
20.51600
20.52000
20.52400
20.52800
20.53200
20.53600
20.54000
20.54400
20.54800
20.55200
20.55600
20.56000
20.56400
20.56800
20.57200
20.57600
20.58000
20.58400
20.58800
20.59200
20.59600
20.60000
20.60400
20.60800
20.61200
20.61600
20.62000
20.62400
20.62800
20.63200
20.63600
20.64000
20.64400
20.64800
20.65200
20.65600
20.66000
20.66400
20.66800
20.67200
20.67600
20.68000
20.68400
20.68800
20.69200
20.69600
20.70000
20.70400
20.70800
20.71200
20.71600
20.72000
20.72400
20.72800
20.73200
20.73600
20.74000
20.74400
20.74800
20.75200
20.75600
20.76000
20.76400
20.76800
20.77200
20.77600
20.78000
20.78400
20.78800
20.79200
20.79600
20.80000
20.80400
20.80800
20.81200
20.81600
20.82000
20.82400
20.82800
20.83200
20.83600
20.84000
20.84400
20.84800
20.85200
20.85600
20.86000
20.86400
20.86800
20.87200
20.87600
20.88000
20.88400
20.88800
20.89200
20.89600
20.90000
20.90400
20.90800
20.91200
20.91600
20.92000
20.92400
20.92800
20.93200
20.93600
20.94000
20.94400
20.94800
20.95200
20.95600
20.96000
20.96400
20.96800
20.97200
20.97600
20.98000
20.98400
20.98800
20.99200
20.99600
21.00000
21.00400
21.00800
21.01200
21.01600
21.02000
21.02400
21.02800
21.03200
21.03600
21.04000
21.04400
21.04800
21.05200
21.05600
21.06000
21.06400
21.06800
21.07200
21.07600
21.08000
21.08400
21.08800
21.09200
21.09600
21.10000
21.10400
21.10800
21.11200
21.11600
21.12000
21.12400
21.12800
21.13200
21.13600
21.14000
21.14400
21.14800
21.15200
21.15600
21.16000
21.16400
21.16800
21.17200
21.17600
21.18000
21.18400
21.18800
21.19200
21.19600
21.20000
21.20400
21.20800
21.21200
21.21600
21.22000
21.22400
21.22800
21.23200
21.23600
21.24000
21.24400
21.24800
21.25200
21.25600
21.26000
21.26400
21.26800
21.27200
21.27600
21.28000
21.28400
21.28800
21.29200
21.29600
21.30000
21.30400
21.30800
21.31200
21.31600
21.32000
21.32400
21.32800
21.33200
21.33600
21.34000
21.34400
21.34800
21.35200
21.35600
21.36000
21.36400
21.36800
21.37200
21.37600
21.38000
21.38400
21.38800
21.39200
21.39600
21.40000
21.40400
21.40800
21.41200
21.41600
21.42000
21.42400
21.42800
21.43200
21.43600
21.44000
21.44400
21.44800
21.45200
21.45600
21.46000
21.46400
21.46800
21.47200
21.47600
21.48000
21.48400
21.48800
21.49200
21.49600
21.50000
21.50400
21.50800
21.51200
21.51600
21.52000
21.52400
21.52800
21.53200
21.53600
21.54000
21.54400
21.54800
21.55200
21.55600
21.56000
21.56400
21.56800
21.57200
21.57600
21.58000
21.58400
21.58800
21.59200
21.59600
21.60000
21.60400
21.60800
21.61200
21.61600
21.62000
21.62400
21.62800
21.63200
21.63600
21.64000
21.64400
21.64800
21.65200
21.65600
21.66000
21.66400
21.66800
21.67200
21.67600
21.68000
21.68400
21.68800
21.69200
21.69600
21.70000
21.70400
21.70800
21.71200
21.71600
21.72000
21.72400
21.72800
21.73200
21.73600
21.74000
21.74400
21.74800
21.75200
21.75600
21.76000
21.76400
21.76800
21.77200
21.77600
21.78000
21.78400
21.78800
21.79200
21.79600
21.80000
21.80400
21.80800
21.81200
21.81600
21.82000
21.82400
21.82800
21.83200
21.83600
21.84000
21.84400
21.84800
21.85200
21.85600
21.86000
21.86400
21.86800
21.87200
21.87600
21.88000
21.88400
21.88800
21.89200
21.89600
21.90000
21.90400
21.90800
21.91200
21.91600
21.92000
21.92400
21.92800
21.93200
21.93600
21.94000
21.94400
21.94800
21.95200
21.95600
21.96000
21.96400
21.96800
21.97200
21.97600
21.98000
21.98400
21.98800
21.99200
21.99600
22.00000
22.00400
22.00800
22.01200
22.01600
22.02000
22.02400
22.02800
22.03200
22.03600
22.04000
22.04400
22.04800
22.05200
22.05600
22.06000
22.06400
22.06800
22.07200
22.07600
22.08000
22.08400
22.08800
22.09200
22.09600
22.10000
22.10400
22.10800
22.11200
22.11600
22.12000
22.12400
22.12800
22.13200
22.13600
22.14000
22.14400
22.14800
22.15200
22.15600
22.16000
22.16400
22.16800
22.17200
22.17600
22.18000
22.18400
22.18800
22.19200
22.19600
22.20000
22.20400
22.20800
22.21200
22.21600
22.22000
22.22400
22.22800
22.23200
22.23600
22.24000
22.24400
22.24800
22.25200
22.25600
22.26000
22.26400
22.26800
22.27200
22.27600
22.28000
22.28400
22.28800
22.29200
22.29600
22.30000
22.30400
22.30800
22.31200
22.31600
22.32000
22.32400
22.32800
22.33200
22.33600
22.34000
22.34400
22.34800
22.35200
22.35600
22.36000
22.36400
22.36800
22.37200
22.37600
22.38000
22.38400
22.38800
22.39200
22.39600
22.40000
22.40400
22.40800
22.41200
22.41600
22.42000
22.42400
22.42800
22.43200
22.43600
22.44000
22.44400
22.44800
22.45200
22.45600
22.46000
22.46400
22.46800
22.47200
22.47600
22.48000
22.48400
22.48800
22.49200
22.49600
22.50000
22.50400
22.50800
22.51200
22.51600
22.52000
22.52400
22.52800
22.53200
22.53600
22.54000
22.54400
22.54800
22.55200
22.55600
22.56000
22.56400
22.56800
22.57200
22.57600
22.58000
22.58400
22.58800
22.59200
22.59600
22.60000
22.60400
22.60800
22.61200
22.61600
22.62000
22.62400
22.62800
22.63200
22.63600
22.64000
22.64400
22.64800
22.65200
22.65600
22.66000
22.66400
22.66800
22.67200
22.67600
22.68000
22.68400
22.68800
22.69200
22.69600
22.70000
22.70400
22.70800
22.71200
22.71600
22.72000
22.72400
22.72800
22.73200
22.73600
22.74000
22.74400
22.74800
22.75200
22.75600
22.76000
22.76400
22.76800
22.77200
22.77600
22.78000
22.78400
22.78800
22.79200
22.79600
22.80000
22.80400
22.80800
22.81200
22.81600
22.82000
22.82400
22.82800
22.83200
22.83600
22.84000
22.84400
22.84800
22.85200
22.85600
22.86000
22.86400
22.86800
22.87200
22.87600
22.88000
22.88400
22.88800
22.89200
22.89600
22.90000
22.90400
22.90800
22.91200
22.91600
22.92000
22.92400
22.92800
22.93200
22.93600
22.94000
22.94400
22.94800
22.95200
22.95600
22.96000
22.96400
22.96800
22.97200
22.97600
22.98000
22.98400
22.98800
22.99200
22.99600
23.00000
23.00400
23.00800
23.01200
23.01600
23.02000
23.02400
23.02800
23.03200
23.03600
23.04000
23.04400
23.04800
23.05200
23.05600
23.06000
23.06400
23.06800
23.07200
23.07600
23.08000
23.08400
23.08800
23.09200
23.09600
23.10000
23.10400
23.10800
23.11200
23.11600
23.12000
23.12400
23.12800
23.13200
23.13600
23.14000
23.14400
23.14800
23.15200
23.15600
23.16000
23.16400
23.16800
23.17200
23.17600
23.18000
23.18400
23.18800
23.19200
23.19600
23.20000
23.20400
23.20800
23.21200
23.21600
23.22000
23.22400
23.22800
23.23200
23.23600
23.24000
23.24400
23.24800
23.25200
23.25600
23.26000
23.26400
23.26800
23.27200
23.27600
23.28000
23.28400
23.28800
23.29200
23.29600
23.30000
23.30400
23.30800
23.31200
23.31600
23.32000
23.32400
23.32800
23.33200
23.33600
23.34000
23.34400
23.34800
23.35200
23.35600
23.36000
23.36400
23.36800
23.37200
23.37600
23.38000
23.38400
23.38800
23.39200
23.39600
23.40000
23.40400
23.40800
23.41200
23.41600
23.42000
23.42400
23.42800
23.43200
23.43600
23.44000
23.44400
23.44800
23.45200
23.45600
23.46000
23.46400
23.46800
23.47200
23.47600
23.48000
23.48400
23.48800
23.49200
23.49600
23.50000
23.50400
23.50800
23.51200
23.51600
23.52000
23.52400
23.52800
23.53200
23.53600
23.54000
23.54400
23.54800
23.55200
23.55600
23.56000
23.56400
23.56800
23.57200
23.57600
23.58000
23.58400
23.58800
23.59200
23.59600
23.60000
23.60400
23.60800
23.61200
23.61600
23.62000
23.62400
23.62800
23.63200
23.63600
23.64000
23.64400
23.64800
23.65200
23.65600
23.66000
23.66400
23.66800
23.67200
23.67600
23.68000
23.68400
23.68800
23.69200
23.69600
23.70000
23.70400
23.70800
23.71200
23.71600
23.72000
23.72400
23.72800
23.73200
23.73600
23.74000
23.74400
23.74800
23.75200
23.75600
23.76000
23.76400
23.76800
23.77200
23.77600
23.78000
23.78400
23.78800
23.79200
23.79600
23.80000
23.80400
23.80800
23.81200
23.81600
23.82000
23.82400
23.82800
23.83200
23.83600
23.84000
23.84400
23.84800
23.85200
23.85600
23.86000
23.86400
23.86800
23.87200
23.87600
23.88000
23.88400
23.88800
23.89200
23.89600
23.90000
23.90400
23.90800
23.91200
23.91600
23.92000
23.92400
23.92800
23.93200
23.93600
23.94000
23.94400
23.94800
23.95200
23.95600
23.96000
23.96400
23.96800
23.97200
23.97600
23.98000
23.98400
23.98800
23.99200
23.99600
24.00000
24.00400
24.00800
24.01200
24.01600
24.02000
24.02400
24.02800
24.03200
24.03600
24.04000
24.04400
24.04800
24.05200
24.05600
24.06000
24.06400
24.06800
24.07200
24.07600
24.08000
24.08400
24.08800
24.09200
24.09600
24.10000
24.10400
24.10800
24.11200
24.11600
24.12000
24.12400
24.12800
24.13200
24.13600
24.14000
24.14400
24.14800
24.15200
24.15600
24.16000
24.16400
24.16800
24.17200
24.17600
24.18000
24.18400
24.18800
24.19200
24.19600
24.20000
24.20400
24.20800
24.21200
24.21600
24.22000
24.22400
24.22800
24.23200
24.23600
24.24000
24.24400
24.24800
24.25200
24.25600
24.26000
24.26400
24.26800
24.27200
24.27600
24.28000
24.28400
24.28800
24.29200
24.29600
24.30000
24.30400
24.30800
24.31200
24.31600
24.32000
24.32400
24.32800
24.33200
24.33600
24.34000
24.34400
24.34800
24.35200
24.35600
24.36000
24.36400
24.36800
24.37200
24.37600
24.38000
24.38400
24.38800
24.39200
24.39600
24.40000
24.40400
24.40800
24.41200
24.41600
24.42000
24.42400
24.42800
24.43200
24.43600
24.44000
24.44400
24.44800
24.45200
24.45600
24.46000
24.46400
24.46800
24.47200
24.47600
24.48000
24.48400
24.48800
24.49200
24.49600
24.50000
24.50400
24.50800
24.51200
24.51600
24.52000
24.52400
24.52800
24.53200
24.53600
24.54000
24.54400
24.54800
24.55200
24.55600
24.56000
24.56400
24.56800
24.57200
24.57600
24.58000
24.58400
24.58800
24.59200
24.59600
24.60000
24.60400
24.60800
24.61200
24.61600
24.62000
24.62400
24.62800
24.63200
24.63600
24.64000
24.64400
24.64800
24.65200
24.65600
24.66000
24.66400
24.66800
24.67200
24.67600
24.68000
24.68400
24.68800
24.69200
24.69600
24.70000
24.70400
24.70800
24.71200
24.71600
24.72000
24.72400
24.72800
24.73200
24.73600
24.74000
24.74400
24.74800
24.75200
24.75600
24.76000
24.76400
24.76800
24.77200
24.77600
24.78000
24.78400
24.78800
24.79200
24.79600
24.80000
24.80400
24.80800
24.81200
24.81600
24.82000
24.82400
24.82800
24.83200
24.83600
24.84000
24.84400
24.84800
24.85200
24.85600
24.86000
24.86400
24.86800
24.87200
24.87600
24.88000
24.88400
24.88800
24.89200
24.89600
24.90000
24.90400
24.90800
24.91200
24.91600
24.92000
24.92400
24.92800
24.93200
24.93600
24.94000
24.94400
24.94800
24.95200
24.95600
24.96000
24.96400
24.96800
24.97200
24.97600
24.98000
24.98400
24.98800
24.99200
24.99600
25.00000
25.00400
25.00800
25.01200
25.01600
25.02000
25.02400
25.02800
25.03200
25.03600
25.04000
25.04400
25.04800
25.05200
25.05600
25.06000
25.06400
25.06800
25.07200
25.07600
25.08000
25.08400
25.08800
25.09200
25.09600
25.10000
25.10400
25.10800
25.11200
25.11600
25.12000
25.12400
25.12800
25.13200
25.13600
25.14000
25.14400
25.14800
25.15200
25.15600
25.16000
25.16400
25.16800
25.17200
25.17600
25.18000
25.18400
25.18800
25.19200
25.19600
25.20000
25.20400
25.20800
25.21200
25.21600
25.22000
25.22400
25.22800
25.23200
25.23600
25.24000
25.24400
25.24800
25.25200
25.25600
25.26000
25.26400
25.26800
25.27200
25.27600
25.28000
25.28400
25.28800
25.29200
25.29600
25.30000
25.30400
25.30800
25.31200
25.31600
25.32000
25.32400
25.32800
25.33200
25.33600
25.34000
25.34400
25.34800
25.35200
25.35600
25.36000
25.36400
25.36800
25.37200
25.37600
25.38000
25.38400
25.38800
25.39200
25.39600
25.40000
25.40400
25.40800
25.41200
25.41600
25.42000
25.42400
25.42800
25.43200
25.43600
25.44000
25.44400
25.44800
25.45200
25.45600
25.46000
25.46400
25.46800
25.47200
25.47600
25.48000
25.48400
25.48800
25.49200
25.49600
25.50000
25.50400
25.50800
25.51200
25.51600
25.52000
25.52400
25.52800
25.53200
25.53600
25.54000
25.54400
25.54800
25.55200
25.55600
25.56000
25.56400
25.56800
25.57200
25.57600
25.58000
25.58400
25.58800
25.59200
25.59600
25.60000
25.60400
25.60800
25.61200
25.61600
25.62000
25.62400
25.62800
25.63200
25.63600
25.64000
25.64400
25.64800
25.65200
25.65600
25.66000
25.66400
25.66800
25.67200
25.67600
25.68000
25.68400
25.68800
25.69200
25.69600
25.70000
25.70400
25.70800
25.71200
25.71600
25.72000
25.72400
25.72800
25.73200
25.73600
25.74000
25.74400
25.74800
25.75200
25.75600
25.76000
25.76400
25.76800
25.77200
25.77600
25.78000
25.78400
25.78800
25.79200
25.79600
25.80000
25.80400
25.80800
25.81200
25.81600
25.82000
25.82400
25.82800
25.83200
25.83600
25.84000
25.84400
25.84800
25.85200
25.85600
25.86000
25.86400
25.86800
25.87200
25.87600
25.88000
25.88400
25.88800
25.89200
25.89600
25.90000
25.90400
25.90800
25.91200
25.91600
25.92000
25.92400
25.92800
25.93200
25.93600
25.94000
25.94400
25.94800
25.95200
25.95600
25.96000
25.96400
25.96800
25.97200
25.97600
25.98000
25.98400
25.98800
25.99200
25.99600
26.00000
26.00400
26.00800
26.01200
26.01600
26.02000
26.02400
26.02800
26.03200
26.03600
26.04000
26.04400
26.04800
26.05200
26.05600
26.06000
26.06400
26.06800
26.07200
26.07600
26.08000
26.08400
26.08800
26.09200
26.09600
26.10000
26.10400
26.10800
26.11200
26.11600
26.12000
26.12400
26.12800
26.13200
26.13600
26.14000
26.14400
26.14800
26.15200
26.15600
26.16000
26.16400
26.16800
26.17200
26.17600
26.18000
26.18400
26.18800
26.19200
26.19600
26.20000
26.20400
26.20800
26.21200
26.21600
26.22000
26.22400
26.22800
26.23200
26.23600
26.24000
26.24400
26.24800
26.25200
26.25600
26.26000
26.26400
26.26800
26.27200
26.27600
26.28000
26.28400
26.28800
26.29200
26.29600
26.30000
26.30400
26.30800
26.31200
26.31600
26.32000
26.32400
26.32800
26.33200
26.33600
26.34000
26.34400
26.34800
26.35200
26.35600
26.36000
26.36400
26.36800
26.37200
26.37600
26.38000
26.38400
26.38800
26.39200
26.39600
26.40000
26.40400
26.40800
26.41200
26.41600
26.42000
26.42400
26.42800
26.43200
26.43600
26.44000
26.44400
26.44800
26.45200
26.45600
26.46000
26.46400
26.46800
26.47200
26.47600
26.48000
26.48400
26.48800
26.49200
26.49600
26.50000
26.50400
26.50800
26.51200
26.51600
26.52000
26.52400
26.52800
26.53200
26.53600
26.54000
26.54400
26.54800
26.55200
26.55600
26.56000
26.56400
26.56800
26.57200
26.57600
26.58000
26.58400
26.58800
26.59200
26.59600
26.60000
26.60400
26.60800
26.61200
26.61600
26.62000
26.62400
26.62800
26.63200
26.63600
26.64000
26.64400
26.64800
26.65200
26.65600
26.66000
26.66400
26.66800
26.67200
26.67600
26.68000
26.68400
26.68800
26.69200
26.69600
26.70000
26.70400
26.70800
26.71200
26.71600
26.72000
26.72400
26.72800
26.73200
26.73600
26.74000
26.74400
26.74800
26.75200
26.75600
26.76000
26.76400
26.76800
26.77200
26.77600
26.78000
26.78400
26.78800
26.79200
26.79600
26.80000
26.80400
26.80800
26.81200
26.81600
26.82000
26.82400
26.82800
26.83200
26.83600
26.84000
26.84400
26.84800
26.85200
26.85600
26.86000
26.86400
26.86800
26.87200
26.87600
26.88000
26.88400
26.88800
26.89200
26.89600
26.90000
26.90400
26.90800
26.91200
26.91600
26.92000
26.92400
26.92800
26.93200
26.93600
26.94000
26.94400
26.94800
26.95200
26.95600
26.96000
26.96400
26.96800
26.97200
26.97600
26.98000
26.98400
26.98800
26.99200
26.99600
27.00000
27.00400
27.00800
27.01200
27.01600
27.02000
27.02400
27.02800
27.03200
27.03600
27.04000
27.04400
27.04800
27.05200
27.05600
27.06000
27.06400
27.06800
27.07200
27.07600
27.08000
27.08400
27.08800
27.09200
27.09600
27.10000
27.10400
27.10800
27.11200
27.11600
27.12000
27.12400
27.12800
27.13200
27.13600
27.14000
27.14400
27.14800
27.15200
27.15600
27.16000
27.16400
27.16800
27.17200
27.17600
27.18000
27.18400
27.18800
27.19200
27.19600
27.20000
27.20400
27.20800
27.21200
27.21600
27.22000
27.22400
27.22800
27.23200
27.23600
27.24000
27.24400
27.24800
27.25200
27.25600
27.26000
27.26400
27.26800
27.27200
27.27600
27.28000
27.28400
27.28800
27.29200
27.29600
27.30000
27.30400
27.30800
27.31200
27.31600
27.32000
27.32400
27.32800
27.33200
27.33600
27.34000
27.34400
27.34800
27.35200
27.35600
27.36000
27.36400
27.36800
27.37200
27.37600
27.38000
27.38400
27.38800
27.39200
27.39600
27.40000
27.40400
27.40800
27.41200
27.41600
27.42000
27.42400
27.42800
27.43200
27.43600
27.44000
27.44400
27.44800
27.45200
27.45600
27.46000
27.46400
27.46800
27.47200
27.47600
27.48000
27.48400
27.48800
27.49200
27.49600
27.50000
27.50400
27.50800
27.51200
27.51600
27.52000
27.52400
27.52800
27.53200
27.53600
27.54000
27.54400
27.54800
27.55200
27.55600
27.56000
27.56400
27.56800
27.57200
27.57600
27.58000
27.58400
27.58800
27.59200
27.59600
27.60000
27.60400
27.60800
27.61200
27.61600
27.62000
27.62400
27.62800
27.63200
27.63600
27.64000
27.64400
27.64800
27.65200
27.65600
27.66000
27.66400
27.66800
27.67200
27.67600
27.68000
27.68400
27.68800
27.69200
27.69600
27.70000
27.70400
27.70800
27.71200
27.71600
27.72000
27.72400
27.72800
27.73200
27.73600
27.74000
27.74400
27.74800
27.75200
27.75600
27.76000
27.76400
27.76800
27.77200
27.77600
27.78000
27.78400
27.78800
27.79200
27.79600
27.80000
27.80400
27.80800
27.81200
27.81600
27.82000
27.82400
27.82800
27.83200
27.83600
27.84000
27.84400
27.84800
27.85200
27.85600
27.86000
27.86400
27.86800
27.87200
27.87600
27.88000
27.88400
27.88800
27.89200
27.89600
27.90000
27.90400
27.90800
27.91200
27.91600
27.92000
27.92400
27.92800
27.93200
27.93600
27.94000
27.94400
27.94800
27.95200
27.95600
27.96000
27.96400
27.96800
27.97200
27.97600
27.98000
27.98400
27.98800
27.99200
27.99600
28.00000
28.00400
28.00800
28.01200
28.01600
28.02000
28.02400
28.02800
28.03200
28.03600
28.04000
28.04400
28.04800
28.05200
28.05600
28.06000
28.06400
28.06800
28.07200
28.07600
28.08000
28.08400
28.08800
28.09200
28.09600
28.10000
28.10400
28.10800
28.11200
28.11600
28.12000
28.12400
28.12800
28.13200
28.13600
28.14000
28.14400
28.14800
28.15200
28.15600
28.16000
28.16400
28.16800
28.17200
28.17600
28.18000
28.18400
28.18800
28.19200
28.19600
28.20000
28.20400
28.20800
28.21200
28.21600
28.22000
28.22400
28.22800
28.23200
28.23600
28.24000
28.24400
28.24800
28.25200
28.25600
28.26000
28.26400
28.26800
28.27200
28.27600
28.28000
28.28400
28.28800
28.29200
28.29600
28.30000
28.30400
28.30800
28.31200
28.31600
28.32000
28.32400
28.32800
28.33200
28.33600
28.34000
28.34400
28.34800
28.35200
28.35600
28.36000
28.36400
28.36800
28.37200
28.37600
28.38000
28.38400
28.38800
28.39200
28.39600
28.40000
28.40400
28.40800
28.41200
28.41600
28.42000
28.42400
28.42800
28.43200
28.43600
28.44000
28.44400
28.44800
28.45200
28.45600
28.46000
28.46400
28.46800
28.47200
28.47600
28.48000
28.48400
28.48800
28.49200
28.49600
28.50000
28.50400
28.50800
28.51200
28.51600
28.52000
28.52400
28.52800
28.53200
28.53600
28.54000
28.54400
28.54800
28.55200
28.55600
28.56000
28.56400
28.56800
28.57200
28.57600
28.58000
28.58400
28.58800
28.59200
28.59600
28.60000
28.60400
28.60800
28.61200
28.61600
28.62000
28.62400
28.62800
28.63200
28.63600
28.64000
28.64400
28.64800
28.65200
28.65600
28.66000
28.66400
28.66800
28.67200
28.67600
28.68000
28.68400
28.68800
28.69200
28.69600
28.70000
28.70400
28.70800
28.71200
28.71600
28.72000
28.72400
28.72800
28.73200
28.73600
28.74000
28.74400
28.74800
28.75200
28.75600
28.76000
28.76400
28.76800
28.77200
28.77600
28.78000
28.78400
28.78800
28.79200
28.79600
28.80000
28.80400
28.80800
28.81200
28.81600
28.82000
28.82400
28.82800
28.83200
28.83600
28.84000
28.84400
28.84800
28.85200
28.85600
28.86000
28.86400
28.86800
28.87200
28.87600
28.88000
28.88400
28.88800
28.89200
28.89600
28.90000
28.90400
28.90800
28.91200
28.91600
28.92000
28.92400
28.92800
28.93200
28.93600
28.94000
28.94400
28.94800
28.95200
28.95600
28.96000
28.96400
28.96800
28.97200
28.97600
28.98000
28.98400
28.98800
28.99200
28.99600
29.00000
29.00400
29.00800
29.01200
29.01600
29.02000
29.02400
29.02800
29.03200
29.03600
29.04000
29.04400
29.04800
29.05200
29.05600
29.06000
29.06400
29.06800
29.07200
29.07600
29.08000
29.08400
29.08800
29.09200
29.09600
29.10000
29.10400
29.10800
29.11200
29.11600
29.12000
29.12400
29.12800
29.13200
29.13600
29.14000
29.14400
29.14800
29.15200
29.15600
29.16000
29.16400
29.16800
29.17200
29.17600
29.18000
29.18400
29.18800
29.19200
29.19600
29.20000
29.20400
29.20800
29.21200
29.21600
29.22000
29.22400
29.22800
29.23200
29.23600
29.24000
29.24400
29.24800
29.25200
29.25600
29.26000
29.26400
29.26800
29.27200
29.27600
29.28000
29.28400
29.28800
29.29200
29.29600
29.30000
29.30400
29.30800
29.31200
29.31600
29.32000
29.32400
29.32800
29.33200
29.33600
29.34000
29.34400
29.34800
29.35200
29.35600
29.36000
29.36400
29.36800
29.37200
29.37600
29.38000
29.38400
29.38800
29.39200
29.39600
29.40000
29.40400
29.40800
29.41200
29.41600
29.42000
29.42400
29.42800
29.43200
29.43600
29.44000
29.44400
29.44800
29.45200
29.45600
29.46000
29.46400
29.46800
29.47200
29.47600
29.48000
29.48400
29.48800
29.49200
29.49600
29.50000
29.50400
29.50800
29.51200
29.51600
29.52000
29.52400
29.52800
29.53200
29.53600
29.54000
29.54400
29.54800
29.55200
29.55600
29.56000
29.56400
29.56800
29.57200
29.57600
29.58000
29.58400
29.58800
29.59200
29.59600
29.60000
29.60400
29.60800
29.61200
29.61600
29.62000
29.62400
29.62800
29.63200
29.63600
29.64000
29.64400
29.64800
29.65200
29.65600
29.66000
29.66400
29.66800
29.67200
29.67600
29.68000
29.68400
29.68800
29.69200
29.69600
29.70000
29.70400
29.70800
29.71200
29.71600
29.72000
29.72400
29.72800
29.73200
29.73600
29.74000
29.74400
29.74800
29.75200
29.75600
29.76000
29.76400
29.76800
29.77200
29.77600
29.78000
29.78400
29.78800
29.79200
29.79600
29.80000
29.80400
29.80800
29.81200
29.81600
29.82000
29.82400
29.82800
29.83200
29.83600
29.84000
29.84400
29.84800
29.85200
29.85600
29.86000
29.86400
29.86800
29.87200
29.87600
29.88000
29.88400
29.88800
29.89200
29.89600
29.90000
29.90400
29.90800
29.91200
29.91600
29.92000
29.92400
29.92800
29.93200
29.93600
29.94000
29.94400
29.94800
29.95200
29.95600
29.96000
29.96400
29.96800
29.97200
29.97600
29.98000
29.98400
29.98800
29.99200
29.99600
30.00000
30.00400
30.00800
30.01200
30.01600
30.02000
30.02400
30.02800
30.03200
30.03600
30.04000
30.04400
30.04800
30.05200
30.05600
30.06000
30.06400
30.06800
30.07200
30.07600
30.08000
30.08400
30.08800
30.09200
30.09600
30.10000
30.10400
30.10800
30.11200
30.11600
30.12000
30.12400
30.12800
30.13200
30.13600
30.14000
30.14400
30.14800
30.15200
30.15600
30.16000
30.16400
30.16800
30.17200
30.17600
30.18000
30.18400
30.18800
30.19200
30.19600
30.20000
30.20400
30.20800
30.21200
30.21600
30.22000
30.22400
30.22800
30.23200
30.23600
30.24000
30.24400
30.24800
30.25200
30.25600
30.26000
30.26400
30.26800
30.27200
30.27600
30.28000
30.28400
30.28800
30.29200
30.29600
30.30000
30.30400
30.30800
30.31200
30.31600
30.32000
30.32400
30.32800
30.33200
30.33600
30.34000
30.34400
30.34800
30.35200
30.35600
30.36000
30.36400
30.36800
30.37200
30.37600
30.38000
30.38400
30.38800
30.39200
30.39600
30.40000
30.40400
30.40800
30.41200
30.41600
30.42000
30.42400
30.42800
30.43200
30.43600
30.44000
30.44400
30.44800
30.45200
30.45600
30.46000
30.46400
30.46800
30.47200
30.47600
30.48000
30.48400
30.48800
30.49200
30.49600
30.50000
30.50400
30.50800
30.51200
30.51600
30.52000
30.52400
30.52800
30.53200
30.53600
30.54000
30.54400
30.54800
30.55200
30.55600
30.56000
30.56400
30.56800
30.57200
30.57600
30.58000
30.58400
30.58800
30.59200
30.59600
30.60000
30.60400
30.60800
30.61200
30.61600
30.62000
30.62400
30.62800
30.63200
30.63600
30.64000
30.64400
30.64800
30.65200
30.65600
30.66000
30.66400
30.66800
30.67200
30.67600
30.68000
30.68400
30.68800
30.69200
30.69600
30.70000
30.70400
30.70800
30.71200
30.71600
30.72000
30.72400
30.72800
30.73200
30.73600
30.74000
30.74400
30.74800
30.75200
30.75600
30.76000
30.76400
30.76800
30.77200
30.77600
30.78000
30.78400
30.78800
30.79200
30.79600
30.80000
30.80400
30.80800
30.81200
30.81600
30.82000
30.82400
30.82800
30.83200
30.83600
30.84000
30.84400
30.84800
30.85200
30.85600
30.86000
30.86400
30.86800
30.87200
30.87600
30.88000
30.88400
30.88800
30.89200
30.89600
30.90000
30.90400
30.90800
30.91200
30.91600
30.92000
30.92400
30.92800
30.93200
30.93600
30.94000
30.94400
30.94800
30.95200
30.95600
30.96000
30.96400
30.96800
30.97200
30.97600
30.98000
30.98400
30.98800
30.99200
30.99600
31.00000
31.00400
31.00800
31.01200
31.01600
31.02000
31.02400
31.02800
31.03200
31.03600
31.04000
31.04400
31.04800
31.05200
31.05600
31.06000
31.06400
31.06800
31.07200
31.07600
31.08000
31.08400
31.08800
31.09200
31.09600
31.10000
31.10400
31.10800
31.11200
31.11600
31.12000
31.12400
31.12800
31.13200
31.13600
31.14000
31.14400
31.14800
31.15200
31.15600
31.16000
31.16400
31.16800
31.17200
31.17600
31.18000
31.18400
31.18800
31.19200
31.19600
31.20000
31.20400
31.20800
31.21200
31.21600
31.22000
31.22400
31.22800
31.23200
31.23600
31.24000
31.24400
31.24800
31.25200
31.25600
31.26000
31.26400
31.26800
31.27200
31.27600
31.28000
31.28400
31.28800
31.29200
31.29600
31.30000
31.30400
31.30800
31.31200
31.31600
31.32000
31.32400
31.32800
31.33200
31.33600
31.34000
31.34400
31.34800
31.35200
31.35600
31.36000
31.36400
31.36800
31.37200
31.37600
31.38000
31.38400
31.38800
31.39200
31.39600
31.40000
31.40400
31.40800
31.41200
31.41600
31.42000
31.42400
31.42800
31.43200
31.43600
31.44000
31.44400
31.44800
31.45200
31.45600
31.46000
31.46400
31.46800
31.47200
31.47600
31.48000
31.48400
31.48800
31.49200
31.49600
31.50000
31.50400
31.50800
31.51200
31.51600
31.52000
31.52400
31.52800
31.53200
31.53600
31.54000
31.54400
31.54800
31.55200
31.55600
31.56000
31.56400
31.56800
31.57200
31.57600
31.58000
31.58400
31.58800
31.59200
31.59600
31.60000
31.60400
31.60800
31.61200
31.61600
31.62000
31.62400
31.62800
31.63200
31.63600
31.64000
31.64400
31.64800
31.65200
31.65600
31.66000
31.66400
31.66800
31.67200
31.67600
31.68000
31.68400
31.68800
31.69200
31.69600
31.70000
31.70400
31.70800
31.71200
31.71600
31.72000
31.72400
31.72800
31.73200
31.73600
31.74000
31.74400
31.74800
31.75200
31.75600
31.76000
31.76400
31.76800
31.77200
31.77600
31.78000
31.78400
31.78800
31.79200
31.79600
31.80000
31.80400
31.80800
31.81200
31.81600
31.82000
31.82400
31.82800
31.83200
31.83600
31.84000
31.84400
31.84800
31.85200
31.85600
31.86000
31.86400
31.86800
31.87200
31.87600
31.88000
31.88400
31.88800
31.89200
31.89600
31.90000
31.90400
31.90800
31.91200
31.91600
31.92000
31.92400
31.92800
31.93200
31.93600
31.94000
31.94400
31.94800
31.95200
31.95600
31.96000
31.96400
31.96800
31.97200
31.97600
31.98000
31.98400
31.98800
31.99200
31.99600
32.00000
32.00400
32.00800
32.01200
32.01600
32.02000
32.02400
32.02800
32.03200
32.03600
32.04000
32.04400
32.04800
32.05200
32.05600
32.06000
32.06400
32.06800
32.07200
32.07600
32.08000
32.08400
32.08800
32.09200
32.09600
32.10000
32.10400
32.10800
32.11200
32.11600
32.12000
32.12400
32.12800
32.13200
32.13600
32.14000
32.14400
32.14800
32.15200
32.15600
32.16000
32.16400
32.16800
32.17200
32.17600
32.18000
32.18400
32.18800
32.19200
32.19600
32.20000
32.20400
32.20800
32.21200
32.21600
32.22000
32.22400
32.22800
32.23200
32.23600
32.24000
32.24400
32.24800
32.25200
32.25600
32.26000
32.26400
32.26800
32.27200
32.27600
32.28000
32.28400
32.28800
32.29200
32.29600
32.30000
32.30400
32.30800
32.31200
32.31600
32.32000
32.32400
32.32800
32.33200
32.33600
32.34000
32.34400
32.34800
32.35200
32.35600
32.36000
32.36400
32.36800
32.37200
32.37600
32.38000
32.38400
32.38800
32.39200
32.39600
32.40000
32.40400
32.40800
32.41200
32.41600
32.42000
32.42400
32.42800
32.43200
32.43600
32.44000
32.44400
32.44800
32.45200
32.45600
32.46000
32.46400
32.46800
32.47200
32.47600
32.48000
32.48400
32.48800
32.49200
32.49600
32.50000
32.50400
32.50800
32.51200
32.51600
32.52000
32.52400
32.52800
32.53200
32.53600
32.54000
32.54400
32.54800
32.55200
32.55600
32.56000
32.56400
32.56800
32.57200
32.57600
32.58000
32.58400
32.58800
32.59200
32.59600
32.60000
32.60400
32.60800
32.61200
32.61600
32.62000
32.62400
32.62800
32.63200
32.63600
32.64000
32.64400
32.64800
32.65200
32.65600
32.66000
32.66400
32.66800
32.67200
32.67600
32.68000
32.68400
32.68800
32.69200
32.69600
32.70000
32.70400
32.70800
32.71200
32.71600
32.72000
32.72400
32.72800
32.73200
32.73600
32.74000
32.74400
32.74800
32.75200
32.75600
32.76000
32.76400
32.76800
32.77200
32.77600
32.78000
32.78400
32.78800
32.79200
32.79600
32.80000
32.80400
32.80800
32.81200
32.81600
32.82000
32.82400
32.82800
32.83200
32.83600
32.84000
32.84400
32.84800
32.85200
32.85600
32.86000
32.86400
32.86800
32.87200
32.87600
32.88000
32.88400
32.88800
32.89200
32.89600
32.90000
32.90400
32.90800
32.91200
32.91600
32.92000
32.92400
32.92800
32.93200
32.93600
32.94000
32.94400
32.94800
32.95200
32.95600
32.96000
32.96400
32.96800
32.97200
32.97600
32.98000
32.98400
32.98800
32.99200
32.99600
33.00000
33.00400
33.00800
33.01200
33.01600
33.02000
33.02400
33.02800
33.03200
33.03600
33.04000
33.04400
33.04800
33.05200
33.05600
33.06000
33.06400
33.06800
33.07200
33.07600
33.08000
33.08400
33.08800
33.09200
33.09600
33.10000
33.10400
33.10800
33.11200
33.11600
33.12000
33.12400
33.12800
33.13200
33.13600
33.14000
33.14400
33.14800
33.15200
33.15600
33.16000
33.16400
33.16800
33.17200
33.17600
33.18000
33.18400
33.18800
33.19200
33.19600
33.20000
33.20400
33.20800
33.21200
33.21600
33.22000
33.22400
33.22800
33.23200
33.23600
33.24000
33.24400
33.24800
33.25200
33.25600
33.26000
33.26400
33.26800
33.27200
33.27600
33.28000
33.28400
33.28800
33.29200
33.29600
33.30000
33.30400
33.30800
33.31200
33.31600
33.32000
33.32400
33.32800
33.33200
33.33600
33.34000
33.34400
33.34800
33.35200
33.35600
33.36000
33.36400
33.36800
33.37200
33.37600
33.38000
33.38400
33.38800
33.39200
33.39600
33.40000
33.40400
33.40800
33.41200
33.41600
33.42000
33.42400
33.42800
33.43200
33.43600
33.44000
33.44400
33.44800
33.45200
33.45600
33.46000
33.46400
33.46800
33.47200
33.47600
33.48000
33.48400
33.48800
33.49200
33.49600
33.50000
33.50400
33.50800
33.51200
33.51600
33.52000
33.52400
33.52800
33.53200
33.53600
33.54000
33.54400
33.54800
33.55200
33.55600
33.56000
33.56400
33.56800
33.57200
33.57600
33.58000
33.58400
33.58800
33.59200
33.59600
33.60000
33.60400
33.60800
33.61200
33.61600
33.62000
33.62400
33.62800
33.63200
33.63600
33.64000
33.64400
33.64800
33.65200
33.65600
33.66000
33.66400
33.66800
33.67200
33.67600
33.68000
33.68400
33.68800
33.69200
33.69600
33.70000
33.70400
33.70800
33.71200
33.71600
33.72000
33.72400
33.72800
33.73200
33.73600
33.74000
33.74400
33.74800
33.75200
33.75600
33.76000
33.76400
33.76800
33.77200
33.77600
33.78000
33.78400
33.78800
33.79200
33.79600
33.80000
33.80400
33.80800
33.81200
33.81600
33.82000
33.82400
33.82800
33.83200
33.83600
33.84000
33.84400
33.84800
33.85200
33.85600
33.86000
33.86400
33.86800
33.87200
33.87600
33.88000
33.88400
33.88800
33.89200
33.89600
33.90000
33.90400
33.90800
33.91200
33.91600
33.92000
33.92400
33.92800
33.93200
33.93600
33.94000
33.94400
33.94800
33.95200
33.95600
33.96000
33.96400
33.96800
33.97200
33.97600
33.98000
33.98400
33.98800
33.99200
33.99600
34.00000
34.00400
34.00800
34.01200
34.01600
34.02000
34.02400
34.02800
34.03200
34.03600
34.04000
34.04400
34.04800
34.05200
34.05600
34.06000
34.06400
34.06800
34.07200
34.07600
34.08000
34.08400
34.08800
34.09200
34.09600
34.10000
34.10400
34.10800
34.11200
34.11600
34.12000
34.12400
34.12800
34.13200
34.13600
34.14000
34.14400
34.14800
34.15200
34.15600
34.16000
34.16400
34.16800
34.17200
34.17600
34.18000
34.18400
34.18800
34.19200
34.19600
34.20000
34.20400
34.20800
34.21200
34.21600
34.22000
34.22400
34.22800
34.23200
34.23600
34.24000
34.24400
34.24800
34.25200
34.25600
34.26000
34.26400
34.26800
34.27200
34.27600
34.28000
34.28400
34.28800
34.29200
34.29600
34.30000
34.30400
34.30800
34.31200
34.31600
34.32000
34.32400
34.32800
34.33200
34.33600
34.34000
34.34400
34.34800
34.35200
34.35600
34.36000
34.36400
34.36800
34.37200
34.37600
34.38000
34.38400
34.38800
34.39200
34.39600
34.40000
34.40400
34.40800
34.41200
34.41600
34.42000
34.42400
34.42800
34.43200
34.43600
34.44000
34.44400
34.44800
34.45200
34.45600
34.46000
34.46400
34.46800
34.47200
34.47600
34.48000
34.48400
34.48800
34.49200
34.49600
34.50000
34.50400
34.50800
34.51200
34.51600
34.52000
34.52400
34.52800
34.53200
34.53600
34.54000
34.54400
34.54800
34.55200
34.55600
34.56000
34.56400
34.56800
34.57200
34.57600
34.58000
34.58400
34.58800
34.59200
34.59600
34.60000
34.60400
34.60800
34.61200
34.61600
34.62000
34.62400
34.62800
34.63200
34.63600
34.64000
34.64400
34.64800
34.65200
34.65600
34.66000
34.66400
34.66800
34.67200
34.67600
34.68000
34.68400
34.68800
34.69200
34.69600
34.70000
34.70400
34.70800
34.71200
34.71600
34.72000
34.72400
34.72800
34.73200
34.73600
34.74000
34.74400
34.74800
34.75200
34.75600
34.76000
34.76400
34.76800
34.77200
34.77600
34.78000
34.78400
34.78800
34.79200
34.79600
34.80000
34.80400
34.80800
34.81200
34.81600
34.82000
34.82400
34.82800
34.83200
34.83600
34.84000
34.84400
34.84800
34.85200
34.85600
34.86000
34.86400
34.86800
34.87200
34.87600
34.88000
34.88400
34.88800
34.89200
34.89600
34.90000
34.90400
34.90800
34.91200
34.91600
34.92000
34.92400
34.92800
34.93200
34.93600
34.94000
34.94400
34.94800
34.95200
34.95600
34.96000
34.96400
34.96800
34.97200
34.97600
34.98000
34.98400
34.98800
34.99200
34.99600
35.00000
35.00400
35.00800
35.01200
35.01600
35.02000
35.02400
35.02800
35.03200
35.03600
35.04000
35.04400
35.04800
35.05200
35.05600
35.06000
35.06400
35.06800
35.07200
35.07600
35.08000
35.08400
35.08800
35.09200
35.09600
35.10000
35.10400
35.10800
35.11200
35.11600
35.12000
35.12400
35.12800
35.13200
35.13600
35.14000
35.14400
35.14800
35.15200
35.15600
35.16000
35.16400
35.16800
35.17200
35.17600
35.18000
35.18400
35.18800
35.19200
35.19600
35.20000
35.20400
35.20800
35.21200
35.21600
35.22000
35.22400
35.22800
35.23200
35.23600
35.24000
35.24400
35.24800
35.25200
35.25600
35.26000
35.26400
35.26800
35.27200
35.27600
35.28000
35.28400
35.28800
35.29200
35.29600
35.30000
35.30400
35.30800
35.31200
35.31600
35.32000
35.32400
35.32800
35.33200
35.33600
35.34000
35.34400
35.34800
35.35200
35.35600
35.36000
35.36400
35.36800
35.37200
35.37600
35.38000
35.38400
35.38800
35.39200
35.39600
35.40000
35.40400
35.40800
35.41200
35.41600
35.42000
35.42400
35.42800
35.43200
35.43600
35.44000
35.44400
35.44800
35.45200
35.45600
35.46000
35.46400
35.46800
35.47200
35.47600
35.48000
35.48400
35.48800
35.49200
35.49600
35.50000
35.50400
35.50800
35.51200
35.51600
35.52000
35.52400
35.52800
35.53200
35.53600
35.54000
35.54400
35.54800
35.55200
35.55600
35.56000
35.56400
35.56800
35.57200
35.57600
35.58000
35.58400
35.58800
35.59200
35.59600
35.60000
35.60400
35.60800
35.61200
35.61600
35.62000
35.62400
35.62800
35.63200
35.63600
35.64000
35.64400
35.64800
35.65200
35.65600
35.66000
35.66400
35.66800
35.67200
35.67600
35.68000
35.68400
35.68800
35.69200
35.69600
35.70000
35.70400
35.70800
35.71200
35.71600
35.72000
35.72400
35.72800
35.73200
35.73600
35.74000
35.74400
35.74800
35.75200
35.75600
35.76000
35.76400
35.76800
35.77200
35.77600
35.78000
35.78400
35.78800
35.79200
35.79600
35.80000
35.80400
35.80800
35.81200
35.81600
35.82000
35.82400
35.82800
35.83200
35.83600
35.84000
35.84400
35.84800
35.85200
35.85600
35.86000
35.86400
35.86800
35.87200
35.87600
35.88000
35.88400
35.88800
35.89200
35.89600
35.90000
35.90400
35.90800
35.91200
35.91600
35.92000
35.92400
35.92800
35.93200
35.93600
35.94000
35.94400
35.94800
35.95200
35.95600
35.96000
35.96400
35.96800
35.97200
35.97600
35.98000
35.98400
35.98800
35.99200
35.99600
36.00000
36.00400
36.00800
36.01200
36.01600
36.02000
36.02400
36.02800
36.03200
36.03600
36.04000
36.04400
36.04800
36.05200
36.05600
36.06000
36.06400
36.06800
36.07200
36.07600
36.08000
36.08400
36.08800
36.09200
36.09600
36.10000
36.10400
36.10800
36.11200
36.11600
36.12000
36.12400
36.12800
36.13200
36.13600
36.14000
36.14400
36.14800
36.15200
36.15600
36.16000
36.16400
36.16800
36.17200
36.17600
36.18000
36.18400
36.18800
36.19200
36.19600
36.20000
36.20400
36.20800
36.21200
36.21600
36.22000
36.22400
36.22800
36.23200
36.23600
36.24000
36.24400
36.24800
36.25200
36.25600
36.26000
36.26400
36.26800
36.27200
36.27600
36.28000
36.28400
36.28800
36.29200
36.29600
36.30000
36.30400
36.30800
36.31200
36.31600
36.32000
36.32400
36.32800
36.33200
36.33600
36.34000
36.34400
36.34800
36.35200
36.35600
36.36000
36.36400
36.36800
36.37200
36.37600
36.38000
36.38400
36.38800
36.39200
36.39600
36.40000
36.40400
36.40800
36.41200
36.41600
36.42000
36.42400
36.42800
36.43200
36.43600
36.44000
36.44400
36.44800
36.45200
36.45600
36.46000
36.46400
36.46800
36.47200
36.47600
36.48000
36.48400
36.48800
36.49200
36.49600
36.50000
36.50400
36.50800
36.51200
36.51600
36.52000
36.52400
36.52800
36.53200
36.53600
36.54000
36.54400
36.54800
36.55200
36.55600
36.56000
36.56400
36.56800
36.57200
36.57600
36.58000
36.58400
36.58800
36.59200
36.59600
36.60000
36.60400
36.60800
36.61200
36.61600
36.62000
36.62400
36.62800
36.63200
36.63600
36.64000
36.64400
36.64800
36.65200
36.65600
36.66000
36.66400
36.66800
36.67200
36.67600
36.68000
36.68400
36.68800
36.69200
36.69600
36.70000
36.70400
36.70800
36.71200
36.71600
36.72000
36.72400
36.72800
36.73200
36.73600
36.74000
36.74400
36.74800
36.75200
36.75600
36.76000
36.76400
36.76800
36.77200
36.77600
36.78000
36.78400
36.78800
36.79200
36.79600
36.80000
36.80400
36.80800
36.81200
36.81600
36.82000
36.82400
36.82800
36.83200
36.83600
36.84000
36.84400
36.84800
36.85200
36.85600
36.86000
36.86400
36.86800
36.87200
36.87600
36.88000
36.88400
36.88800
36.89200
36.89600
36.90000
36.90400
36.90800
36.91200
36.91600
36.92000
36.92400
36.92800
36.93200
36.93600
36.94000
36.94400
36.94800
36.95200
36.95600
36.96000
36.96400
36.96800
36.97200
36.97600
36.98000
36.98400
36.98800
36.99200
36.99600
37.00000
37.00400
37.00800
37.01200
37.01600
37.02000
37.02400
37.02800
37.03200
37.03600
37.04000
37.04400
37.04800
37.05200
37.05600
37.06000
37.06400
37.06800
37.07200
37.07600
37.08000
37.08400
37.08800
37.09200
37.09600
37.10000
37.10400
37.10800
37.11200
37.11600
37.12000
37.12400
37.12800
37.13200
37.13600
37.14000
37.14400
37.14800
37.15200
37.15600
37.16000
37.16400
37.16800
37.17200
37.17600
37.18000
37.18400
37.18800
37.19200
37.19600
37.20000
37.20400
37.20800
37.21200
37.21600
37.22000
37.22400
37.22800
37.23200
37.23600
37.24000
37.24400
37.24800
37.25200
37.25600
37.26000
37.26400
37.26800
37.27200
37.27600
37.28000
37.28400
37.28800
37.29200
37.29600
37.30000
37.30400
37.30800
37.31200
37.31600
37.32000
37.32400
37.32800
37.33200
37.33600
37.34000
37.34400
37.34800
37.35200
37.35600
37.36000
37.36400
37.36800
37.37200
37.37600
37.38000
37.38400
37.38800
37.39200
37.39600
37.40000
37.40400
37.40800
37.41200
37.41600
37.42000
37.42400
37.42800
37.43200
37.43600
37.44000
37.44400
37.44800
37.45200
37.45600
37.46000
37.46400
37.46800
37.47200
37.47600
37.48000
37.48400
37.48800
37.49200
37.49600
37.50000
37.50400
37.50800
37.51200
37.51600
37.52000
37.52400
37.52800
37.53200
37.53600
37.54000
37.54400
37.54800
37.55200
37.55600
37.56000
37.56400
37.56800
37.57200
37.57600
37.58000
37.58400
37.58800
37.59200
37.59600
37.60000
37.60400
37.60800
37.61200
37.61600
37.62000
37.62400
37.62800
37.63200
37.63600
37.64000
37.64400
37.64800
37.65200
37.65600
37.66000
37.66400
37.66800
37.67200
37.67600
37.68000
37.68400
37.68800
37.69200
37.69600
37.70000
37.70400
37.70800
37.71200
37.71600
37.72000
37.72400
37.72800
37.73200
37.73600
37.74000
37.74400
37.74800
37.75200
37.75600
37.76000
37.76400
37.76800
37.77200
37.77600
37.78000
37.78400
37.78800
37.79200
37.79600
37.80000
37.80400
37.80800
37.81200
37.81600
37.82000
37.82400
37.82800
37.83200
37.83600
37.84000
37.84400
37.84800
37.85200
37.85600
37.86000
37.86400
37.86800
37.87200
37.87600
37.88000
37.88400
37.88800
37.89200
37.89600
37.90000
37.90400
37.90800
37.91200
37.91600
37.92000
37.92400
37.92800
37.93200
37.93600
37.94000
37.94400
37.94800
37.95200
37.95600
37.96000
37.96400
37.96800
37.97200
37.97600
37.98000
37.98400
37.98800
37.99200
37.99600
38.00000
38.00400
38.00800
38.01200
38.01600
38.02000
38.02400
38.02800
38.03200
38.03600
38.04000
38.04400
38.04800
38.05200
38.05600
38.06000
38.06400
38.06800
38.07200
38.07600
38.08000
38.08400
38.08800
38.09200
38.09600
38.10000
38.10400
38.10800
38.11200
38.11600
38.12000
38.12400
38.12800
38.13200
38.13600
38.14000
38.14400
38.14800
38.15200
38.15600
38.16000
38.16400
38.16800
38.17200
38.17600
38.18000
38.18400
38.18800
38.19200
38.19600
38.20000
38.20400
38.20800
38.21200
38.21600
38.22000
38.22400
38.22800
38.23200
38.23600
38.24000
38.24400
38.24800
38.25200
38.25600
38.26000
38.26400
38.26800
38.27200
38.27600
38.28000
38.28400
38.28800
38.29200
38.29600
38.30000
38.30400
38.30800
38.31200
38.31600
38.32000
38.32400
38.32800
38.33200
38.33600
38.34000
38.34400
38.34800
38.35200
38.35600
38.36000
38.36400
38.36800
38.37200
38.37600
38.38000
38.38400
38.38800
38.39200
38.39600
38.40000
38.40400
38.40800
38.41200
38.41600
38.42000
38.42400
38.42800
38.43200
38.43600
38.44000
38.44400
38.44800
38.45200
38.45600
38.46000
38.46400
38.46800
38.47200
38.47600
38.48000
38.48400
38.48800
38.49200
38.49600
38.50000
38.50400
38.50800
38.51200
38.51600
38.52000
38.52400
38.52800
38.53200
38.53600
38.54000
38.54400
38.54800
38.55200
38.55600
38.56000
38.56400
38.56800
38.57200
38.57600
38.58000
38.58400
38.58800
38.59200
38.59600
38.60000
38.60400
38.60800
38.61200
38.61600
38.62000
38.62400
38.62800
38.63200
38.63600
38.64000
38.64400
38.64800
38.65200
38.65600
38.66000
38.66400
38.66800
38.67200
38.67600
38.68000
38.68400
38.68800
38.69200
38.69600
38.70000
38.70400
38.70800
38.71200
38.71600
38.72000
38.72400
38.72800
38.73200
38.73600
38.74000
38.74400
38.74800
38.75200
38.75600
38.76000
38.76400
38.76800
38.77200
38.77600
38.78000
38.78400
38.78800
38.79200
38.79600
38.80000
38.80400
38.80800
38.81200
38.81600
38.82000
38.82400
38.82800
38.83200
38.83600
38.84000
38.84400
38.84800
38.85200
38.85600
38.86000
38.86400
38.86800
38.87200
38.87600
38.88000
38.88400
38.88800
38.89200
38.89600
38.90000
38.90400
38.90800
38.91200
38.91600
38.92000
38.92400
38.92800
38.93200
38.93600
38.94000
38.94400
38.94800
38.95200
38.95600
38.96000
38.96400
38.96800
38.97200
38.97600
38.98000
38.98400
38.98800
38.99200
38.99600
39.00000
39.00400
39.00800
39.01200
39.01600
39.02000
39.02400
39.02800
39.03200
39.03600
39.04000
39.04400
39.04800
39.05200
39.05600
39.06000
39.06400
39.06800
39.07200
39.07600
39.08000
39.08400
39.08800
39.09200
39.09600
39.10000
39.10400
39.10800
39.11200
39.11600
39.12000
39.12400
39.12800
39.13200
39.13600
39.14000
39.14400
39.14800
39.15200
39.15600
39.16000
39.16400
39.16800
39.17200
39.17600
39.18000
39.18400
39.18800
39.19200
39.19600
39.20000
39.20400
39.20800
39.21200
39.21600
39.22000
39.22400
39.22800
39.23200
39.23600
39.24000
39.24400
39.24800
39.25200
39.25600
39.26000
39.26400
39.26800
39.27200
39.27600
39.28000
39.28400
39.28800
39.29200
39.29600
39.30000
39.30400
39.30800
39.31200
39.31600
39.32000
39.32400
39.32800
39.33200
39.33600
39.34000
39.34400
39.34800
39.35200
39.35600
39.36000
39.36400
39.36800
39.37200
39.37600
39.38000
39.38400
39.38800
39.39200
39.39600
39.40000
39.40400
39.40800
39.41200
39.41600
39.42000
39.42400
39.42800
39.43200
39.43600
39.44000
39.44400
39.44800
39.45200
39.45600
39.46000
39.46400
39.46800
39.47200
39.47600
39.48000
39.48400
39.48800
39.49200
39.49600
39.50000
39.50400
39.50800
39.51200
39.51600
39.52000
39.52400
39.52800
39.53200
39.53600
39.54000
39.54400
39.54800
39.55200
39.55600
39.56000
39.56400
39.56800
39.57200
39.57600
39.58000
39.58400
39.58800
39.59200
39.59600
39.60000
39.60400
39.60800
39.61200
39.61600
39.62000
39.62400
39.62800
39.63200
39.63600
39.64000
39.64400
39.64800
39.65200
39.65600
39.66000
39.66400
39.66800
39.67200
39.67600
39.68000
39.68400
39.68800
39.69200
39.69600
39.70000
39.70400
39.70800
39.71200
39.71600
39.72000
39.72400
39.72800
39.73200
39.73600
39.74000
39.74400
39.74800
39.75200
39.75600
39.76000
39.76400
39.76800
39.77200
39.77600
39.78000
39.78400
39.78800
39.79200
39.79600
39.80000
39.80400
39.80800
39.81200
39.81600
39.82000
39.82400
39.82800
39.83200
39.83600
39.84000
39.84400
39.84800
39.85200
39.85600
39.86000
39.86400
39.86800
39.87200
39.87600
39.88000
39.88400
39.88800
39.89200
39.89600
39.90000
39.90400
39.90800
39.91200
39.91600
39.92000
39.92400
39.92800
39.93200
39.93600
39.94000
39.94400
39.94800
39.95200
39.95600
39.96000
39.96400
39.96800
39.97200
39.97600
39.98000
39.98400
39.98800
39.99200
39.99600
40.00000
40.00400
40.00800
40.01200
40.01600
40.02000
40.02400
40.02800
40.03200
40.03600
40.04000
40.04400
40.04800
40.05200
40.05600
40.06000
40.06400
40.06800
40.07200
40.07600
40.08000
40.08400
40.08800
40.09200
40.09600
40.10000
40.10400
40.10800
40.11200
40.11600
40.12000
40.12400
40.12800
40.13200
40.13600
40.14000
40.14400
40.14800
40.15200
40.15600
40.16000
40.16400
40.16800
40.17200
40.17600
40.18000
40.18400
40.18800
40.19200
40.19600
40.20000
40.20400
40.20800
40.21200
40.21600
40.22000
40.22400
40.22800
40.23200
40.23600
40.24000
40.24400
40.24800
40.25200
40.25600
40.26000
40.26400
40.26800
40.27200
40.27600
40.28000
40.28400
40.28800
40.29200
40.29600
40.30000
40.30400
40.30800
40.31200
40.31600
40.32000
40.32400
40.32800
40.33200
40.33600
40.34000
40.34400
40.34800
40.35200
40.35600
40.36000
40.36400
40.36800
40.37200
40.37600
40.38000
40.38400
40.38800
40.39200
40.39600
40.40000
40.40400
40.40800
40.41200
40.41600
40.42000
40.42400
40.42800
40.43200
40.43600
40.44000
40.44400
40.44800
40.45200
40.45600
40.46000
40.46400
40.46800
40.47200
40.47600
40.48000
40.48400
40.48800
40.49200
40.49600
40.50000
40.50400
40.50800
40.51200
40.51600
40.52000
40.52400
40.52800
40.53200
40.53600
40.54000
40.54400
40.54800
40.55200
40.55600
40.56000
40.56400
40.56800
40.57200
40.57600
40.58000
40.58400
40.58800
40.59200
40.59600
40.60000
40.60400
40.60800
40.61200
40.61600
40.62000
40.62400
40.62800
40.63200
40.63600
40.64000
40.64400
40.64800
40.65200
40.65600
40.66000
40.66400
40.66800
40.67200
40.67600
40.68000
40.68400
40.68800
40.69200
40.69600
40.70000
40.70400
40.70800
40.71200
40.71600
40.72000
40.72400
40.72800
40.73200
40.73600
40.74000
40.74400
40.74800
40.75200
40.75600
40.76000
40.76400
40.76800
40.77200
40.77600
40.78000
40.78400
40.78800
40.79200
40.79600
40.80000
40.80400
40.80800
40.81200
40.81600
40.82000
40.82400
40.82800
40.83200
40.83600
40.84000
40.84400
40.84800
40.85200
40.85600
40.86000
40.86400
40.86800
40.87200
40.87600
40.88000
40.88400
40.88800
40.89200
40.89600
40.90000
40.90400
40.90800
40.91200
40.91600
40.92000
40.92400
40.92800
40.93200
40.93600
40.94000
40.94400
40.94800
40.95200
40.95600
40.96000
40.96400
40.96800
40.97200
40.97600
40.98000
40.98400
40.98800
40.99200
40.99600
41.00000
41.00400
41.00800
41.01200
41.01600
41.02000
41.02400
41.02800
41.03200
41.03600
41.04000
41.04400
41.04800
41.05200
41.05600
41.06000
41.06400
41.06800
41.07200
41.07600
41.08000
41.08400
41.08800
41.09200
41.09600
41.10000
41.10400
41.10800
41.11200
41.11600
41.12000
41.12400
41.12800
41.13200
41.13600
41.14000
41.14400
41.14800
41.15200
41.15600
41.16000
41.16400
41.16800
41.17200
41.17600
41.18000
41.18400
41.18800
41.19200
41.19600
41.20000
41.20400
41.20800
41.21200
41.21600
41.22000
41.22400
41.22800
41.23200
41.23600
41.24000
41.24400
41.24800
41.25200
41.25600
41.26000
41.26400
41.26800
41.27200
41.27600
41.28000
41.28400
41.28800
41.29200
41.29600
41.30000
41.30400
41.30800
41.31200
41.31600
41.32000
41.32400
41.32800
41.33200
41.33600
41.34000
41.34400
41.34800
41.35200
41.35600
41.36000
41.36400
41.36800
41.37200
41.37600
41.38000
41.38400
41.38800
41.39200
41.39600
41.40000
41.40400
41.40800
41.41200
41.41600
41.42000
41.42400
41.42800
41.43200
41.43600
41.44000
41.44400
41.44800
41.45200
41.45600
41.46000
41.46400
41.46800
41.47200
41.47600
41.48000
41.48400
41.48800
41.49200
41.49600
41.50000
41.50400
41.50800
41.51200
41.51600
41.52000
41.52400
41.52800
41.53200
41.53600
41.54000
41.54400
41.54800
41.55200
41.55600
41.56000
41.56400
41.56800
41.57200
41.57600
41.58000
41.58400
41.58800
41.59200
41.59600
41.60000
41.60400
41.60800
41.61200
41.61600
41.62000
41.62400
41.62800
41.63200
41.63600
41.64000
41.64400
41.64800
41.65200
41.65600
41.66000
41.66400
41.66800
41.67200
41.67600
41.68000
41.68400
41.68800
41.69200
41.69600
41.70000
41.70400
41.70800
41.71200
41.71600
41.72000
41.72400
41.72800
41.73200
41.73600
41.74000
41.74400
41.74800
41.75200
41.75600
41.76000
41.76400
41.76800
41.77200
41.77600
41.78000
41.78400
41.78800
41.79200
41.79600
41.80000
41.80400
41.80800
41.81200
41.81600
41.82000
41.82400
41.82800
41.83200
41.83600
41.84000
41.84400
41.84800
41.85200
41.85600
41.86000
41.86400
41.86800
41.87200
41.87600
41.88000
41.88400
41.88800
41.89200
41.89600
41.90000
41.90400
41.90800
41.91200
41.91600
41.92000
41.92400
41.92800
41.93200
41.93600
41.94000
41.94400
41.94800
41.95200
41.95600
41.96000
41.96400
41.96800
41.97200
41.97600
41.98000
41.98400
41.98800
41.99200
41.99600
42.00000
42.00400
42.00800
42.01200
42.01600
42.02000
42.02400
42.02800
42.03200
42.03600
42.04000
42.04400
42.04800
42.05200
42.05600
42.06000
42.06400
42.06800
42.07200
42.07600
42.08000
42.08400
42.08800
42.09200
42.09600
42.10000
42.10400
42.10800
42.11200
42.11600
42.12000
42.12400
42.12800
42.13200
42.13600
42.14000
42.14400
42.14800
42.15200
42.15600
42.16000
42.16400
42.16800
42.17200
42.17600
42.18000
42.18400
42.18800
42.19200
42.19600
42.20000
42.20400
42.20800
42.21200
42.21600
42.22000
42.22400
42.22800
42.23200
42.23600
42.24000
42.24400
42.24800
42.25200
42.25600
42.26000
42.26400
42.26800
42.27200
42.27600
42.28000
42.28400
42.28800
42.29200
42.29600
42.30000
42.30400
42.30800
42.31200
42.31600
42.32000
42.32400
42.32800
42.33200
42.33600
42.34000
42.34400
42.34800
42.35200
42.35600
42.36000
42.36400
42.36800
42.37200
42.37600
42.38000
42.38400
42.38800
42.39200
42.39600
42.40000
42.40400
42.40800
42.41200
42.41600
42.42000
42.42400
42.42800
42.43200
42.43600
42.44000
42.44400
42.44800
42.45200
42.45600
42.46000
42.46400
42.46800
42.47200
42.47600
42.48000
42.48400
42.48800
42.49200
42.49600
42.50000
42.50400
42.50800
42.51200
42.51600
42.52000
42.52400
42.52800
42.53200
42.53600
42.54000
42.54400
42.54800
42.55200
42.55600
42.56000
42.56400
42.56800
42.57200
42.57600
42.58000
42.58400
42.58800
42.59200
42.59600
42.60000
42.60400
42.60800
42.61200
42.61600
42.62000
42.62400
42.62800
42.63200
42.63600
42.64000
42.64400
42.64800
42.65200
42.65600
42.66000
42.66400
42.66800
42.67200
42.67600
42.68000
42.68400
42.68800
42.69200
42.69600
42.70000
42.70400
42.70800
42.71200
42.71600
42.72000
42.72400
42.72800
42.73200
42.73600
42.74000
42.74400
42.74800
42.75200
42.75600
42.76000
42.76400
42.76800
42.77200
42.77600
42.78000
42.78400
42.78800
42.79200
42.79600
42.80000
42.80400
42.80800
42.81200
42.81600
42.82000
42.82400
42.82800
42.83200
42.83600
42.84000
42.84400
42.84800
42.85200
42.85600
42.86000
42.86400
42.86800
42.87200
42.87600
42.88000
42.88400
42.88800
42.89200
42.89600
42.90000
42.90400
42.90800
42.91200
42.91600
42.92000
42.92400
42.92800
42.93200
42.93600
42.94000
42.94400
42.94800
42.95200
42.95600
42.96000
42.96400
42.96800
42.97200
42.97600
42.98000
42.98400
42.98800
42.99200
42.99600
43.00000
43.00400
43.00800
43.01200
43.01600
43.02000
43.02400
43.02800
43.03200
43.03600
43.04000
43.04400
43.04800
43.05200
43.05600
43.06000
43.06400
43.06800
43.07200
43.07600
43.08000
43.08400
43.08800
43.09200
43.09600
43.10000
43.10400
43.10800
43.11200
43.11600
43.12000
43.12400
43.12800
43.13200
43.13600
43.14000
43.14400
43.14800
43.15200
43.15600
43.16000
43.16400
43.16800
43.17200
43.17600
43.18000
43.18400
43.18800
43.19200
43.19600
43.20000
43.20400
43.20800
43.21200
43.21600
43.22000
43.22400
43.22800
43.23200
43.23600
43.24000
43.24400
43.24800
43.25200
43.25600
43.26000
43.26400
43.26800
43.27200
43.27600
43.28000
43.28400
43.28800
43.29200
43.29600
43.30000
43.30400
43.30800
43.31200
43.31600
43.32000
43.32400
43.32800
43.33200
43.33600
43.34000
43.34400
43.34800
43.35200
43.35600
43.36000
43.36400
43.36800
43.37200
43.37600
43.38000
43.38400
43.38800
43.39200
43.39600
43.40000
43.40400
43.40800
43.41200
43.41600
43.42000
43.42400
43.42800
43.43200
43.43600
43.44000
43.44400
43.44800
43.45200
43.45600
43.46000
43.46400
43.46800
43.47200
43.47600
43.48000
43.48400
43.48800
43.49200
43.49600
43.50000
43.50400
43.50800
43.51200
43.51600
43.52000
43.52400
43.52800
43.53200
43.53600
43.54000
43.54400
43.54800
43.55200
43.55600
43.56000
43.56400
43.56800
43.57200
43.57600
43.58000
43.58400
43.58800
43.59200
43.59600
43.60000
43.60400
43.60800
43.61200
43.61600
43.62000
43.62400
43.62800
43.63200
43.63600
43.64000
43.64400
43.64800
43.65200
43.65600
43.66000
43.66400
43.66800
43.67200
43.67600
43.68000
43.68400
43.68800
43.69200
43.69600
43.70000
43.70400
43.70800
43.71200
43.71600
43.72000
43.72400
43.72800
43.73200
43.73600
43.74000
43.74400
43.74800
43.75200
43.75600
43.76000
43.76400
43.76800
43.77200
43.77600
43.78000
43.78400
43.78800
43.79200
43.79600
43.80000
43.80400
43.80800
43.81200
43.81600
43.82000
43.82400
43.82800
43.83200
43.83600
43.84000
43.84400
43.84800
43.85200
43.85600
43.86000
43.86400
43.86800
43.87200
43.87600
43.88000
43.88400
43.88800
43.89200
43.89600
43.90000
43.90400
43.90800
43.91200
43.91600
43.92000
43.92400
43.92800
43.93200
43.93600
43.94000
43.94400
43.94800
43.95200
43.95600
43.96000
43.96400
43.96800
43.97200
43.97600
43.98000
43.98400
43.98800
43.99200
43.99600
44.00000
44.00400
44.00800
44.01200
44.01600
44.02000
44.02400
44.02800
44.03200
44.03600
44.04000
44.04400
44.04800
44.05200
44.05600
44.06000
44.06400
44.06800
44.07200
44.07600
44.08000
44.08400
44.08800
44.09200
44.09600
44.10000
44.10400
44.10800
44.11200
44.11600
44.12000
44.12400
44.12800
44.13200
44.13600
44.14000
44.14400
44.14800
44.15200
44.15600
44.16000
44.16400
44.16800
44.17200
44.17600
44.18000
44.18400
44.18800
44.19200
44.19600
44.20000
44.20400
44.20800
44.21200
44.21600
44.22000
44.22400
44.22800
44.23200
44.23600
44.24000
44.24400
44.24800
44.25200
44.25600
44.26000
44.26400
44.26800
44.27200
44.27600
44.28000
44.28400
44.28800
44.29200
44.29600
44.30000
44.30400
44.30800
44.31200
44.31600
44.32000
44.32400
44.32800
44.33200
44.33600
44.34000
44.34400
44.34800
44.35200
44.35600
44.36000
44.36400
44.36800
44.37200
44.37600
44.38000
44.38400
44.38800
44.39200
44.39600
44.40000
44.40400
44.40800
44.41200
44.41600
44.42000
44.42400
44.42800
44.43200
44.43600
44.44000
44.44400
44.44800
44.45200
44.45600
44.46000
44.46400
44.46800
44.47200
44.47600
44.48000
44.48400
44.48800
44.49200
44.49600
44.50000
44.50400
44.50800
44.51200
44.51600
44.52000
44.52400
44.52800
44.53200
44.53600
44.54000
44.54400
44.54800
44.55200
44.55600
44.56000
44.56400
44.56800
44.57200
44.57600
44.58000
44.58400
44.58800
44.59200
44.59600
44.60000
44.60400
44.60800
44.61200
44.61600
44.62000
44.62400
44.62800
44.63200
44.63600
44.64000
44.64400
44.64800
44.65200
44.65600
44.66000
44.66400
44.66800
44.67200
44.67600
44.68000
44.68400
44.68800
44.69200
44.69600
44.70000
44.70400
44.70800
44.71200
44.71600
44.72000
44.72400
44.72800
44.73200
44.73600
44.74000
44.74400
44.74800
44.75200
44.75600
44.76000
44.76400
44.76800
44.77200
44.77600
44.78000
44.78400
44.78800
44.79200
44.79600
44.80000
44.80400
44.80800
44.81200
44.81600
44.82000
44.82400
44.82800
44.83200
44.83600
44.84000
44.84400
44.84800
44.85200
44.85600
44.86000
44.86400
44.86800
44.87200
44.87600
44.88000
44.88400
44.88800
44.89200
44.89600
44.90000
44.90400
44.90800
44.91200
44.91600
44.92000
44.92400
44.92800
44.93200
44.93600
44.94000
44.94400
44.94800
44.95200
44.95600
44.96000
44.96400
44.96800
44.97200
44.97600
44.98000
44.98400
44.98800
44.99200
44.99600
45.00000
45.00400
45.00800
45.01200
45.01600
45.02000
45.02400
45.02800
45.03200
45.03600
45.04000
45.04400
45.04800
45.05200
45.05600
45.06000
45.06400
45.06800
45.07200
45.07600
45.08000
45.08400
45.08800
45.09200
45.09600
45.10000
45.10400
45.10800
45.11200
45.11600
45.12000
45.12400
45.12800
45.13200
45.13600
45.14000
45.14400
45.14800
45.15200
45.15600
45.16000
45.16400
45.16800
45.17200
45.17600
45.18000
45.18400
45.18800
45.19200
45.19600
45.20000
45.20400
45.20800
45.21200
45.21600
45.22000
45.22400
45.22800
45.23200
45.23600
45.24000
45.24400
45.24800
45.25200
45.25600
45.26000
45.26400
45.26800
45.27200
45.27600
45.28000
45.28400
45.28800
45.29200
45.29600
45.30000
45.30400
45.30800
45.31200
45.31600
45.32000
45.32400
45.32800
45.33200
45.33600
45.34000
45.34400
45.34800
45.35200
45.35600
45.36000
45.36400
45.36800
45.37200
45.37600
45.38000
45.38400
45.38800
45.39200
45.39600
45.40000
45.40400
45.40800
45.41200
45.41600
45.42000
45.42400
45.42800
45.43200
45.43600
45.44000
45.44400
45.44800
45.45200
45.45600
45.46000
45.46400
45.46800
45.47200
45.47600
45.48000
45.48400
45.48800
45.49200
45.49600
45.50000
45.50400
45.50800
45.51200
45.51600
45.52000
45.52400
45.52800
45.53200
45.53600
45.54000
45.54400
45.54800
45.55200
45.55600
45.56000
45.56400
45.56800
45.57200
45.57600
45.58000
45.58400
45.58800
45.59200
45.59600
45.60000
45.60400
45.60800
45.61200
45.61600
45.62000
45.62400
45.62800
45.63200
45.63600
45.64000
45.64400
45.64800
45.65200
45.65600
45.66000
45.66400
45.66800
45.67200
45.67600
45.68000
45.68400
45.68800
45.69200
45.69600
45.70000
45.70400
45.70800
45.71200
45.71600
45.72000
45.72400
45.72800
45.73200
45.73600
45.74000
45.74400
45.74800
45.75200
45.75600
45.76000
45.76400
45.76800
45.77200
45.77600
45.78000
45.78400
45.78800
45.79200
45.79600
45.80000
45.80400
45.80800
45.81200
45.81600
45.82000
45.82400
45.82800
45.83200
45.83600
45.84000
45.84400
45.84800
45.85200
45.85600
45.86000
45.86400
45.86800
45.87200
45.87600
45.88000
45.88400
45.88800
45.89200
45.89600
45.90000
45.90400
45.90800
45.91200
45.91600
45.92000
45.92400
45.92800
45.93200
45.93600
45.94000
45.94400
45.94800
45.95200
45.95600
45.96000
45.96400
45.96800
45.97200
45.97600
45.98000
45.98400
45.98800
45.99200
45.99600
46.00000
46.00400
46.00800
46.01200
46.01600
46.02000
46.02400
46.02800
46.03200
46.03600
46.04000
46.04400
46.04800
46.05200
46.05600
46.06000
46.06400
46.06800
46.07200
46.07600
46.08000
46.08400
46.08800
46.09200
46.09600
46.10000
46.10400
46.10800
46.11200
46.11600
46.12000
46.12400
46.12800
46.13200
46.13600
46.14000
46.14400
46.14800
46.15200
46.15600
46.16000
46.16400
46.16800
46.17200
46.17600
46.18000
46.18400
46.18800
46.19200
46.19600
46.20000
46.20400
46.20800
46.21200
46.21600
46.22000
46.22400
46.22800
46.23200
46.23600
46.24000
46.24400
46.24800
46.25200
46.25600
46.26000
46.26400
46.26800
46.27200
46.27600
46.28000
46.28400
46.28800
46.29200
46.29600
46.30000
46.30400
46.30800
46.31200
46.31600
46.32000
46.32400
46.32800
46.33200
46.33600
46.34000
46.34400
46.34800
46.35200
46.35600
46.36000
46.36400
46.36800
46.37200
46.37600
46.38000
46.38400
46.38800
46.39200
46.39600
46.40000
46.40400
46.40800
46.41200
46.41600
46.42000
46.42400
46.42800
46.43200
46.43600
46.44000
46.44400
46.44800
46.45200
46.45600
46.46000
46.46400
46.46800
46.47200
46.47600
46.48000
46.48400
46.48800
46.49200
46.49600
46.50000
46.50400
46.50800
46.51200
46.51600
46.52000
46.52400
46.52800
46.53200
46.53600
46.54000
46.54400
46.54800
46.55200
46.55600
46.56000
46.56400
46.56800
46.57200
46.57600
46.58000
46.58400
46.58800
46.59200
46.59600
46.60000
46.60400
46.60800
46.61200
46.61600
46.62000
46.62400
46.62800
46.63200
46.63600
46.64000
46.64400
46.64800
46.65200
46.65600
46.66000
46.66400
46.66800
46.67200
46.67600
46.68000
46.68400
46.68800
46.69200
46.69600
46.70000
46.70400
46.70800
46.71200
46.71600
46.72000
46.72400
46.72800
46.73200
46.73600
46.74000
46.74400
46.74800
46.75200
46.75600
46.76000
46.76400
46.76800
46.77200
46.77600
46.78000
46.78400
46.78800
46.79200
46.79600
46.80000
46.80400
46.80800
46.81200
46.81600
46.82000
46.82400
46.82800
46.83200
46.83600
46.84000
46.84400
46.84800
46.85200
46.85600
46.86000
46.86400
46.86800
46.87200
46.87600
46.88000
46.88400
46.88800
46.89200
46.89600
46.90000
46.90400
46.90800
46.91200
46.91600
46.92000
46.92400
46.92800
46.93200
46.93600
46.94000
46.94400
46.94800
46.95200
46.95600
46.96000
46.96400
46.96800
46.97200
46.97600
46.98000
46.98400
46.98800
46.99200
46.99600
47.00000
47.00400
47.00800
47.01200
47.01600
47.02000
47.02400
47.02800
47.03200
47.03600
47.04000
47.04400
47.04800
47.05200
47.05600
47.06000
47.06400
47.06800
47.07200
47.07600
47.08000
47.08400
47.08800
47.09200
47.09600
47.10000
47.10400
47.10800
47.11200
47.11600
47.12000
47.12400
47.12800
47.13200
47.13600
47.14000
47.14400
47.14800
47.15200
47.15600
47.16000
47.16400
47.16800
47.17200
47.17600
47.18000
47.18400
47.18800
47.19200
47.19600
47.20000
47.20400
47.20800
47.21200
47.21600
47.22000
47.22400
47.22800
47.23200
47.23600
47.24000
47.24400
47.24800
47.25200
47.25600
47.26000
47.26400
47.26800
47.27200
47.27600
47.28000
47.28400
47.28800
47.29200
47.29600
47.30000
47.30400
47.30800
47.31200
47.31600
47.32000
47.32400
47.32800
47.33200
47.33600
47.34000
47.34400
47.34800
47.35200
47.35600
47.36000
47.36400
47.36800
47.37200
47.37600
47.38000
47.38400
47.38800
47.39200
47.39600
47.40000
47.40400
47.40800
47.41200
47.41600
47.42000
47.42400
47.42800
47.43200
47.43600
47.44000
47.44400
47.44800
47.45200
47.45600
47.46000
47.46400
47.46800
47.47200
47.47600
47.48000
47.48400
47.48800
47.49200
47.49600
47.50000
47.50400
47.50800
47.51200
47.51600
47.52000
47.52400
47.52800
47.53200
47.53600
47.54000
47.54400
47.54800
47.55200
47.55600
47.56000
47.56400
47.56800
47.57200
47.57600
47.58000
47.58400
47.58800
47.59200
47.59600
47.60000
47.60400
47.60800
47.61200
47.61600
47.62000
47.62400
47.62800
47.63200
47.63600
47.64000
47.64400
47.64800
47.65200
47.65600
47.66000
47.66400
47.66800
47.67200
47.67600
47.68000
47.68400
47.68800
47.69200
47.69600
47.70000
47.70400
47.70800
47.71200
47.71600
47.72000
47.72400
47.72800
47.73200
47.73600
47.74000
47.74400
47.74800
47.75200
47.75600
47.76000
47.76400
47.76800
47.77200
47.77600
47.78000
47.78400
47.78800
47.79200
47.79600
47.80000
47.80400
47.80800
47.81200
47.81600
47.82000
47.82400
47.82800
47.83200
47.83600
47.84000
47.84400
47.84800
47.85200
47.85600
47.86000
47.86400
47.86800
47.87200
47.87600
47.88000
47.88400
47.88800
47.89200
47.89600
47.90000
47.90400
47.90800
47.91200
47.91600
47.92000
47.92400
47.92800
47.93200
47.93600
47.94000
47.94400
47.94800
47.95200
47.95600
47.96000
47.96400
47.96800
47.97200
47.97600
47.98000
47.98400
47.98800
47.99200
47.99600
48.00000
48.00400
48.00800
48.01200
48.01600
48.02000
48.02400
48.02800
48.03200
48.03600
48.04000
48.04400
48.04800
48.05200
48.05600
48.06000
48.06400
48.06800
48.07200
48.07600
48.08000
48.08400
48.08800
48.09200
48.09600
48.10000
48.10400
48.10800
48.11200
48.11600
48.12000
48.12400
48.12800
48.13200
48.13600
48.14000
48.14400
48.14800
48.15200
48.15600
48.16000
48.16400
48.16800
48.17200
48.17600
48.18000
48.18400
48.18800
48.19200
48.19600
48.20000
48.20400
48.20800
48.21200
48.21600
48.22000
48.22400
48.22800
48.23200
48.23600
48.24000
48.24400
48.24800
48.25200
48.25600
48.26000
48.26400
48.26800
48.27200
48.27600
48.28000
48.28400
48.28800
48.29200
48.29600
48.30000
48.30400
48.30800
48.31200
48.31600
48.32000
48.32400
48.32800
48.33200
48.33600
48.34000
48.34400
48.34800
48.35200
48.35600
48.36000
48.36400
48.36800
48.37200
48.37600
48.38000
48.38400
48.38800
48.39200
48.39600
48.40000
48.40400
48.40800
48.41200
48.41600
48.42000
48.42400
48.42800
48.43200
48.43600
48.44000
48.44400
48.44800
48.45200
48.45600
48.46000
48.46400
48.46800
48.47200
48.47600
48.48000
48.48400
48.48800
48.49200
48.49600
48.50000
48.50400
48.50800
48.51200
48.51600
48.52000
48.52400
48.52800
48.53200
48.53600
48.54000
48.54400
48.54800
48.55200
48.55600
48.56000
48.56400
48.56800
48.57200
48.57600
48.58000
48.58400
48.58800
48.59200
48.59600
48.60000
48.60400
48.60800
48.61200
48.61600
48.62000
48.62400
48.62800
48.63200
48.63600
48.64000
48.64400
48.64800
48.65200
48.65600
48.66000
48.66400
48.66800
48.67200
48.67600
48.68000
48.68400
48.68800
48.69200
48.69600
48.70000
48.70400
48.70800
48.71200
48.71600
48.72000
48.72400
48.72800
48.73200
48.73600
48.74000
48.74400
48.74800
48.75200
48.75600
48.76000
48.76400
48.76800
48.77200
48.77600
48.78000
48.78400
48.78800
48.79200
48.79600
48.80000
48.80400
48.80800
48.81200
48.81600
48.82000
48.82400
48.82800
48.83200
48.83600
48.84000
48.84400
48.84800
48.85200
48.85600
48.86000
48.86400
48.86800
48.87200
48.87600
48.88000
48.88400
48.88800
48.89200
48.89600
48.90000
48.90400
48.90800
48.91200
48.91600
48.92000
48.92400
48.92800
48.93200
48.93600
48.94000
48.94400
48.94800
48.95200
48.95600
48.96000
48.96400
48.96800
48.97200
48.97600
48.98000
48.98400
48.98800
48.99200
48.99600
49.00000
49.00400
49.00800
49.01200
49.01600
49.02000
49.02400
49.02800
49.03200
49.03600
49.04000
49.04400
49.04800
49.05200
49.05600
49.06000
49.06400
49.06800
49.07200
49.07600
49.08000
49.08400
49.08800
49.09200
49.09600
49.10000
49.10400
49.10800
49.11200
49.11600
49.12000
49.12400
49.12800
49.13200
49.13600
49.14000
49.14400
49.14800
49.15200
49.15600
49.16000
49.16400
49.16800
49.17200
49.17600
49.18000
49.18400
49.18800
49.19200
49.19600
49.20000
49.20400
49.20800
49.21200
49.21600
49.22000
49.22400
49.22800
49.23200
49.23600
49.24000
49.24400
49.24800
49.25200
49.25600
49.26000
49.26400
49.26800
49.27200
49.27600
49.28000
49.28400
49.28800
49.29200
49.29600
49.30000
49.30400
49.30800
49.31200
49.31600
49.32000
49.32400
49.32800
49.33200
49.33600
49.34000
49.34400
49.34800
49.35200
49.35600
49.36000
49.36400
49.36800
49.37200
49.37600
49.38000
49.38400
49.38800
49.39200
49.39600
49.40000
49.40400
49.40800
49.41200
49.41600
49.42000
49.42400
49.42800
49.43200
49.43600
49.44000
49.44400
49.44800
49.45200
49.45600
49.46000
49.46400
49.46800
49.47200
49.47600
49.48000
49.48400
49.48800
49.49200
49.49600
49.50000
49.50400
49.50800
49.51200
49.51600
49.52000
49.52400
49.52800
49.53200
49.53600
49.54000
49.54400
49.54800
49.55200
49.55600
49.56000
49.56400
49.56800
49.57200
49.57600
49.58000
49.58400
49.58800
49.59200
49.59600
49.60000
49.60400
49.60800
49.61200
49.61600
49.62000
49.62400
49.62800
49.63200
49.63600
49.64000
49.64400
49.64800
49.65200
49.65600
49.66000
49.66400
49.66800
49.67200
49.67600
49.68000
49.68400
49.68800
49.69200
49.69600
49.70000
49.70400
49.70800
49.71200
49.71600
49.72000
49.72400
49.72800
49.73200
49.73600
49.74000
49.74400
49.74800
49.75200
49.75600
49.76000
49.76400
49.76800
49.77200
49.77600
49.78000
49.78400
49.78800
49.79200
49.79600
49.80000
49.80400
49.80800
49.81200
49.81600
49.82000
49.82400
49.82800
49.83200
49.83600
49.84000
49.84400
49.84800
49.85200
49.85600
49.86000
49.86400
49.86800
49.87200
49.87600
49.88000
49.88400
49.88800
49.89200
49.89600
49.90000
49.90400
49.90800
49.91200
49.91600
49.92000
49.92400
49.92800
49.93200
49.93600
49.94000
49.94400
49.94800
49.95200
49.95600
49.96000
49.96400
49.96800
49.97200
49.97600
49.98000
49.98400
49.98800
49.99200
49.99600
50.00000
50.00400
50.00800
50.01200
50.01600
50.02000
50.02400
50.02800
50.03200
50.03600
50.04000
50.04400
50.04800
50.05200
50.05600
50.06000
50.06400
50.06800
50.07200
50.07600
50.08000
50.08400
50.08800
50.09200
50.09600
50.10000
50.10400
50.10800
50.11200
50.11600
50.12000
50.12400
50.12800
50.13200
50.13600
50.14000
50.14400
50.14800
50.15200
50.15600
50.16000
50.16400
50.16800
50.17200
50.17600
50.18000
50.18400
50.18800
50.19200
50.19600
50.20000
50.20400
50.20800
50.21200
50.21600
50.22000
50.22400
50.22800
50.23200
50.23600
50.24000
50.24400
50.24800
50.25200
50.25600
50.26000
50.26400
50.26800
50.27200
50.27600
50.28000
50.28400
50.28800
50.29200
50.29600
50.30000
50.30400
50.30800
50.31200
50.31600
50.32000
50.32400
50.32800
50.33200
50.33600
50.34000
50.34400
50.34800
50.35200
50.35600
50.36000
50.36400
50.36800
50.37200
50.37600
50.38000
50.38400
50.38800
50.39200
50.39600
50.40000
50.40400
50.40800
50.41200
50.41600
50.42000
50.42400
50.42800
50.43200
50.43600
50.44000
50.44400
50.44800
50.45200
50.45600
50.46000
50.46400
50.46800
50.47200
50.47600
50.48000
50.48400
50.48800
50.49200
50.49600
50.50000
50.50400
50.50800
50.51200
50.51600
50.52000
50.52400
50.52800
50.53200
50.53600
50.54000
50.54400
50.54800
50.55200
50.55600
50.56000
50.56400
50.56800
50.57200
50.57600
50.58000
50.58400
50.58800
50.59200
50.59600
50.60000
50.60400
50.60800
50.61200
50.61600
50.62000
50.62400
50.62800
50.63200
50.63600
50.64000
50.64400
50.64800
50.65200
50.65600
50.66000
50.66400
50.66800
50.67200
50.67600
50.68000
50.68400
50.68800
50.69200
50.69600
50.70000
50.70400
50.70800
50.71200
50.71600
50.72000
50.72400
50.72800
50.73200
50.73600
50.74000
50.74400
50.74800
50.75200
50.75600
50.76000
50.76400
50.76800
50.77200
50.77600
50.78000
50.78400
50.78800
50.79200
50.79600
50.80000
50.80400
50.80800
50.81200
50.81600
50.82000
50.82400
50.82800
50.83200
50.83600
50.84000
50.84400
50.84800
50.85200
50.85600
50.86000
50.86400
50.86800
50.87200
50.87600
50.88000
50.88400
50.88800
50.89200
50.89600
50.90000
50.90400
50.90800
50.91200
50.91600
50.92000
50.92400
50.92800
50.93200
50.93600
50.94000
50.94400
50.94800
50.95200
50.95600
50.96000
50.96400
50.96800
50.97200
50.97600
50.98000
50.98400
50.98800
50.99200
50.99600
51.00000
51.00400
51.00800
51.01200
51.01600
51.02000
51.02400
51.02800
51.03200
51.03600
51.04000
51.04400
51.04800
51.05200
51.05600
51.06000
51.06400
51.06800
51.07200
51.07600
51.08000
51.08400
51.08800
51.09200
51.09600
51.10000
51.10400
51.10800
51.11200
51.11600
51.12000
51.12400
51.12800
51.13200
51.13600
51.14000
51.14400
51.14800
51.15200
51.15600
51.16000
51.16400
51.16800
51.17200
51.17600
51.18000
51.18400
51.18800
51.19200
51.19600
51.20000
51.20400
51.20800
51.21200
51.21600
51.22000
51.22400
51.22800
51.23200
51.23600
51.24000
51.24400
51.24800
51.25200
51.25600
51.26000
51.26400
51.26800
51.27200
51.27600
51.28000
51.28400
51.28800
51.29200
51.29600
51.30000
51.30400
51.30800
51.31200
51.31600
51.32000
51.32400
51.32800
51.33200
51.33600
51.34000
51.34400
51.34800
51.35200
51.35600
51.36000
51.36400
51.36800
51.37200
51.37600
51.38000
51.38400
51.38800
51.39200
51.39600
51.40000
51.40400
51.40800
51.41200
51.41600
51.42000
51.42400
51.42800
51.43200
51.43600
51.44000
51.44400
51.44800
51.45200
51.45600
51.46000
51.46400
51.46800
51.47200
51.47600
51.48000
51.48400
51.48800
51.49200
51.49600
51.50000
51.50400
51.50800
51.51200
51.51600
51.52000
51.52400
51.52800
51.53200
51.53600
51.54000
51.54400
51.54800
51.55200
51.55600
51.56000
51.56400
51.56800
51.57200
51.57600
51.58000
51.58400
51.58800
51.59200
51.59600
51.60000
51.60400
51.60800
51.61200
51.61600
51.62000
51.62400
51.62800
51.63200
51.63600
51.64000
51.64400
51.64800
51.65200
51.65600
51.66000
51.66400
51.66800
51.67200
51.67600
51.68000
51.68400
51.68800
51.69200
51.69600
51.70000
51.70400
51.70800
51.71200
51.71600
51.72000
51.72400
51.72800
51.73200
51.73600
51.74000
51.74400
51.74800
51.75200
51.75600
51.76000
51.76400
51.76800
51.77200
51.77600
51.78000
51.78400
51.78800
51.79200
51.79600
51.80000
51.80400
51.80800
51.81200
51.81600
51.82000
51.82400
51.82800
51.83200
51.83600
51.84000
51.84400
51.84800
51.85200
51.85600
51.86000
51.86400
51.86800
51.87200
51.87600
51.88000
51.88400
51.88800
51.89200
51.89600
51.90000
51.90400
51.90800
51.91200
51.91600
51.92000
51.92400
51.92800
51.93200
51.93600
51.94000
51.94400
51.94800
51.95200
51.95600
51.96000
51.96400
51.96800
51.97200
51.97600
51.98000
51.98400
51.98800
51.99200
51.99600
52.00000
52.00400
52.00800
52.01200
52.01600
52.02000
52.02400
52.02800
52.03200
52.03600
52.04000
52.04400
52.04800
52.05200
52.05600
52.06000
52.06400
52.06800
52.07200
52.07600
52.08000
52.08400
52.08800
52.09200
52.09600
52.10000
52.10400
52.10800
52.11200
52.11600
52.12000
52.12400
52.12800
52.13200
52.13600
52.14000
52.14400
52.14800
52.15200
52.15600
52.16000
52.16400
52.16800
52.17200
52.17600
52.18000
52.18400
52.18800
52.19200
52.19600
52.20000
52.20400
52.20800
52.21200
52.21600
52.22000
52.22400
52.22800
52.23200
52.23600
52.24000
52.24400
52.24800
52.25200
52.25600
52.26000
52.26400
52.26800
52.27200
52.27600
52.28000
52.28400
52.28800
52.29200
52.29600
52.30000
52.30400
52.30800
52.31200
52.31600
52.32000
52.32400
52.32800
52.33200
52.33600
52.34000
52.34400
52.34800
52.35200
52.35600
52.36000
52.36400
52.36800
52.37200
52.37600
52.38000
52.38400
52.38800
52.39200
52.39600
52.40000
52.40400
52.40800
52.41200
52.41600
52.42000
52.42400
52.42800
52.43200
52.43600
52.44000
52.44400
52.44800
52.45200
52.45600
52.46000
52.46400
52.46800
52.47200
52.47600
52.48000
52.48400
52.48800
52.49200
52.49600
52.50000
52.50400
52.50800
52.51200
52.51600
52.52000
52.52400
52.52800
52.53200
52.53600
52.54000
52.54400
52.54800
52.55200
52.55600
52.56000
52.56400
52.56800
52.57200
52.57600
52.58000
52.58400
52.58800
52.59200
52.59600
52.60000
52.60400
52.60800
52.61200
52.61600
52.62000
52.62400
52.62800
52.63200
52.63600
52.64000
52.64400
52.64800
52.65200
52.65600
52.66000
52.66400
52.66800
52.67200
52.67600
52.68000
52.68400
52.68800
52.69200
52.69600
52.70000
52.70400
52.70800
52.71200
52.71600
52.72000
52.72400
52.72800
52.73200
52.73600
52.74000
52.74400
52.74800
52.75200
52.75600
52.76000
52.76400
52.76800
52.77200
52.77600
52.78000
52.78400
52.78800
52.79200
52.79600
52.80000
52.80400
52.80800
52.81200
52.81600
52.82000
52.82400
52.82800
52.83200
52.83600
52.84000
52.84400
52.84800
52.85200
52.85600
52.86000
52.86400
52.86800
52.87200
52.87600
52.88000
52.88400
52.88800
52.89200
52.89600
52.90000
52.90400
52.90800
52.91200
52.91600
52.92000
52.92400
52.92800
52.93200
52.93600
52.94000
52.94400
52.94800
52.95200
52.95600
52.96000
52.96400
52.96800
52.97200
52.97600
52.98000
52.98400
52.98800
52.99200
52.99600
53.00000
53.00400
53.00800
53.01200
53.01600
53.02000
53.02400
53.02800
53.03200
53.03600
53.04000
53.04400
53.04800
53.05200
53.05600
53.06000
53.06400
53.06800
53.07200
53.07600
53.08000
53.08400
53.08800
53.09200
53.09600
53.10000
53.10400
53.10800
53.11200
53.11600
53.12000
53.12400
53.12800
53.13200
53.13600
53.14000
53.14400
53.14800
53.15200
53.15600
53.16000
53.16400
53.16800
53.17200
53.17600
53.18000
53.18400
53.18800
53.19200
53.19600
53.20000
53.20400
53.20800
53.21200
53.21600
53.22000
53.22400
53.22800
53.23200
53.23600
53.24000
53.24400
53.24800
53.25200
53.25600
53.26000
53.26400
53.26800
53.27200
53.27600
53.28000
53.28400
53.28800
53.29200
53.29600
53.30000
53.30400
53.30800
53.31200
53.31600
53.32000
53.32400
53.32800
53.33200
53.33600
53.34000
53.34400
53.34800
53.35200
53.35600
53.36000
53.36400
53.36800
53.37200
53.37600
53.38000
53.38400
53.38800
53.39200
53.39600
53.40000
53.40400
53.40800
53.41200
53.41600
53.42000
53.42400
53.42800
53.43200
53.43600
53.44000
53.44400
53.44800
53.45200
53.45600
53.46000
53.46400
53.46800
53.47200
53.47600
53.48000
53.48400
53.48800
53.49200
53.49600
53.50000
53.50400
53.50800
53.51200
53.51600
53.52000
53.52400
53.52800
53.53200
53.53600
53.54000
53.54400
53.54800
53.55200
53.55600
53.56000
53.56400
53.56800
53.57200
53.57600
53.58000
53.58400
53.58800
53.59200
53.59600
53.60000
53.60400
53.60800
53.61200
53.61600
53.62000
53.62400
53.62800
53.63200
53.63600
53.64000
53.64400
53.64800
53.65200
53.65600
53.66000
53.66400
53.66800
53.67200
53.67600
53.68000
53.68400
53.68800
53.69200
53.69600
53.70000
53.70400
53.70800
53.71200
53.71600
53.72000
53.72400
53.72800
53.73200
53.73600
53.74000
53.74400
53.74800
53.75200
53.75600
53.76000
53.76400
53.76800
53.77200
53.77600
53.78000
53.78400
53.78800
53.79200
53.79600
53.80000
53.80400
53.80800
53.81200
53.81600
53.82000
53.82400
53.82800
53.83200
53.83600
53.84000
53.84400
53.84800
53.85200
53.85600
53.86000
53.86400
53.86800
53.87200
53.87600
53.88000
53.88400
53.88800
53.89200
53.89600
53.90000
53.90400
53.90800
53.91200
53.91600
53.92000
53.92400
53.92800
53.93200
53.93600
53.94000
53.94400
53.94800
53.95200
53.95600
53.96000
53.96400
53.96800
53.97200
53.97600
53.98000
53.98400
53.98800
53.99200
53.99600
54.00000
54.00400
54.00800
54.01200
54.01600
54.02000
54.02400
54.02800
54.03200
54.03600
54.04000
54.04400
54.04800
54.05200
54.05600
54.06000
54.06400
54.06800
54.07200
54.07600
54.08000
54.08400
54.08800
54.09200
54.09600
54.10000
54.10400
54.10800
54.11200
54.11600
54.12000
54.12400
54.12800
54.13200
54.13600
54.14000
54.14400
54.14800
54.15200
54.15600
54.16000
54.16400
54.16800
54.17200
54.17600
54.18000
54.18400
54.18800
54.19200
54.19600
54.20000
54.20400
54.20800
54.21200
54.21600
54.22000
54.22400
54.22800
54.23200
54.23600
54.24000
54.24400
54.24800
54.25200
54.25600
54.26000
54.26400
54.26800
54.27200
54.27600
54.28000
54.28400
54.28800
54.29200
54.29600
54.30000
54.30400
54.30800
54.31200
54.31600
54.32000
54.32400
54.32800
54.33200
54.33600
54.34000
54.34400
54.34800
54.35200
54.35600
54.36000
54.36400
54.36800
54.37200
54.37600
54.38000
54.38400
54.38800
54.39200
54.39600
54.40000
54.40400
54.40800
54.41200
54.41600
54.42000
54.42400
54.42800
54.43200
54.43600
54.44000
