-0.01928
-0.01490
-0.01403
-0.01052
-0.01753
-0.03331
-0.05259
-0.07363
-0.09730
-0.11220
-0.12535
-0.12535
-0.12535
-0.12535
-0.12535
-0.13061
-0.13675
-0.14464
-0.14464
-0.13938
-0.13412
-0.12973
-0.12973
-0.12973
-0.13061
-0.13499
-0.13412
-0.12886
-0.12447
-0.12009
-0.12009
-0.12097
-0.12535
-0.12535
-0.12535
-0.12535
-0.13149
-0.14288
-0.16041
-0.15866
-0.10694
-0.01227
0.07626
0.16041
0.22528
0.21476
0.08941
-0.14288
-0.41988
-0.63464
-0.77402
-0.87308
-0.92479
-0.91603
-0.84064
-0.72756
-0.59520
-0.44180
-0.30680
-0.21126
-0.14814
-0.10081
-0.07276
-0.05347
-0.03945
-0.03419
-0.03068
-0.03419
-0.02980
-0.02893
-0.01841
-0.00964
-0.00526
-0.01052
-0.01490
-0.01578
-0.01928
-0.01403
-0.00438
0.00088
0.00526
0.00526
0.00438
0.00000
0.00088
0.00526
0.01052
0.01578
0.02016
0.01928
0.01490
0.01490
0.01490
0.01578
0.02104
0.03156
0.04032
0.04032
0.03945
0.03506
0.03506
0.03594
0.04032
0.04558
0.05084
0.05522
0.05522
0.05522
0.05522
0.05522
0.05610
0.06574
0.07100
0.08065
0.08503
0.08415
0.07977
0.08065
0.08590
0.09116
0.10081
0.10957
0.11045
0.11483
0.10957
0.10957
0.11045
0.11571
0.12623
0.13499
0.13499
0.13499
0.13499
0.13499
0.13499
0.13587
0.14113
0.15077
0.15515
0.16041
0.15954
0.15515
0.15515
0.15515
0.16129
0.17006
0.17532
0.17970
0.17970
0.17970
0.17444
0.17006
0.17532
0.17970
0.17970
0.17970
0.17970
0.17882
0.16918
0.16480
0.16480
0.16480
0.16480
0.16480
0.15954
0.15428
0.14376
0.13412
0.12447
0.12009
0.11922
0.11483
0.10870
0.09379
0.07889
0.06399
0.04909
0.03945
0.03419
0.02454
0.01928
0.00877
-0.00614
-0.02104
-0.03068
-0.04032
-0.04558
-0.04997
-0.05522
-0.05522
-0.06048
-0.07013
-0.07539
-0.08065
-0.08503
-0.07977
-0.07977
-0.07539
-0.07977
-0.08065
-0.08503
-0.09029
-0.08941
-0.08503
-0.07977
-0.07977
-0.08065
-0.08503
-0.09029
-0.09467
-0.09467
-0.08941
-0.07977
-0.07977
-0.07539
-0.07539
-0.07451
-0.06925
-0.06399
-0.05435
-0.03945
-0.02893
-0.01403
-0.00526
-0.00526
-0.00526
-0.00438
0.00526
0.00964
0.00964
0.00438
-0.01140
-0.03682
-0.06136
-0.08065
-0.09555
-0.09993
-0.09993
-0.10519
-0.11045
-0.11571
-0.12009
-0.12535
-0.12535
-0.12447
-0.12009
-0.11483
-0.10957
-0.11045
-0.11483
-0.12009
-0.12535
-0.12447
-0.11922
-0.10957
-0.10519
-0.10519
-0.11045
-0.12009
-0.12535
-0.12447
-0.12009
-0.12009
-0.12623
-0.14551
-0.14902
-0.11571
-0.02542
0.06925
0.15866
0.23492
0.22966
0.11045
-0.11220
-0.39972
-0.63026
-0.76350
-0.85291
-0.91603
-0.93882
-0.89587
-0.79944
-0.66883
-0.51981
-0.37518
-0.24720
-0.16304
-0.10344
-0.06399
-0.03945
-0.02980
-0.02542
-0.02454
-0.02016
-0.01928
-0.00964
-0.00526
-0.00526
-0.00526
-0.01052
-0.01490
-0.00964
-0.00964
-0.00526
0.00000
0.00964
0.00964
0.00526
0.00000
-0.00438
0.00526
0.01490
0.02016
0.02542
0.02980
0.02980
0.02980
0.02542
0.02542
0.03506
0.04032
0.04471
0.04032
0.04032
0.04032
0.04032
0.04032
0.04558
0.05522
0.06048
0.06487
0.06487
0.05961
0.05961
0.06048
0.06487
0.07013
0.08503
0.08503
0.09029
0.08503
0.08503
0.08503
0.08503
0.09555
0.11045
0.12009
0.12535
0.12973
0.12009
0.11483
0.11483
0.12009
0.12973
0.14025
0.14464
0.14990
0.14464
0.14025
0.14025
0.14025
0.14990
0.15515
0.16041
0.16480
0.16480
0.16480
0.16041
0.16480
0.17006
0.17970
0.17970
0.18496
0.17970
0.17970
0.17970
0.17970
0.17970
0.18496
0.19460
0.19460
0.19460
0.19022
0.18496
0.17970
0.17970
0.18496
0.19022
0.19460
0.19022
0.17970
0.17532
0.16480
0.15515
0.15515
0.14990
0.14464
0.13499
0.12009
0.10519
0.08503
0.07013
0.06048
0.04558
0.04032
0.02980
0.02016
0.01052
-0.00526
-0.02016
-0.02980
-0.03506
-0.04032
-0.04997
-0.05522
-0.05961
-0.07451
-0.07977
-0.07977
-0.07977
-0.07977
-0.07977
-0.07977
-0.08503
-0.09467
-0.09993
-0.09993
-0.09993
-0.09467
-0.09029
-0.09029
-0.09029
-0.09029
-0.09467
-0.09993
-0.09993
-0.09993
-0.09555
-0.09029
-0.08503
-0.07977
-0.07977
-0.07977
-0.07539
-0.06487
-0.05522
-0.04558
-0.03068
-0.02542
-0.02016
-0.02016
-0.02016
-0.01052
-0.00526
0.00000
-0.00526
-0.00964
-0.02980
-0.05435
-0.07889
-0.09467
-0.09993
-0.10519
-0.11483
-0.12447
-0.12535
-0.13499
-0.14025
-0.14025
-0.14025
-0.13499
-0.13499
-0.13499
-0.13499
-0.14464
-0.14990
-0.14990
-0.14551
-0.14025
-0.13061
-0.12535
-0.12535
-0.12535
-0.12973
-0.12973
-0.12973
-0.12535
-0.12535
-0.12973
-0.14902
-0.17356
-0.17970
-0.12710
-0.02980
0.07977
0.17532
0.25158
0.22616
0.06311
-0.22528
-0.52069
-0.72055
-0.83451
-0.91603
-0.96775
-0.97038
-0.91340
-0.80558
-0.66270
-0.49352
-0.34274
-0.23054
-0.15428
-0.10782
-0.08152
-0.06574
-0.05522
-0.04997
-0.04558
-0.03594
-0.03068
-0.02542
-0.02016
-0.02016
-0.02454
-0.02542
-0.02542
-0.01578
-0.00526
-0.00526
0.00000
-0.00438
-0.00526
-0.00526
-0.00526
-0.00526
0.00000
0.00438
0.00964
0.00526
0.00526
0.00526
0.00526
0.00964
0.01490
0.01490
0.01928
0.02016
0.02016
0.01578
0.01490
0.01490
0.01928
0.02454
0.03419
0.03945
0.04032
0.04032
0.04032
0.04032
0.04032
0.04471
0.05435
0.05961
0.06487
0.06487
0.06487
0.06487
0.06487
0.07451
0.08415
0.08503
0.08941
0.09029
0.09029
0.09029
0.09029
0.09467
0.10431
0.10957
0.11483
0.11922
0.12009
0.11571
0.11922
0.12447
0.12973
0.13499
0.13499
0.13499
0.13499
0.13499
0.13499
0.13499
0.13938
0.14902
0.15428
0.15515
0.15515
0.15515
0.15515
0.15515
0.15515
0.15954
0.16480
0.16918
0.17006
0.17006
0.16567
0.16041
0.16041
0.16480
0.16480
0.16480
0.16041
0.15515
0.15077
0.14551
0.14025
0.14025
0.13587
0.13499
0.12184
0.11133
0.09204
0.08065
0.06662
0.05610
0.04558
0.03594
0.02191
0.01140
-0.00351
-0.02279
-0.03419
-0.04383
-0.05435
-0.05522
-0.06399
-0.07363
-0.07977
-0.08853
-0.09905
-0.09993
-0.09993
-0.09993
-0.09993
-0.09993
-0.09993
-0.10431
-0.10957
-0.10957
-0.10519
-0.10081
-0.09993
-0.09555
-0.09905
-0.09993
-0.10431
-0.10957
-0.10957
-0.10519
-0.10081
-0.09993
-0.09993
-0.09993
-0.09993
-0.09993
-0.09555
-0.08590
-0.07626
-0.06574
-0.06048
-0.05522
-0.05084
-0.04120
-0.03156
-0.02980
-0.02104
-0.01140
-0.00526
-0.00526
-0.01403
-0.02805
-0.04734
-0.06750
-0.07889
-0.09292
-0.10344
-0.11834
-0.12886
-0.13850
-0.14902
-0.14990
-0.14551
-0.14025
-0.13587
-0.13499
-0.13499
-0.13938
-0.14025
-0.14464
-0.14464
-0.14025
-0.13587
-0.13499
-0.13499
-0.13938
-0.14025
-0.14025
-0.13587
-0.13061
-0.12535
-0.12535
-0.12535
-0.14201
-0.16655
-0.17882
-0.15866
-0.08590
0.02454
0.12623
0.21301
0.25070
0.18145
-0.01928
-0.31206
-0.57854
-0.75649
-0.87045
-0.94495
-0.98528
-0.96862
-0.88798
-0.75912
-0.59432
-0.42865
-0.28927
-0.19285
-0.13762
-0.10431
-0.08328
-0.07188
-0.06136
-0.05610
-0.04208
-0.03156
-0.02980
-0.02980
-0.02980
-0.02980
-0.02980
-0.02191
-0.01578
-0.01490
-0.01052
-0.00964
-0.01403
-0.01928
-0.01578
-0.01052
-0.00614
-0.00088
0.00438
0.00526
0.00526
0.00088
0.00000
0.00438
0.00964
0.01403
0.01490
0.01490
0.01490
0.01490
0.01052
0.01403
0.01490
0.01928
0.02805
0.03419
0.03506
0.03506
0.03068
0.02980
0.03857
0.04032
0.04383
0.05347
0.05522
0.05522
0.05522
0.05522
0.05873
0.06399
0.07363
0.07889
0.08415
0.08503
0.08503
0.08503
0.08941
0.09818
0.10870
0.10957
0.11396
0.11483
0.11483
0.11045
0.10957
0.11834
0.12447
0.13324
0.13938
0.14376
0.14464
0.14113
0.14025
0.14376
0.14902
0.15428
0.15954
0.16041
0.16041
0.15603
0.15515
0.15515
0.15866
0.16830
0.17444
0.17882
0.17970
0.17619
0.17093
0.16567
0.16480
0.16918
0.17444
0.17532
0.17532
0.17093
0.16567
0.15691
0.15515
0.15515
0.15515
0.15077
0.14201
0.12798
0.11308
0.10168
0.08766
0.08065
0.07188
0.06574
0.05259
0.03769
0.02279
0.00789
-0.00263
-0.00877
-0.01841
-0.02367
-0.02893
-0.03769
-0.05172
-0.06311
-0.07276
-0.07539
-0.07539
-0.07539
-0.07539
-0.07889
-0.08415
-0.09292
-0.09905
-0.09993
-0.09993
-0.09642
-0.09467
-0.09467
-0.09467
-0.09905
-0.09993
-0.09993
-0.09993
-0.09993
-0.09642
-0.09467
-0.09467
-0.09905
-0.10431
-0.10870
-0.10607
-0.10081
-0.09642
-0.08678
-0.08065
-0.07626
-0.07539
-0.07539
-0.06750
-0.05698
-0.03945
-0.02717
-0.02104
-0.02016
-0.02016
-0.01578
-0.01490
-0.01928
-0.02367
-0.03682
-0.05172
-0.07451
-0.09555
-0.11571
-0.12798
-0.13412
-0.13499
-0.13149
-0.12973
-0.12973
-0.13412
-0.14288
-0.14902
-0.14990
-0.14639
-0.13762
-0.13149
-0.12623
-0.12886
-0.13412
-0.13499
-0.13850
-0.14025
-0.13587
-0.12710
-0.12535
-0.12535
-0.12535
-0.12535
-0.13236
-0.14288
-0.15691
-0.16743
-0.15428
-0.09204
-0.00175
0.08941
0.16743
0.21564
0.17093
0.00526
-0.26648
-0.53822
-0.73019
-0.85467
-0.94495
-0.99141
-0.97739
-0.89324
-0.75912
-0.59169
-0.42427
-0.29365
-0.20424
-0.14288
-0.10344
-0.07626
-0.05873
-0.04383
-0.03243
-0.02980
-0.02630
-0.02542
-0.02542
-0.02104
-0.01227
-0.00614
-0.00526
-0.00526
-0.00526
-0.00877
-0.00964
-0.00614
-0.00088
0.00351
0.00877
0.00964
0.00964
0.00964
0.00964
0.01403
0.01841
0.02717
0.02980
0.02980
0.02630
0.02104
0.01666
0.01841
0.02717
0.03769
0.04734
0.04997
0.04997
0.04646
0.04120
0.04383
0.04909
0.05785
0.06399
0.07276
0.07539
0.07539
0.07100
0.07013
0.07363
0.08240
0.08853
0.09379
0.09905
0.09993
0.09642
0.09467
0.09905
0.10344
0.10870
0.11746
0.12360
0.12535
0.12535
0.12535
0.12886
0.12973
0.13324
0.14201
0.15253
0.15515
0.15515
0.15515
0.15515
0.15866
0.16743
0.17707
0.18408
0.18846
0.19022
0.18671
0.18145
0.18321
0.18846
0.19723
0.20337
0.20512
0.20512
0.20161
0.19986
0.19986
0.19986
0.20337
0.20863
0.21038
0.20600
0.20512
0.20161
0.19635
0.19460
0.19460
0.19898
0.19986
0.19635
0.18759
0.17795
0.16392
0.15253
0.14288
0.13675
0.13149
0.12272
0.11308
0.09555
0.07539
0.06311
0.05259
0.04646
0.04120
0.03682
0.02454
0.01315
-0.00088
-0.01227
-0.01841
-0.02367
-0.02542
-0.02893
-0.03682
-0.05084
-0.06224
-0.07188
-0.07889
-0.07977
-0.07626
-0.07539
-0.07539
-0.07889
-0.07977
-0.08678
-0.09730
-0.09993
-0.09292
-0.08678
-0.08152
-0.07977
-0.08328
-0.09204
-0.09818
-0.09993
-0.09642
-0.08766
-0.08152
-0.07626
-0.07539
-0.07539
-0.07539
-0.07188
-0.06662
-0.05785
-0.04821
-0.03769
-0.03156
-0.02630
-0.02191
-0.01666
-0.01140
-0.00614
0.00526
0.00964
0.00614
-0.00526
-0.02367
-0.04734
-0.06925
-0.08152
-0.08853
-0.09730
-0.10344
-0.11220
-0.12184
-0.12886
-0.12973
-0.12973
-0.12623
-0.12535
-0.12535
-0.12535
-0.12535
-0.12886
-0.12973
-0.12973
-0.12623
-0.12184
-0.11659
-0.11133
-0.11308
-0.11834
-0.12360
-0.12535
-0.12184
-0.11308
-0.10957
-0.11659
-0.13324
-0.15691
-0.16129
-0.11922
-0.02542
0.08152
0.18584
0.26034
0.23931
0.08152
-0.19460
-0.49439
-0.70127
-0.81873
-0.89674
-0.95372
-0.96687
-0.92129
-0.81960
-0.67584
-0.51105
-0.35414
-0.23142
-0.14814
-0.09467
-0.06311
-0.04821
-0.04208
-0.03331
-0.02980
-0.02367
-0.01315
-0.00701
-0.00526
-0.00789
-0.01315
-0.01490
-0.01140
-0.00701
0.00175
0.00789
0.00964
0.00964
0.00701
0.00526
0.00789
0.01315
0.01841
0.02367
0.02805
0.02980
0.02630
0.02542
0.02542
0.02805
0.03331
0.03857
0.04646
0.04997
0.04646
0.04208
0.04032
0.04295
0.05172
0.06136
0.06487
0.06487
0.06487
0.06136
0.05961
0.06311
0.06837
0.07626
0.08328
0.08853
0.09029
0.08678
0.08503
0.08853
0.09292
0.10168
0.10782
0.10957
0.11308
0.11483
0.11483
0.11483
0.11834
0.12623
0.13324
0.14113
0.14464
0.14201
0.14025
0.14025
0.14288
0.14814
0.15340
0.15778
0.16655
0.17006
0.17006
0.16655
0.16480
0.16830
0.17356
0.17795
0.18321
0.18145
0.17970
0.17970
0.17970
0.17970
0.18321
0.18846
0.19285
0.19197
0.18671
0.18145
0.17970
0.17970
0.18321
0.18496
0.18846
0.19022
0.19022
0.18408
0.17970
0.17356
0.17006
0.17006
0.16655
0.15866
0.15165
0.14025
0.12272
0.10607
0.09379
0.08415
0.07363
0.06662
0.05259
0.03594
0.01753
0.00088
-0.01140
-0.02104
-0.02805
-0.03594
-0.04646
-0.05347
-0.06136
-0.07100
-0.07802
-0.07977
-0.07977
-0.07977
-0.07977
-0.07977
-0.08590
-0.09292
-0.09467
-0.09467
-0.09204
-0.08678
-0.08152
-0.08328
-0.08766
-0.09292
-0.09818
-0.09730
-0.09204
-0.08678
-0.08152
-0.07977
-0.08328
-0.08766
-0.09292
-0.09467
-0.09204
-0.08678
-0.08240
-0.07363
-0.06662
-0.06487
-0.06487
-0.06224
-0.05435
-0.04120
-0.02630
-0.01403
-0.00701
-0.00526
-0.00526
-0.00526
-0.00789
-0.01578
-0.02630
-0.03857
-0.05435
-0.07188
-0.09204
-0.10607
-0.11571
-0.12009
-0.12009
-0.11659
-0.11483
-0.11834
-0.12272
-0.12535
-0.12798
-0.12710
-0.12535
-0.12535
-0.12184
-0.12272
-0.12535
-0.12798
-0.13324
-0.13499
-0.12886
-0.12535
-0.11922
-0.11483
-0.11834
-0.12272
-0.12798
-0.13850
-0.15691
-0.17093
-0.16041
-0.10607
-0.01315
0.08590
0.17444
0.23317
0.20950
0.05785
-0.20161
-0.47598
-0.67234
-0.79594
-0.88622
-0.94583
-0.95372
-0.89587
-0.78454
-0.63464
-0.47248
-0.32696
-0.22353
-0.15866
-0.11483
-0.08590
-0.06311
-0.04646
-0.03419
-0.02980
-0.02980
-0.02980
-0.02980
-0.02717
-0.02191
-0.01403
-0.00701
-0.00526
-0.00526
-0.00789
-0.00964
-0.00701
-0.00175
0.00263
0.00789
0.00964
0.00964
0.00964
0.00701
0.00526
0.00789
0.01315
0.01753
0.02279
0.02542
0.02191
0.01753
0.01490
0.01490
0.01753
0.02279
0.03068
0.03769
0.04032
0.04032
0.04032
0.04032
0.04295
0.05084
0.06048
0.06487
0.06487
0.06224
0.05961
0.06311
0.06750
0.07539
0.08240
0.08766
0.09029
0.09029
0.08766
0.08766
0.09292
0.10081
0.10782
0.11308
0.11746
0.12009
0.11746
0.11483
0.11746
0.12535
0.13236
0.13762
0.14288
0.14201
0.14025
0.13762
0.13762
0.14288
0.15077
0.15515
0.15778
0.16041
0.16041
0.16041
0.16041
0.16304
0.16743
0.17269
0.17532
0.17795
0.17707
0.17269
0.17006
0.17006
0.17269
0.17795
0.17970
0.17970
0.17970
0.17707
0.17269
0.17006
0.17006
0.17006
0.17006
0.17006
0.16480
0.15691
0.14990
0.13938
0.12973
0.12272
0.11483
0.10431
0.09204
0.07714
0.06224
0.04734
0.03243
0.01928
0.00964
0.00000
-0.01052
-0.02279
-0.03506
-0.04558
-0.05259
-0.05785
-0.05961
-0.06224
-0.06487
-0.07013
-0.07802
-0.08240
-0.08766
-0.09029
-0.09029
-0.08766
-0.08503
-0.08503
-0.08503
-0.08766
-0.09292
-0.09467
-0.09204
-0.08766
-0.08240
-0.07977
-0.07977
-0.08503
-0.09029
-0.09292
-0.09204
-0.08766
-0.08503
-0.08503
-0.08503
-0.08503
-0.08503
-0.08503
-0.08240
-0.07714
-0.06750
-0.05785
-0.05522
-0.05259
-0.04471
-0.03506
-0.02717
-0.02016
-0.00964
-0.00263
0.00263
0.00526
0.00000
-0.01227
-0.02717
-0.04471
-0.06487
-0.07714
-0.09029
-0.10519
-0.11483
-0.12272
-0.12710
-0.12973
-0.12710
-0.12535
-0.12535
-0.12535
-0.12535
-0.12710
-0.12973
-0.12710
-0.12535
-0.12535
-0.12272
-0.12009
-0.12272
-0.12535
-0.12535
-0.12535
-0.12272
-0.11746
-0.11045
-0.10519
-0.10957
-0.12272
-0.14025
-0.15778
-0.14551
-0.07802
0.02367
0.12710
0.21213
0.24983
0.18671
0.00964
-0.24720
-0.51455
-0.70828
-0.82837
-0.91164
-0.95723
-0.94583
-0.86869
-0.74246
-0.58468
-0.42251
-0.28664
-0.19372
-0.13061
-0.09292
-0.07276
-0.06048
-0.04734
-0.03506
-0.02542
-0.01753
-0.01227
-0.01227
-0.01490
-0.01490
-0.01227
-0.00789
-0.00263
0.00000
0.00263
0.00526
0.00526
0.00526
0.00701
0.01227
0.01490
0.02016
0.02717
0.02805
0.02279
0.01753
0.01490
0.01753
0.02279
0.02717
0.03243
0.03769
0.03769
0.03243
0.02980
0.03506
0.04032
0.04208
0.04734
0.05259
0.05259
0.04997
0.04997
0.05259
0.05698
0.06224
0.06750
0.07276
0.07539
0.07539
0.07539
0.07714
0.08240
0.08766
0.09204
0.09730
0.09993
0.09730
0.09467
0.09730
0.10256
0.10694
0.10957
0.11483
0.12447
0.12973
0.13236
0.13499
0.13499
0.13499
0.13938
0.14990
0.15515
0.15515
0.15515
0.15515
0.15515
0.15515
0.15954
0.16918
0.17707
0.17970
0.17795
0.17532
0.17532
0.17707
0.17970
0.18233
0.18934
0.19460
0.19285
0.18759
0.18496
0.18496
0.18496
0.18759
0.19460
0.19986
0.19811
0.19022
0.18321
0.17970
0.17970
0.17970
0.17795
0.17269
0.16567
0.15603
0.14376
0.13324
0.12360
0.11308
0.10519
0.09379
0.08065
0.07100
0.05610
0.03857
0.02367
0.01052
0.00263
-0.00175
-0.00964
-0.02191
-0.03419
-0.04471
-0.05259
-0.05522
-0.05522
-0.05698
-0.06224
-0.06750
-0.07188
-0.07714
-0.08240
-0.08678
-0.09029
-0.08766
-0.08328
-0.07977
-0.07977
-0.08240
-0.08678
-0.09204
-0.09292
-0.08766
-0.08328
-0.07977
-0.07977
-0.08240
-0.08941
-0.09467
-0.09292
-0.08766
-0.08328
-0.07977
-0.07977
-0.07977
-0.08240
-0.08328
-0.07802
-0.07100
-0.06048
-0.05084
-0.04120
-0.03331
-0.02805
-0.02279
-0.01578
-0.00789
-0.00088
0.00877
0.01490
0.01052
0.00088
-0.01315
-0.03506
-0.05610
-0.07100
-0.08240
-0.08941
-0.09905
-0.10694
-0.11396
-0.12184
-0.12535
-0.12272
-0.11834
-0.11483
-0.11483
-0.11746
-0.12184
-0.12535
-0.12535
-0.12272
-0.11834
-0.11308
-0.10782
-0.10694
-0.11220
-0.11659
-0.11834
-0.11308
-0.10782
-0.10256
-0.09993
-0.10607
-0.12535
-0.14814
-0.14990
-0.09905
-0.00088
0.10256
0.19372
0.25859
0.24807
0.11483
-0.13587
-0.42865
-0.65831
-0.79418
-0.88447
-0.94145
-0.95021
-0.90376
-0.80558
-0.66708
-0.50140
-0.34011
-0.21827
-0.13675
-0.08853
-0.06399
-0.05084
-0.04120
-0.03331
-0.02454
-0.01140
-0.00088
0.00701
0.00789
0.00351
0.00000
-0.00175
-0.00351
0.00175
0.00877
0.01490
0.01666
0.02016
0.02016
0.02016
0.02191
0.02717
0.03156
0.03682
0.04032
0.04032
0.04032
0.04032
0.04032
0.04383
0.05172
0.05698
0.06224
0.06487
0.06311
0.05785
0.05698
0.06224
0.06662
0.07188
0.07539
0.07539
0.07276
0.07013
0.07188
0.07714
0.08152
0.08853
0.09642
0.10168
0.10344
0.09818
0.09467
0.09642
0.10344
0.11220
0.11659
0.12184
0.12710
0.12973
0.12973
0.13149
0.13675
0.14376
0.15165
0.15515
0.15515
0.15515
0.15340
0.15165
0.15515
0.16041
0.17356
0.17970
0.17970
0.17970
0.17970
0.18145
0.18671
0.19372
0.20161
0.20687
0.21038
0.21038
0.20863
0.20512
0.20512
0.20512
0.20687
0.21389
0.22178
0.22528
0.22353
0.21827
0.21301
0.21213
0.21652
0.22178
0.22528
0.22528
0.22353
0.21652
0.20863
0.20512
0.20687
0.20863
0.20337
0.19635
0.18671
0.17444
0.16129
0.14990
0.13675
0.12623
0.11659
0.10519
0.08853
0.06837
0.04997
0.03506
0.02191
0.01490
0.01140
0.00351
-0.00351
-0.01490
-0.02805
-0.03857
-0.04646
-0.04821
-0.04646
-0.04997
-0.05172
-0.05873
-0.06662
-0.07363
-0.07977
-0.07977
-0.07977
-0.07802
-0.07539
-0.07626
-0.07977
-0.08152
-0.08503
-0.08503
-0.08503
-0.08328
-0.07977
-0.07977
-0.08152
-0.08678
-0.09204
-0.09379
-0.09029
-0.08853
-0.08328
-0.07977
-0.07977
-0.08328
-0.09204
-0.09379
-0.08678
-0.07714
-0.06662
-0.05873
-0.05522
-0.05522
-0.05172
-0.04208
-0.03156
-0.02191
-0.01140
-0.00351
0.00175
0.00526
0.00175
-0.00701
-0.01490
-0.02980
-0.04471
-0.05785
-0.07013
-0.08328
-0.09467
-0.10957
-0.12184
-0.12535
-0.12535
-0.12535
-0.12535
-0.12535
-0.12535
-0.12623
-0.12886
-0.12535
-0.12360
-0.11834
-0.11308
-0.10957
-0.11133
-0.11834
-0.12535
-0.12535
-0.12360
-0.11659
-0.10870
-0.10519
-0.10782
-0.11834
-0.12973
-0.14639
-0.16304
-0.15954
-0.10782
-0.01140
0.09379
0.18584
0.24632
0.22002
0.08503
-0.15691
-0.44618
-0.67146
-0.80821
-0.89587
-0.95372
-0.96424
-0.91164
-0.80207
-0.65218
-0.49439
-0.34976
-0.24018
-0.16392
-0.11659
-0.08766
-0.06399
-0.04558
-0.03243
-0.02367
-0.02104
-0.02542
-0.02630
-0.02893
-0.02367
-0.01841
-0.01227
-0.00526
-0.00351
-0.00175
-0.00526
-0.00526
-0.00526
-0.00351
0.00263
0.01140
0.01490
0.01315
0.00964
0.00964
0.00964
0.01140
0.01666
0.02104
0.02542
0.02542
0.02367
0.02016
0.02016
0.02104
0.02805
0.03682
0.04032
0.04032
0.04032
0.04032
0.04032
0.04032
0.04120
0.04734
0.05610
0.06136
0.06487
0.06399
0.05873
0.05610
0.06136
0.06662
0.07276
0.08152
0.08503
0.08503
0.08503
0.08503
0.08678
0.09292
0.10256
0.10957
0.10957
0.10957
0.10957
0.10957
0.11133
0.11746
0.12798
0.13675
0.14113
0.14464
0.14376
0.14025
0.14113
0.14727
0.15515
0.15603
0.16129
0.16480
0.16480
0.16480
0.16480
0.16655
0.17269
0.17970
0.18233
0.19022
0.18846
0.18408
0.17970
0.17970
0.18233
0.19109
0.19635
0.20161
0.20337
0.19723
0.18846
0.18408
0.18145
0.18496
0.18584
0.18846
0.18408
0.17707
0.16655
0.15253
0.14288
0.13499
0.13412
0.12623
0.11133
0.09467
0.07626
0.06048
0.04295
0.03243
0.02279
0.01403
0.00614
-0.00701
-0.01841
-0.03331
-0.04734
-0.05610
-0.06136
-0.06487
-0.06750
-0.07626
-0.08240
-0.09204
-0.09993
-0.09993
-0.09993
-0.09905
-0.09379
-0.09116
-0.09642
-0.10081
-0.10607
-0.10957
-0.10870
-0.10344
-0.09905
-0.09467
-0.09467
-0.09642
-0.09993
-0.09993
-0.09993
-0.09905
-0.09379
-0.09029
-0.09116
-0.09642
-0.09993
-0.09905
-0.09379
-0.08766
-0.07802
-0.06925
-0.06399
-0.05961
-0.05873
-0.05347
-0.04646
-0.03243
-0.02279
-0.01315
-0.00351
-0.00088
-0.00526
-0.00701
-0.01841
-0.03243
-0.04295
-0.05961
-0.07714
-0.08853
-0.10344
-0.11746
-0.12710
-0.13587
-0.13850
-0.13412
-0.12973
-0.12973
-0.13236
-0.14113
-0.14464
-0.14376
-0.13762
-0.12886
-0.12360
-0.12009
-0.12009
-0.12097
-0.12535
-0.12535
-0.12535
-0.12360
-0.11922
-0.11396
-0.11133
-0.11571
-0.12184
-0.13412
-0.15428
-0.16830
-0.14727
-0.07889
0.02104
0.11746
0.19986
0.25421
0.22178
0.06224
-0.20161
-0.48475
-0.68899
-0.82048
-0.91340
-0.96775
-0.96862
-0.90288
-0.78454
-0.62939
-0.45845
-0.31382
-0.21739
-0.15691
-0.11834
-0.08590
-0.06662
-0.05172
-0.03769
-0.02980
-0.02980
-0.02980
-0.02980
-0.02893
-0.02367
-0.01841
-0.00877
-0.00526
-0.00526
-0.00526
-0.00614
-0.00964
-0.00877
-0.00438
0.00088
0.00614
0.00877
0.00438
0.00000
-0.00088
-0.00438
0.00088
0.00614
0.01052
0.01490
0.01403
0.00964
0.00964
0.00964
0.01052
0.01578
0.02191
0.03068
0.03419
0.02980
0.02980
0.02980
0.03156
0.04032
0.04208
0.05084
0.05522
0.05435
0.04909
0.04471
0.04558
0.05172
0.06048
0.06662
0.07539
0.07539
0.07451
0.07013
0.07100
0.07714
0.08590
0.09116
0.09555
0.09993
0.09993
0.09993
0.10168
0.11045
0.11571
0.12184
0.12973
0.13061
0.13499
0.13499
0.13499
0.13499
0.13587
0.14288
0.15515
0.15515
0.15515
0.15515
0.15515
0.15515
0.15603
0.16129
0.17181
0.17970
0.17970
0.17882
0.17532
0.17532
0.17619
0.17970
0.18058
0.18496
0.18408
0.17970
0.17882
0.17532
0.17532
0.17532
0.17619
0.17970
0.17882
0.16743
0.15428
0.14727
0.13499
0.13412
0.12886
0.11834
0.10870
0.09730
0.08152
0.06224
0.04295
0.02805
0.01928
0.01315
0.00351
-0.00614
-0.01753
-0.03243
-0.04646
-0.05610
-0.06136
-0.07100
-0.07539
-0.07539
-0.08152
-0.09116
-0.09993
-0.09993
-0.09993
-0.09905
-0.09467
-0.09555
-0.09993
-0.10168
-0.11045
-0.11483
-0.11396
-0.10957
-0.10431
-0.09993
-0.09993
-0.09993
-0.10081
-0.10519
-0.10431
-0.09993
-0.09993
-0.09993
-0.09993
-0.09993
-0.10081
-0.10519
-0.10431
-0.09993
-0.09993
-0.09905
-0.09555
-0.09993
-0.10081
-0.10607
-0.10957
-0.10431
-0.09905
-0.08853
-0.07977
-0.07977
-0.07977
-0.07363
-0.06399
-0.05347
-0.04295
-0.02893
-0.02454
-0.02104
-0.02542
-0.02980
-0.03068
-0.03594
-0.04032
-0.04558
-0.05084
-0.06224
-0.08152
-0.09642
-0.11220
-0.12535
-0.12973
-0.12973
-0.12535
-0.12535
-0.12535
-0.13061
-0.13587
-0.14025
-0.14025
-0.13938
-0.13412
-0.12973
-0.12973
-0.12973
-0.13061
-0.13499
-0.13412
-0.12973
-0.12447
-0.11922
-0.11483
-0.11483
-0.11571
-0.12009
-0.12097
-0.12623
-0.13675
-0.15253
-0.16743
-0.14201
-0.06399
0.03506
0.12973
0.21476
0.24281
0.16041
-0.02893
-0.29979
-0.56452
-0.74246
-0.85905
-0.93882
-0.96687
-0.93005
-0.83012
-0.68812
-0.52420
-0.37255
-0.25684
-0.17970
-0.12623
-0.08766
-0.06311
-0.04383
-0.03419
-0.02980
-0.02980
-0.02980
-0.02980
-0.02367
-0.01490
-0.00964
-0.00526
-0.00526
-0.00526
-0.00964
-0.00964
-0.00964
-0.00438
0.00088
0.00526
0.00438
0.00000
-0.00088
-0.00526
-0.00438
0.00088
0.01052
0.01490
0.01490
0.01490
0.00964
0.00964
0.01052
0.01490
0.01578
0.02016
0.02542
0.02980
0.02542
0.02542
0.02542
0.03068
0.04032
0.04032
0.04558
0.04997
0.04471
0.04032
0.04471
0.04558
0.05084
0.05610
0.06487
0.06487
0.06487
0.05961
0.06048
0.06574
0.07100
0.08065
0.08503
0.09029
0.09467
0.09467
0.09029
0.09116
0.10081
0.11045
0.12097
0.12973
0.12973
0.12973
0.12535
0.12535
0.13061
0.13587
0.14551
0.15515
0.15515
0.15515
0.15515
0.15515
0.15515
0.16041
0.16567
0.17532
0.17970
0.17970
0.17970
0.17970
0.17532
0.17532
0.18058
0.19022
0.19460
0.19460
0.18934
0.18496
0.17970
0.17970
0.18058
0.18496
0.18496
0.18496
0.17970
0.17444
0.16480
0.15515
0.15428
0.14990
0.14902
0.13938
0.12886
0.10957
0.09467
0.08503
0.07977
0.07013
0.06487
0.05873
0.03945
0.02454
0.00964
-0.00526
-0.01578
-0.02542
-0.02980
-0.03068
-0.03594
-0.04997
-0.05522
-0.06487
-0.07013
-0.07013
-0.07013
-0.07013
-0.07539
-0.08065
-0.09029
-0.09993
-0.09993
-0.09993
-0.09467
-0.08503
-0.08503
-0.08503
-0.09555
-0.09993
-0.09993
-0.09993
-0.09993
-0.09467
-0.09029
-0.09029
-0.09029
-0.09555
-0.09993
-0.09993
-0.09993
-0.09467
-0.08503
-0.08503
-0.08503
-0.09029
-0.09993
-0.09993
-0.09993
-0.09993
-0.08941
-0.08503
-0.07977
-0.07451
-0.07013
-0.06487
-0.05522
-0.04909
-0.02980
-0.01490
-0.00526
-0.00526
-0.01578
-0.02980
-0.02980
-0.02980
-0.02980
-0.02980
-0.03068
-0.04032
-0.05522
-0.08065
-0.09555
-0.10519
-0.10957
-0.10957
-0.10957
-0.11045
-0.11483
-0.12009
-0.12535
-0.12535
-0.12535
-0.12447
-0.11483
-0.11483
-0.11483
-0.12009
-0.12009
-0.12009
-0.12009
-0.11483
-0.10957
-0.10519
-0.11045
-0.11483
-0.12009
-0.12009
-0.11483
-0.10957
-0.11045
-0.12535
-0.14551
-0.17006
-0.15428
-0.07889
0.02104
0.12097
0.21564
0.27437
0.22791
0.03769
-0.26736
-0.56189
-0.74597
-0.85028
-0.92567
-0.97038
-0.96424
-0.89937
-0.77928
-0.62413
-0.45407
-0.30943
-0.20512
-0.13499
-0.09029
-0.05961
-0.04471
-0.03506
-0.02980
-0.02980
-0.02542
-0.02016
-0.00964
-0.00526
-0.00526
-0.00526
-0.00526
-0.00526
-0.00526
0.00000
0.00964
0.01490
0.01490
0.00526
0.00000
0.00000
0.00526
0.00526
0.00964
0.01490
0.02016
0.02016
0.01490
0.01490
0.01490
0.01490
0.02454
0.03506
0.04032
0.04032
0.04032
0.03506
0.03506
0.04032
0.04032
0.04471
0.04471
0.04471
0.04032
0.04032
0.04032
0.04471
0.05522
0.06487
0.06487
0.06487
0.06487
0.06487
0.06487
0.06487
0.07451
0.08503
0.08503
0.09029
0.09467
0.09029
0.09029
0.09467
0.10519
0.10957
0.11483
0.12009
0.12009
0.12447
0.12535
0.12535
0.12973
0.13499
0.14025
0.14464
0.14464
0.14464
0.14025
0.14025
0.14464
0.14990
0.15515
0.16480
0.17006
0.17006
0.17006
0.17006
0.17444
0.17970
0.17970
0.18496
0.19022
0.19022
0.18496
0.18058
0.17970
0.17970
0.18934
0.19986
0.20512
0.20512
0.19548
0.18496
0.18058
0.17970
0.17970
0.18496
0.18058
0.17532
0.16041
0.15077
0.13587
0.12097
0.11483
0.11045
0.09555
0.08503
0.06574
0.05084
0.03594
0.01578
0.00088
-0.00438
-0.01490
-0.02454
-0.03419
-0.04909
-0.05961
-0.07451
-0.07977
-0.07977
-0.07977
-0.08503
-0.08941
-0.09467
-0.09993
-0.10431
-0.10957
-0.10519
-0.10519
-0.09993
-0.09993
-0.10431
-0.10957
-0.10957
-0.10957
-0.10957
-0.10519
-0.09993
-0.09993
-0.09993
-0.09993
-0.10431
-0.11483
-0.11483
-0.11045
-0.10081
-0.09993
-0.09555
-0.09993
-0.10957
-0.11483
-0.11483
-0.11045
-0.10519
-0.09993
-0.09993
-0.09993
-0.09993
-0.09993
-0.09993
-0.09555
-0.08065
-0.07100
-0.06048
-0.05522
-0.04997
-0.04558
-0.04032
-0.03506
-0.03506
-0.03506
-0.03068
-0.03506
-0.03945
-0.04909
-0.05435
-0.05961
-0.07363
-0.07977
-0.08941
-0.09905
-0.10431
-0.11922
-0.12886
-0.13938
-0.14025
-0.14025
-0.13499
-0.13061
-0.12973
-0.12973
-0.13499
-0.13938
-0.14464
-0.14025
-0.13061
-0.12535
-0.12535
-0.12535
-0.12535
-0.12535
-0.12535
-0.12535
-0.12009
-0.11571
-0.11045
-0.10957
-0.11922
-0.13412
-0.15778
-0.17795
-0.17093
-0.10607
0.00000
0.10607
0.21038
0.27437
0.23931
0.06224
-0.20950
-0.48475
-0.69162
-0.81873
-0.91164
-0.96950
-0.97038
-0.90639
-0.78717
-0.63026
-0.46108
-0.31820
-0.21476
-0.15515
-0.11396
-0.09204
-0.07188
-0.05610
-0.03682
-0.03068
-0.02980
-0.02980
-0.02980
-0.02980
-0.02980
-0.02542
-0.01578
-0.01052
-0.00526
-0.00526
-0.00526
-0.00964
-0.00526
-0.00526
0.00438
0.01403
0.01490
0.01490
0.01490
0.01052
0.00964
0.00964
0.01403
0.01490
0.01928
0.02016
0.02016
0.01578
0.01490
0.01490
0.01928
0.03331
0.03945
0.04032
0.04032
0.03594
0.03506
0.03068
0.03419
0.03945
0.04471
0.05347
0.05522
0.05084
0.04997
0.04997
0.05435
0.06399
0.06925
0.07889
0.07977
0.07977
0.07977
0.07977
0.08415
0.08941
0.09905
0.10431
0.10957
0.10957
0.10957
0.10957
0.10957
0.10957
0.11834
0.12886
0.13412
0.13499
0.13499
0.13061
0.12973
0.13412
0.13938
0.14464
0.14902
0.15428
0.15515
0.15515
0.15077
0.15428
0.15515
0.16392
0.16918
0.17006
0.16567
0.16480
0.16480
0.16480
0.16918
0.17882
0.17970
0.17970
0.17970
0.17970
0.17970
0.17970
0.17970
0.17970
0.17970
0.17970
0.17532
0.16217
0.15603
0.15077
0.14113
0.13587
0.13499
0.12623
0.11220
0.09730
0.08240
0.06750
0.04821
0.03682
0.02630
0.01666
0.01052
-0.00263
-0.02191
-0.03769
-0.05259
-0.05961
-0.06399
-0.06487
-0.06925
-0.07889
-0.08415
-0.09818
-0.09993
-0.09993
-0.09993
-0.09993
-0.09993
-0.09993
-0.10431
-0.10957
-0.11396
-0.11483
-0.10694
-0.10081
-0.09555
-0.09116
-0.09029
-0.09379
-0.09905
-0.09993
-0.09993
-0.09993
-0.09555
-0.09467
-0.09905
-0.09993
-0.09993
-0.09993
-0.09993
-0.09993
-0.09555
-0.09116
-0.08590
-0.09379
-0.09905
-0.09993
-0.09993
-0.09993
-0.09204
-0.08152
-0.07977
-0.07626
-0.07539
-0.07100
-0.06136
-0.05172
-0.03331
-0.02191
-0.01578
-0.01490
-0.01928
-0.02454
-0.02893
-0.02980
-0.02980
-0.03419
-0.03945
-0.05259
-0.07188
-0.09116
-0.10782
-0.11834
-0.12447
-0.12535
-0.12535
-0.12535
-0.12886
-0.13850
-0.14376
-0.14464
-0.14113
-0.13587
-0.13061
-0.12623
-0.12535
-0.12886
-0.13412
-0.13938
-0.13587
-0.13061
-0.12623
-0.12097
-0.12009
-0.12009
-0.12447
-0.12535
-0.12535
-0.12535
-0.12535
-0.14113
-0.16129
-0.16129
-0.10694
-0.01403
0.08240
0.17269
0.25070
0.25684
0.13762
-0.11659
-0.41725
-0.65744
-0.81347
-0.91690
-0.97914
-0.98177
-0.91953
-0.80383
-0.65481
-0.49176
-0.34274
-0.23405
-0.16304
-0.10957
-0.07626
-0.05785
-0.04734
-0.04120
-0.03594
-0.03506
-0.03068
-0.02630
-0.01666
-0.01490
-0.01140
-0.01403
-0.01490
-0.01490
-0.01140
-0.00614
-0.00088
0.00438
0.00526
0.00088
-0.00438
-0.00526
-0.00526
-0.00088
0.00438
0.00877
0.01403
0.01490
0.01490
0.01140
0.00964
0.01403
0.01490
0.02279
0.02893
0.02980
0.02980
0.02630
0.02542
0.02542
0.02893
0.03769
0.04032
0.04032
0.04032
0.04032
0.04032
0.04032
0.04821
0.06136
0.06487
0.06925
0.07013
0.06574
0.06487
0.06487
0.06925
0.07802
0.08415
0.08853
0.09029
0.09029
0.09029
0.09029
0.09379
0.10256
0.10870
0.11396
0.11922
0.12009
0.12009
0.12009
0.12009
0.12798
0.13412
0.14288
0.14902
0.14990
0.14639
0.14113
0.13587
0.14288
0.15253
0.15866
0.16743
0.17356
0.17093
0.16655
0.16129
0.16041
0.16392
0.16918
0.17795
0.18408
0.18496
0.18145
0.17970
0.17970
0.17970
0.17970
0.18408
0.18846
0.18584
0.18145
0.17269
0.16655
0.16480
0.16480
0.16129
0.15603
0.14727
0.13762
0.12009
0.10344
0.08853
0.08152
0.07626
0.06750
0.05347
0.03857
0.02016
0.00351
-0.00789
-0.01403
-0.02279
-0.02893
-0.03419
-0.04646
-0.05347
-0.06662
-0.07714
-0.07977
-0.08415
-0.08503
-0.08503
-0.08853
-0.09379
-0.09905
-0.10344
-0.10519
-0.10519
-0.10519
-0.10519
-0.10519
-0.10519
-0.10870
-0.10957
-0.10607
-0.10168
-0.09292
-0.09029
-0.09029
-0.09029
-0.09379
-0.09905
-0.09993
-0.09993
-0.09642
-0.09467
-0.09467
-0.09905
-0.09993
-0.09993
-0.09993
-0.09642
-0.09116
-0.08590
-0.08152
-0.07977
-0.08328
-0.08853
-0.09379
-0.09467
-0.09116
-0.08240
-0.07626
-0.06750
-0.06136
-0.06399
-0.06136
-0.05610
-0.04383
-0.03243
-0.02279
-0.00877
-0.00526
-0.00877
-0.01403
-0.01490
-0.01140
-0.00614
-0.00526
-0.01227
-0.02630
-0.04821
-0.06574
-0.07714
-0.08766
-0.09730
-0.09993
-0.09993
-0.10344
-0.11220
-0.11483
-0.11834
-0.11659
-0.11133
-0.10607
-0.10519
-0.10519
-0.10519
-0.11220
-0.12184
-0.12535
-0.12535
-0.11746
-0.10782
-0.10168
-0.09993
-0.10344
-0.10870
-0.11746
-0.12360
-0.11746
-0.11133
-0.11396
-0.12535
-0.15165
-0.16392
-0.12973
-0.04032
0.06837
0.17444
0.25859
0.25859
0.12272
-0.14288
-0.45319
-0.68636
-0.83012
-0.92129
-0.97301
-0.97826
-0.92918
-0.82574
-0.68461
-0.51981
-0.36115
-0.24106
-0.15691
-0.09993
-0.06399
-0.04821
-0.03769
-0.03156
-0.02980
-0.02279
-0.01315
-0.00614
-0.00526
-0.00526
-0.00526
-0.00526
-0.00526
-0.00526
-0.00175
0.00351
0.00526
0.00526
0.00526
0.00175
0.00000
0.00000
0.00351
0.00877
0.01315
0.01490
0.01490
0.01490
0.01140
0.00964
0.01315
0.01841
0.02717
0.02980
0.03331
0.03156
0.02980
0.02980
0.03331
0.03506
0.03857
0.04032
0.04032
0.04032
0.04032
0.03682
0.03506
0.03857
0.04383
0.05172
0.05873
0.05961
0.05698
0.05522
0.05522
0.05522
0.06224
0.07188
0.08152
0.08503
0.08503
0.08503
0.08503
0.08503
0.09204
0.10168
0.10870
0.10957
0.10957
0.10957
0.11308
0.12184
0.13149
0.13499
0.14201
0.14464
0.14464
0.14814
0.14639
0.14814
0.15340
0.15866
0.16304
0.16480
0.16480
0.16480
0.16480
0.16830
0.17006
0.17707
0.18321
0.18846
0.19372
0.19197
0.19022
0.18671
0.18846
0.19372
0.20161
0.20512
0.20512
0.20161
0.19635
0.19197
0.19022
0.19022
0.19022
0.19022
0.18671
0.18145
0.17707
0.16217
0.14814
0.13850
0.12886
0.11834
0.11133
0.09993
0.08152
0.06487
0.04734
0.02980
0.01841
0.00877
-0.00175
-0.01140
-0.02454
-0.03945
-0.05172
-0.05785
-0.06311
-0.06837
-0.07013
-0.07363
-0.07802
-0.08328
-0.09116
-0.09818
-0.10344
-0.10168
-0.09993
-0.09993
-0.09993
-0.09993
-0.10344
-0.10782
-0.10957
-0.10694
-0.10168
-0.09993
-0.09993
-0.10344
-0.10782
-0.10957
-0.10957
-0.10694
-0.10168
-0.09993
-0.09993
-0.09993
-0.09993
-0.10344
-0.10519
-0.10519
-0.10519
-0.10168
-0.09993
-0.09642
-0.09818
-0.09993
-0.10607
-0.10957
-0.10694
-0.10168
-0.09379
-0.08678
-0.08503
-0.08503
-0.08152
-0.07363
-0.06048
-0.04558
-0.03068
-0.01841
-0.01227
-0.01315
-0.01490
-0.01841
-0.02016
-0.02016
-0.02279
-0.02805
-0.04558
-0.06750
-0.08415
-0.09905
-0.11396
-0.12272
-0.12535
-0.12535
-0.12535
-0.12535
-0.12798
-0.13324
-0.13499
-0.13499
-0.13149
-0.12710
-0.12535
-0.12184
-0.12272
-0.12535
-0.12798
-0.12973
-0.12710
-0.12184
-0.11659
-0.11483
-0.11483
-0.11483
-0.11834
-0.12009
-0.12009
-0.12272
-0.14025
-0.16217
-0.15778
-0.10431
-0.01403
0.08590
0.18321
0.26560
0.27349
0.15340
-0.10081
-0.40498
-0.64692
-0.80120
-0.89850
-0.95460
-0.96424
-0.91164
-0.80733
-0.66620
-0.50491
-0.35589
-0.23931
-0.15778
-0.10256
-0.06662
-0.04295
-0.03156
-0.02717
-0.02542
-0.02191
-0.01666
-0.01227
-0.00701
-0.00526
-0.00175
0.00000
-0.00263
-0.00526
-0.00175
0.00263
0.00789
0.01315
0.01490
0.01227
0.00701
0.00175
0.00000
0.00263
0.01052
0.01490
0.01753
0.01666
0.01490
0.01490
0.01490
0.01753
0.02279
0.02805
0.03331
0.03506
0.03506
0.02893
0.02542
0.02542
0.03068
0.03769
0.04295
0.04821
0.04997
0.04734
0.04471
0.04471
0.05084
0.05785
0.06311
0.06750
0.07013
0.07013
0.07013
0.07013
0.07539
0.08328
0.08766
0.09292
0.09467
0.09467
0.09467
0.09818
0.10256
0.10782
0.11308
0.11746
0.12009
0.12009
0.11746
0.11746
0.12272
0.13061
0.13762
0.14551
0.14990
0.14990
0.14990
0.14727
0.14464
0.14814
0.15253
0.15778
0.16304
0.16743
0.17006
0.17006
0.17006
0.17269
0.17795
0.18321
0.18759
0.19022
0.18759
0.18496
0.18496
0.18496
0.18496
0.18759
0.19285
0.19197
0.18759
0.18233
0.17707
0.17532
0.17181
0.17006
0.17006
0.16743
0.15954
0.14639
0.13412
0.12184
0.11220
0.10431
0.09467
0.08415
0.07188
0.05435
0.03682
0.02191
0.00701
-0.00526
-0.01578
-0.02279
-0.02805
-0.03857
-0.05347
-0.06574
-0.07539
-0.07977
-0.07977
-0.07977
-0.08240
-0.09029
-0.09730
-0.10256
-0.10519
-0.10519
-0.10256
-0.09993
-0.09993
-0.09993
-0.09993
-0.10256
-0.10782
-0.11308
-0.11220
-0.10431
-0.09993
-0.09993
-0.09993
-0.10256
-0.10519
-0.10782
-0.10957
-0.10694
-0.10256
-0.09993
-0.09993
-0.09993
-0.10256
-0.10782
-0.10694
-0.10256
-0.09993
-0.09730
-0.09467
-0.09730
-0.09993
-0.10256
-0.10519
-0.10256
-0.09993
-0.09730
-0.09204
-0.08766
-0.08503
-0.08503
-0.08240
-0.07451
-0.06224
-0.04734
-0.03506
-0.02454
-0.02016
-0.01753
-0.01490
-0.01227
-0.00701
-0.00526
-0.00526
-0.01052
-0.02542
-0.04558
-0.06574
-0.08065
-0.09292
-0.09993
-0.10256
-0.11045
-0.12009
-0.12535
-0.12798
-0.12973
-0.12710
-0.12535
-0.12272
-0.12009
-0.12272
-0.12535
-0.12535
-0.12535
-0.12535
-0.12272
-0.11746
-0.11220
-0.10957
-0.11220
-0.11746
-0.12009
-0.11746
-0.11220
-0.10957
-0.11220
-0.12535
-0.14990
-0.16480
-0.13675
-0.06136
0.03857
0.14376
0.23580
0.27262
0.19635
-0.01403
-0.30417
-0.57153
-0.75824
-0.87570
-0.94495
-0.97038
-0.93444
-0.83976
-0.70740
-0.54962
-0.38920
-0.26210
-0.17532
-0.11746
-0.07977
-0.05785
-0.04734
-0.04208
-0.03506
-0.02980
-0.02542
-0.01490
-0.00789
-0.00526
-0.00526
-0.00526
-0.00526
-0.00526
-0.00526
0.00000
0.00526
0.00526
0.00526
0.00263
0.00000
0.00263
0.00789
0.01227
0.01753
0.02016
0.01753
0.01490
0.01490
0.01490
0.01490
0.02016
0.02717
0.03243
0.03506
0.03243
0.02542
0.02016
0.02279
0.02717
0.03506
0.04032
0.04032
0.04032
0.04032
0.04032
0.04032
0.04208
0.04997
0.05698
0.06224
0.06487
0.06487
0.06487
0.06487
0.06750
0.07451
0.08240
0.08766
0.09029
0.09029
0.09029
0.09029
0.09467
0.10431
0.10957
0.11483
0.12009
0.12272
0.12535
0.12272
0.12272
0.12710
0.13236
0.13938
0.14990
0.15515
0.15253
0.14727
0.14727
0.15253
0.15954
0.16743
0.17269
0.17532
0.17532
0.17532
0.17269
0.17269
0.17707
0.18233
0.18759
0.19197
0.19460
0.19285
0.19022
0.19197
0.19723
0.20249
0.20512
0.20512
0.20512
0.20249
0.19548
0.18584
0.17970
0.18233
0.18496
0.18233
0.17795
0.16830
0.15515
0.14288
0.13236
0.12798
0.12009
0.11308
0.10344
0.08853
0.07363
0.05610
0.04032
0.03068
0.02016
0.01315
0.00351
-0.01140
-0.02717
-0.04208
-0.05259
-0.05698
-0.05961
-0.05961
-0.06224
-0.06925
-0.07714
-0.08678
-0.09730
-0.09993
-0.09818
-0.09292
-0.09029
-0.09029
-0.09204
-0.09730
-0.09993
-0.09993
-0.09993
-0.09993
-0.09555
-0.08766
-0.08678
-0.09204
-0.09467
-0.09730
-0.09818
-0.09292
-0.08766
-0.08503
-0.08678
-0.09467
-0.10256
-0.10519
-0.10519
-0.10256
-0.09818
-0.09292
-0.08766
-0.08678
-0.09029
-0.09029
-0.09029
-0.08766
-0.08328
-0.07977
-0.07977
-0.08240
-0.08678
-0.09204
-0.09467
-0.09292
-0.08590
-0.07539
-0.06574
-0.05610
-0.04821
-0.04295
-0.03594
-0.02805
-0.01841
-0.00789
-0.00088
0.00701
0.00789
0.00526
0.00263
-0.00175
-0.00964
-0.02104
-0.03594
-0.04909
-0.06311
-0.07889
-0.09116
-0.10168
-0.10519
-0.10256
-0.09993
-0.10168
-0.10519
-0.10694
-0.11220
-0.11483
-0.11308
-0.10782
-0.10256
-0.09993
-0.09818
-0.09730
-0.10168
-0.10694
-0.10957
-0.10782
-0.10256
-0.09379
-0.08328
-0.07977
-0.08415
-0.09379
-0.10431
-0.11834
-0.13850
-0.14025
-0.09642
-0.01052
0.09555
0.19372
0.26648
0.26385
0.15253
-0.07451
-0.36729
-0.61273
-0.76613
-0.86957
-0.93794
-0.95723
-0.91077
-0.80821
-0.66620
-0.50579
-0.35414
-0.23229
-0.15340
-0.10431
-0.06837
-0.04208
-0.02367
-0.01315
-0.00964
-0.00964
-0.00964
-0.00789
-0.00526
-0.00088
0.00877
0.01490
0.01490
0.01490
0.01490
0.01490
0.01490
0.01490
0.01666
0.02367
0.02980
0.02805
0.02279
0.01841
0.01490
0.01666
0.02367
0.03156
0.03506
0.03506
0.03506
0.03506
0.03506
0.03682
0.04032
0.04208
0.04909
0.05522
0.05347
0.04821
0.04295
0.04032
0.04383
0.05347
0.06224
0.06487
0.06487
0.06311
0.05961
0.05961
0.06224
0.07100
0.08152
0.08503
0.08503
0.08503
0.08503
0.08503
0.08678
0.09379
0.10344
0.10957
0.10957
0.10957
0.10957
0.10957
0.11220
0.11659
0.12360
0.13149
0.13675
0.14025
0.13850
0.13499
0.13499
0.13850
0.14902
0.15691
0.16217
0.16655
0.16830
0.16304
0.16041
0.16217
0.16830
0.17707
0.18145
0.18496
0.18671
0.18846
0.18496
0.18496
0.18846
0.19723
0.20161
0.20512
0.20512
0.20512
0.20337
0.19811
0.19635
0.20161
0.20512
0.20687
0.20863
0.20337
0.19635
0.18846
0.18321
0.17970
0.17795
0.17356
0.16655
0.15515
0.13938
0.12447
0.11133
0.09993
0.08678
0.07451
0.05961
0.04471
0.02805
0.00964
-0.00526
-0.01841
-0.02630
-0.03156
-0.03857
-0.04821
-0.05873
-0.06837
-0.07714
-0.08328
-0.09204
-0.09467
-0.09467
-0.09642
-0.09993
-0.10344
-0.11133
-0.11483
-0.11308
-0.10870
-0.10344
-0.09993
-0.10168
-0.10694
-0.11133
-0.11483
-0.11308
-0.10870
-0.10344
-0.09993
-0.09993
-0.10168
-0.10519
-0.10694
-0.10957
-0.10870
-0.10344
-0.09993
-0.09993
-0.10168
-0.10694
-0.11133
-0.11659
-0.11834
-0.11133
-0.10344
-0.09993
-0.09993
-0.10168
-0.10694
-0.11133
-0.11483
-0.11308
-0.10870
-0.10344
-0.10168
-0.10694
-0.11133
-0.11308
-0.10870
-0.10344
-0.09642
-0.08678
-0.07539
-0.06311
-0.05873
-0.05522
-0.04997
-0.03682
-0.02805
-0.02367
-0.02016
-0.02191
-0.02630
-0.03331
-0.04295
-0.05347
-0.06311
-0.07276
-0.08152
-0.08941
-0.10344
-0.11483
-0.12623
-0.12973
-0.12973
-0.12886
-0.12535
-0.12535
-0.12535
-0.12798
-0.13850
-0.14464
-0.14376
-0.13850
-0.13324
-0.12886
-0.12623
-0.13149
-0.13499
-0.13499
-0.13324
-0.12886
-0.12535
-0.12360
-0.12009
-0.12184
-0.12798
-0.14288
-0.16918
-0.19285
-0.18934
-0.13499
-0.03156
0.07802
0.18321
0.25771
0.24457
0.10344
-0.15778
-0.44706
-0.66007
-0.79594
-0.89236
-0.95284
-0.95810
-0.90025
-0.78542
-0.62851
-0.45758
-0.31119
-0.20775
-0.14201
-0.10081
-0.07276
-0.05084
-0.03682
-0.02717
-0.01841
-0.01490
-0.01490
-0.01490
-0.01490
-0.01315
-0.00877
-0.00526
-0.00351
0.00000
-0.00175
-0.00526
-0.00526
-0.00526
-0.00351
0.00175
0.00614
0.00964
0.00877
0.00351
0.00000
0.00175
0.00789
0.01666
0.02104
0.02630
0.02893
0.02367
0.02016
0.02016
0.02104
0.02805
0.03682
0.04032
0.04032
0.03857
0.03506
0.03682
0.04120
0.04646
0.05172
0.05610
0.05961
0.05873
0.05522
0.05347
0.05172
0.05785
0.06662
0.07276
0.07977
0.08152
0.08328
0.07977
0.08152
0.08678
0.09292
0.10168
0.10607
0.10957
0.10870
0.10519
0.10607
0.10957
0.11396
0.12798
0.13499
0.13499
0.13499
0.13499
0.13499
0.13499
0.13762
0.14727
0.15603
0.16129
0.16480
0.16392
0.16041
0.16129
0.16655
0.17093
0.17619
0.17970
0.17970
0.17970
0.17970
0.17970
0.17970
0.18145
0.18759
0.19460
0.19460
0.19372
0.18846
0.18496
0.18496
0.18584
0.19022
0.19109
0.19372
0.18846
0.18408
0.17707
0.16918
0.16392
0.16041
0.15866
0.15340
0.14639
0.12973
0.11133
0.09642
0.08240
0.07276
0.06399
0.05610
0.04295
0.02980
0.01052
-0.00701
-0.01841
-0.02980
-0.03156
-0.03594
-0.04208
-0.05259
-0.06399
-0.07626
-0.08240
-0.09116
-0.09467
-0.09467
-0.09467
-0.09642
-0.09993
-0.10081
-0.10519
-0.10344
-0.09993
-0.09905
-0.09467
-0.09642
-0.09993
-0.10081
-0.10607
-0.10870
-0.10344
-0.09993
-0.09993
-0.09993
-0.10081
-0.10607
-0.11133
-0.11659
-0.11746
-0.10782
-0.09993
-0.09993
-0.09993
-0.10081
-0.10694
-0.11571
-0.11922
-0.11396
-0.10870
-0.10431
-0.09993
-0.10081
-0.10694
-0.11571
-0.11922
-0.11308
-0.10256
-0.09379
-0.08853
-0.08415
-0.07889
-0.07188
-0.05873
-0.05084
-0.03243
-0.02367
-0.02016
-0.02016
-0.02104
-0.02630
-0.02980
-0.03068
-0.03682
-0.04821
-0.06311
-0.07802
-0.09467
-0.11308
-0.12710
-0.13675
-0.14376
-0.13938
-0.13499
-0.13587
-0.14113
-0.14639
-0.14990
-0.14990
-0.14902
-0.14376
-0.13938
-0.13499
-0.13587
-0.14201
-0.14990
-0.14990
-0.14902
-0.14288
-0.13412
-0.12886
-0.12623
-0.13061
-0.13587
-0.14025
-0.14201
-0.15428
-0.17532
-0.19285
-0.17181
-0.09993
0.00088
0.10431
0.19460
0.24895
0.19285
0.01052
-0.26560
-0.53121
-0.72581
-0.84941
-0.93970
-0.97826
-0.95372
-0.85993
-0.72406
-0.56277
-0.40498
-0.28226
-0.19811
-0.14201
-0.10431
-0.07626
-0.05873
-0.05435
-0.05084
-0.05522
-0.05610
-0.05961
-0.05873
-0.05522
-0.05522
-0.05522
-0.05698
-0.06750
-0.08152
-0.09029
-0.08853
-0.07626
-0.05698
-0.04208
-0.02805
-0.02279
-0.03857
-0.05698
-0.06574
-0.06925
-0.06311
-0.05522
-0.05698
-0.06750
-0.08152
-0.09204
-0.09993
-0.09905
-0.09379
-0.09029
-0.09116
-0.09555
-0.10081
-0.10607
-0.10870
-0.10431
-0.09730
-0.08415
-0.07889
-0.07539
-0.07539
-0.07626
-0.07889
-0.07363
-0.06311
-0.05347
-0.04208
-0.02980
-0.02980
-0.03068
-0.03506
-0.03331
-0.02191
-0.00175
0.01841
0.03594
0.04032
0.04032
0.04120
0.04734
0.06136
0.07276
0.08766
0.10081
0.10431
0.09993
0.09993
0.09993
0.10168
0.11220
0.12623
0.13675
0.14551
0.15077
0.15428
0.15077
0.15515
0.15691
0.16567
0.17181
0.17970
0.17970
0.17882
0.16918
0.16567
0.17181
0.18058
0.18671
0.19460
0.19460
0.18846
0.17882
0.17006
0.17093
0.17619
0.18671
0.19460
0.19372
0.18233
0.16830
0.15954
0.15515
0.15603
0.16041
0.16567
0.16830
0.15778
0.14288
0.12710
0.10957
0.10519
0.10519
0.10344
0.09379
0.08240
0.06311
0.04821
0.03769
0.02367
0.01490
0.01403
0.00351
-0.00614
-0.01753
-0.03769
-0.05698
-0.07100
-0.07977
-0.07977
-0.07977
-0.08065
-0.08678
-0.10168
-0.11133
-0.12097
-0.12447
-0.11834
-0.10957
-0.10519
-0.10519
-0.10607
-0.11571
-0.12009
-0.11922
-0.11308
-0.09905
-0.09379
-0.08590
-0.09730
-0.11659
-0.12973
-0.12886
-0.11746
-0.09905
-0.08766
-0.07363
-0.06487
-0.06487
-0.06487
-0.06399
-0.05435
-0.04909
-0.03857
-0.02893
-0.02016
-0.02104
-0.02542
-0.02980
-0.02980
-0.02893
-0.01841
-0.00964
-0.00526
-0.00526
-0.01052
-0.01578
-0.01841
-0.00877
0.00263
0.02191
0.04032
0.04032
0.04032
0.04032
0.04120
0.05172
0.06574
0.06925
0.06399
0.05259
0.02805
0.00789
-0.00701
-0.02016
-0.02367
-0.01403
-0.00964
-0.01052
-0.01578
-0.02630
-0.03594
-0.04471
-0.03945
-0.03419
-0.02980
-0.02542
-0.02542
-0.03068
-0.03506
-0.03506
-0.03419
-0.02893
-0.02016
-0.02016
-0.02104
-0.03068
-0.04120
-0.04997
-0.04909
-0.03945
-0.03594
-0.04208
-0.06837
-0.09379
-0.07276
0.00614
0.12184
0.24106
0.34976
0.38833
0.30593
0.09379
-0.22440
-0.51806
-0.70127
-0.81171
-0.87746
-0.89587
-0.85204
-0.76263
-0.63114
-0.48563
-0.32872
-0.20600
-0.10782
-0.03506
0.01227
0.03506
0.04120
0.05084
0.05522
0.06048
0.06662
0.08152
0.09555
0.09993
0.09467
0.08941
0.08503
0.08503
0.08503
0.09116
0.09993
0.09993
0.09379
0.08328
0.06399
0.04997
0.04558
0.05610
0.06662
0.08065
0.08503
0.08503
0.07977
0.08065
0.09116
0.10081
0.11571
0.12535
0.12886
0.11922
0.10870
0.09467
0.09029
0.09116
0.10081
0.11045
0.12009
0.11922
0.10957
0.09905
0.09029
0.10081
0.11659
0.13675
0.15515
0.15954
0.15515
0.15428
0.15077
0.15515
0.16129
0.17532
0.18584
0.19548
0.20512
0.21038
0.21564
0.22703
0.25158
0.28138
0.30593
0.31995
0.31469
0.30417
0.29453
0.28489
0.27963
0.28051
0.28577
0.29453
0.28401
0.27525
0.27437
0.26473
0.25509
0.26034
0.26999
0.26999
0.26473
0.25421
0.23931
0.21915
0.20512
0.19986
0.19986
0.20512
0.20512
0.19986
0.18934
0.17882
0.16480
0.16041
0.16567
0.17006
0.17532
0.17444
0.15954
0.14902
0.13499
0.12973
0.12535
0.12973
0.12973
0.12447
0.11483
0.10431
0.08941
0.07977
0.07013
0.07013
0.07013
0.06487
0.05435
0.03419
0.01403
-0.00614
-0.02542
-0.02980
-0.03506
-0.04558
-0.05522
-0.07100
-0.09029
-0.10519
-0.11483
-0.12009
-0.11483
-0.11045
-0.11483
-0.12009
-0.13061
-0.14551
-0.15515
-0.15515
-0.14990
-0.14464
-0.14025
-0.14551
-0.15077
-0.16480
-0.17006
-0.17444
-0.16918
-0.15515
-0.14990
-0.14551
-0.14990
-0.14990
-0.15515
-0.15515
-0.15515
-0.14990
-0.14990
-0.14551
-0.14990
-0.16041
-0.17006
-0.17970
-0.17970
-0.17006
-0.15954
-0.15515
-0.15515
-0.16041
-0.17006
-0.17532
-0.17006
-0.16480
-0.14990
-0.14025
-0.13499
-0.12973
-0.13499
-0.13499
-0.12973
-0.11483
-0.09993
-0.07977
-0.07539
-0.07539
-0.07977
-0.08503
-0.09029
-0.09029
-0.09467
-0.09993
-0.11045
-0.12535
-0.14990
-0.17006
-0.18496
-0.19460
-0.19022
-0.17970
-0.17006
-0.17006
-0.17532
-0.18496
-0.19022
-0.19460
-0.19022
-0.17970
-0.17006
-0.17006
-0.17006
-0.17970
-0.19022
-0.19022
-0.18496
-0.17006
-0.15954
-0.14990
-0.15515
-0.16041
-0.17006
-0.17006
-0.17532
-0.19022
-0.20512
-0.21476
-0.17532
-0.09029
0.02016
0.12009
0.22002
0.24983
0.15515
-0.07889
-0.38833
-0.63903
-0.79944
-0.90901
-0.98440
-1.00456
-0.95547
-0.85116
-0.71091
-0.54611
-0.40147
-0.29103
-0.22090
-0.16567
-0.12535
-0.09029
-0.07013
-0.05522
-0.05522
-0.05961
-0.06487
-0.06487
-0.06048
-0.05522
-0.04471
-0.03506
-0.03506
-0.04032
-0.04997
-0.04997
-0.04471
-0.03068
-0.02016
-0.01052
-0.00964
-0.02016
-0.02980
-0.02980
-0.02980
-0.02542
-0.01490
-0.00526
-0.00526
-0.00964
-0.02016
-0.02454
-0.02542
-0.01490
-0.00526
0.00438
0.00964
0.00964
0.00526
-0.00438
-0.00526
0.00000
0.00964
0.02016
0.02980
0.02980
0.02016
0.01490
0.01052
0.01490
0.02016
0.02980
0.03945
0.04471
0.04471
0.04032
0.03506
0.03506
0.03945
0.05435
0.06487
0.06487
0.06487
0.06487
0.06048
0.05522
0.06487
0.07451
0.08503
0.09467
0.09993
0.09029
0.08503
0.08503
0.08503
0.09905
0.10957
0.11922
0.12447
0.12535
0.11571
0.11045
0.11483
0.12447
0.13499
0.14902
0.15515
0.15515
0.14990
0.14025
0.14025
0.14464
0.15428
0.16480
0.17444
0.17970
0.17532
0.16567
0.16041
0.16041
0.16480
0.17444
0.17970
0.17970
0.17093
0.15603
0.14990
0.14551
0.14990
0.15515
0.15954
0.16041
0.15515
0.14113
0.12623
0.11045
0.10081
0.09029
0.08503
0.08065
0.06574
0.05084
0.03156
0.01140
-0.00438
-0.00526
-0.00964
-0.01490
-0.02454
-0.03419
-0.05347
-0.06925
-0.07977
-0.08503
-0.08065
-0.07977
-0.07977
-0.08941
-0.09905
-0.10957
-0.11483
-0.11045
-0.10519
-0.09555
-0.09029
-0.09467
-0.09993
-0.10957
-0.11483
-0.11483
-0.11045
-0.10081
-0.08590
-0.08065
-0.07977
-0.07977
-0.08503
-0.08941
-0.09029
-0.08065
-0.07539
-0.07539
-0.07977
-0.08503
-0.09905
-0.09993
-0.09993
-0.09993
-0.09116
-0.08503
-0.08941
-0.09905
-0.10431
-0.11396
-0.11483
-0.11045
-0.10081
-0.09555
-0.09467
-0.09993
-0.09993
-0.09993
-0.09993
-0.09116
-0.08065
-0.06662
-0.05610
-0.05084
-0.04558
-0.04032
-0.03506
-0.03068
-0.02104
-0.00614
-0.00088
-0.00438
-0.00964
-0.02805
-0.05259
-0.07276
-0.08853
-0.09905
-0.09993
-0.10870
-0.12360
-0.13850
-0.14902
-0.15866
-0.16041
-0.15515
-0.15077
-0.14551
-0.14464
-0.14990
-0.15428
-0.15954
-0.16041
-0.15077
-0.14551
-0.14025
-0.14464
-0.14990
-0.15428
-0.15515
-0.15077
-0.13675
-0.12623
-0.12009
-0.11571
-0.12360
-0.15165
-0.18233
-0.19811
-0.17269
-0.08065
0.03769
0.14814
0.24018
0.29015
0.22353
0.02279
-0.26823
-0.53208
-0.69864
-0.81347
-0.89587
-0.94057
-0.93619
-0.87308
-0.75824
-0.60309
-0.42514
-0.28051
-0.18496
-0.13061
-0.09818
-0.08152
-0.07539
-0.06574
-0.05610
-0.04208
-0.03594
-0.03068
-0.03419
-0.03506
-0.03945
-0.03594
-0.03068
-0.01666
-0.00614
-0.00088
-0.00438
-0.00964
-0.01403
-0.01052
-0.00526
-0.00088
0.00877
0.01403
0.01490
0.00614
-0.00351
-0.01403
-0.01052
-0.00088
0.00877
0.01403
0.01052
0.00526
0.00088
0.00000
0.00438
0.00964
0.01841
0.02893
0.03419
0.02630
0.02104
0.01578
0.01928
0.03331
0.04821
0.05873
0.06399
0.06048
0.05610
0.05084
0.05435
0.05961
0.06837
0.08328
0.08503
0.08941
0.08590
0.08065
0.07539
0.07889
0.08853
0.09905
0.10431
0.10519
0.10957
0.10957
0.10957
0.11834
0.12886
0.13850
0.14464
0.14464
0.14464
0.13675
0.13499
0.13499
0.14376
0.15778
0.16830
0.17882
0.17532
0.17093
0.16567
0.16041
0.15603
0.16392
0.17356
0.17882
0.17532
0.17093
0.16129
0.16041
0.16392
0.17356
0.17882
0.18846
0.19022
0.18584
0.18058
0.17619
0.17532
0.17882
0.18408
0.19372
0.19460
0.18671
0.18058
0.16743
0.15691
0.15515
0.15515
0.15515
0.15077
0.13762
0.12272
0.10344
0.08328
0.06750
0.06487
0.06048
0.05610
0.04646
0.03243
0.01315
-0.00263
-0.01753
-0.02805
-0.02980
-0.02980
-0.02980
-0.03419
-0.04734
-0.05435
-0.05873
-0.05961
-0.05610
-0.05522
-0.05522
-0.05873
-0.06399
-0.07363
-0.07889
-0.07977
-0.07977
-0.07626
-0.07100
-0.07013
-0.07802
-0.08415
-0.08941
-0.09379
-0.09116
-0.08152
-0.07626
-0.07100
-0.07451
-0.07889
-0.08415
-0.09292
-0.09116
-0.08590
-0.08065
-0.07977
-0.07977
-0.07977
-0.08415
-0.09292
-0.09905
-0.09555
-0.08240
-0.06750
-0.06487
-0.07276
-0.08328
-0.08941
-0.09379
-0.08678
-0.08065
-0.06750
-0.05698
-0.05084
-0.04997
-0.04558
-0.04120
-0.02805
-0.00877
0.00351
0.01315
0.01490
0.01490
0.00701
-0.00351
-0.00877
-0.01841
-0.02805
-0.03769
-0.05172
-0.07539
-0.09642
-0.11220
-0.12272
-0.12535
-0.12535
-0.12535
-0.12097
-0.12360
-0.12886
-0.12973
-0.12973
-0.12973
-0.12623
-0.12535
-0.12097
-0.12360
-0.12535
-0.13324
-0.13938
-0.13587
-0.12710
-0.12097
-0.11571
-0.11133
-0.11396
-0.12272
-0.12886
-0.13762
-0.15165
-0.16655
-0.17795
-0.15603
-0.08240
0.01841
0.11922
0.21915
0.27525
0.22178
0.02279
-0.26999
-0.54436
-0.73019
-0.85993
-0.94408
-0.98352
-0.95810
-0.87132
-0.73983
-0.58030
-0.42339
-0.29541
-0.21126
-0.15165
-0.10431
-0.07188
-0.04909
-0.03331
-0.02980
-0.02980
-0.03419
-0.03506
-0.03068
-0.02191
-0.01227
-0.00614
-0.00526
-0.00877
-0.01403
-0.02279
-0.02104
-0.01227
-0.00614
0.00263
0.00877
0.00614
-0.00263
-0.00877
-0.00964
-0.00614
0.00263
0.01315
0.01490
0.01490
0.01140
0.00263
0.00000
0.00000
0.01140
0.01928
0.02805
0.02980
0.02191
0.01578
0.01490
0.01490
0.02630
0.03769
0.04383
0.04909
0.04646
0.04120
0.04032
0.04032
0.04383
0.05610
0.06750
0.07363
0.07539
0.06750
0.06487
0.06487
0.06487
0.07626
0.08415
0.08853
0.09029
0.09029
0.08590
0.08503
0.08503
0.09292
0.10607
0.11396
0.11922
0.11659
0.11133
0.10957
0.10957
0.11746
0.13149
0.13850
0.14376
0.14902
0.14288
0.13587
0.13499
0.13850
0.15165
0.16217
0.17269
0.17532
0.17093
0.16655
0.15778
0.15866
0.16743
0.17707
0.18408
0.18846
0.18584
0.17795
0.16743
0.16480
0.16830
0.17707
0.18408
0.18496
0.18145
0.17269
0.15866
0.15515
0.15515
0.15515
0.15515
0.15515
0.15165
0.13499
0.11483
0.09905
0.08766
0.08152
0.07626
0.06750
0.05435
0.03506
0.01490
-0.00088
-0.01928
-0.02893
-0.02980
-0.03331
-0.03857
-0.05084
-0.06925
-0.08240
-0.09204
-0.09467
-0.09116
-0.08678
-0.08503
-0.08853
-0.09730
-0.10694
-0.11396
-0.11483
-0.11133
-0.10256
-0.09642
-0.09467
-0.09905
-0.10344
-0.10870
-0.11396
-0.11133
-0.10256
-0.09642
-0.09116
-0.09379
-0.09818
-0.10344
-0.10870
-0.10607
-0.09818
-0.09116
-0.08678
-0.08853
-0.09730
-0.10344
-0.10870
-0.10957
-0.10256
-0.09642
-0.09116
-0.09029
-0.09379
-0.10256
-0.10870
-0.10957
-0.10256
-0.09292
-0.08328
-0.06925
-0.05785
-0.05522
-0.05522
-0.05522
-0.04120
-0.02454
-0.00964
-0.00175
0.00000
-0.00351
-0.00877
-0.01666
-0.02717
-0.03331
-0.04558
-0.05698
-0.07100
-0.08590
-0.10081
-0.11922
-0.12886
-0.12973
-0.12623
-0.12184
-0.12009
-0.12360
-0.13236
-0.14201
-0.14464
-0.14464
-0.13762
-0.12798
-0.12535
-0.12535
-0.12535
-0.13236
-0.13850
-0.13675
-0.13149
-0.12623
-0.11834
-0.10782
-0.10519
-0.10870
-0.11659
-0.12710
-0.14025
-0.15866
-0.16830
-0.13850
-0.06574
0.03243
0.13412
0.23405
0.29628
0.25158
0.06662
-0.21564
-0.48913
-0.68724
-0.82223
-0.91866
-0.96249
-0.94232
-0.86168
-0.73019
-0.57153
-0.41375
-0.28664
-0.20249
-0.14551
-0.10607
-0.07451
-0.05172
-0.03506
-0.02980
-0.02980
-0.02980
-0.02980
-0.02980
-0.02279
-0.00964
-0.00175
0.00000
-0.00351
-0.00526
-0.00877
-0.00964
-0.00701
0.00526
0.01315
0.01490
0.01490
0.00789
0.00175
-0.00351
0.00175
0.01140
0.02191
0.02542
0.02542
0.01841
0.01140
0.00964
0.01315
0.01841
0.02980
0.03857
0.04032
0.03682
0.02805
0.02542
0.02542
0.03506
0.04295
0.05172
0.05522
0.05172
0.04295
0.04032
0.04032
0.04295
0.05522
0.06311
0.06837
0.07013
0.06662
0.06136
0.06311
0.06487
0.07451
0.08678
0.09642
0.09993
0.09642
0.09204
0.08678
0.08853
0.09993
0.11133
0.12184
0.12798
0.12710
0.12184
0.11659
0.11483
0.12184
0.13149
0.14464
0.15340
0.15515
0.14814
0.14201
0.14025
0.14639
0.15340
0.16480
0.17619
0.17970
0.17356
0.16392
0.15691
0.15866
0.16655
0.17619
0.18321
0.18496
0.18145
0.17970
0.17356
0.16655
0.16830
0.17619
0.18321
0.18846
0.19022
0.18321
0.17707
0.16830
0.16480
0.16480
0.16830
0.16392
0.15340
0.14025
0.12184
0.10519
0.09379
0.08678
0.07889
0.06837
0.05873
0.04558
0.02717
0.01052
-0.00175
-0.01140
-0.01841
-0.02016
-0.02630
-0.03594
-0.04909
-0.06750
-0.08152
-0.08503
-0.08152
-0.07714
-0.07802
-0.07977
-0.08941
-0.09818
-0.10344
-0.10168
-0.09993
-0.09379
-0.08678
-0.08853
-0.09642
-0.10344
-0.10782
-0.10957
-0.10344
-0.09730
-0.08853
-0.08152
-0.07977
-0.08941
-0.09818
-0.10344
-0.10782
-0.10694
-0.10168
-0.09379
-0.09029
-0.09292
-0.09818
-0.09993
-0.09993
-0.09730
-0.08853
-0.08152
-0.07977
-0.08328
-0.09116
-0.09818
-0.09993
-0.09379
-0.08415
-0.07363
-0.06048
-0.05522
-0.05522
-0.05522
-0.04909
-0.03594
-0.01490
0.00438
0.01315
0.01490
0.01490
0.01490
0.00877
-0.00088
-0.00789
-0.01928
-0.03419
-0.04909
-0.07013
-0.08590
-0.09642
-0.10344
-0.10782
-0.10694
-0.10519
-0.10168
-0.10344
-0.11133
-0.12097
-0.12535
-0.12535
-0.11922
-0.11220
-0.10694
-0.10782
-0.11308
-0.12097
-0.12535
-0.12535
-0.11922
-0.10607
-0.09730
-0.09204
-0.09555
-0.10256
-0.11133
-0.12097
-0.12798
-0.13850
-0.14814
-0.13499
-0.08328
0.00438
0.10431
0.20424
0.27437
0.25684
0.10607
-0.16217
-0.44881
-0.66270
-0.80295
-0.89674
-0.95372
-0.95284
-0.88710
-0.76789
-0.61361
-0.45144
-0.31206
-0.20775
-0.13762
-0.09467
-0.05961
-0.03331
-0.01666
-0.00701
-0.00789
-0.01315
-0.01490
-0.00964
-0.00175
0.00614
0.01315
0.01490
0.01490
0.00964
0.00175
0.00263
0.01052
0.01753
0.02542
0.02980
0.02454
0.01753
0.01227
0.00964
0.01315
0.01753
0.02893
0.03769
0.03682
0.03243
0.02454
0.02016
0.02016
0.02542
0.03594
0.04295
0.04471
0.04208
0.03682
0.03243
0.02980
0.03594
0.04558
0.05873
0.06487
0.05961
0.04909
0.04208
0.04032
0.04558
0.05873
0.07100
0.07539
0.07539
0.07188
0.06750
0.06487
0.06750
0.07539
0.08590
0.09555
0.09993
0.09993
0.09730
0.09204
0.09292
0.10344
0.11571
0.12535
0.12973
0.12710
0.12184
0.11746
0.11746
0.12798
0.14025
0.15077
0.15778
0.16041
0.15691
0.15253
0.14990
0.15253
0.16304
0.17532
0.18233
0.18496
0.18233
0.17707
0.17532
0.17795
0.18233
0.19285
0.20249
0.20512
0.20512
0.19986
0.19197
0.19022
0.19285
0.20074
0.20775
0.21038
0.20687
0.19723
0.18496
0.17970
0.17970
0.18233
0.18496
0.18233
0.17707
0.16392
0.14464
0.12710
0.11483
0.10431
0.09730
0.09204
0.08240
0.06399
0.04208
0.01928
0.00175
-0.00789
-0.01227
-0.01753
-0.02542
-0.03506
-0.04821
-0.06311
-0.07539
-0.08240
-0.08240
-0.07977
-0.07977
-0.08240
-0.09029
-0.09993
-0.11045
-0.11483
-0.10957
-0.10256
-0.09467
-0.09029
-0.09555
-0.10256
-0.11045
-0.11483
-0.10957
-0.09993
-0.08941
-0.08503
-0.08766
-0.09555
-0.10519
-0.11220
-0.10957
-0.10256
-0.09204
-0.08240
-0.07977
-0.08240
-0.09029
-0.09730
-0.09993
-0.09993
-0.09467
-0.08503
-0.07977
-0.08240
-0.09029
-0.09730
-0.09993
-0.09993
-0.09204
-0.08240
-0.07451
-0.07013
-0.07539
-0.07977
-0.07451
-0.06487
-0.04997
-0.02980
-0.01227
-0.00526
-0.00526
-0.00789
-0.00964
-0.00789
-0.00263
0.00263
0.00000
-0.01227
-0.03243
-0.06048
-0.08240
-0.09467
-0.09993
-0.09993
-0.09993
-0.09993
-0.10519
-0.11746
-0.12710
-0.12973
-0.12710
-0.12272
-0.11483
-0.10782
-0.10519
-0.10957
-0.12009
-0.12710
-0.12973
-0.12710
-0.11746
-0.10519
-0.09993
-0.09993
-0.10256
-0.10782
-0.11220
-0.11220
-0.10519
-0.10256
-0.11483
-0.13938
-0.15778
-0.13324
-0.05347
0.05347
0.16655
0.26911
0.30242
0.20249
-0.03594
-0.33836
-0.58731
-0.74334
-0.84152
-0.89937
-0.91778
-0.88359
-0.79944
-0.67234
-0.51806
-0.36466
-0.24194
-0.15603
-0.09818
-0.06048
-0.03769
-0.02980
-0.02980
-0.02980
-0.02542
-0.01490
-0.00789
-0.00263
0.00000
-0.00263
-0.00701
-0.01227
-0.01227
-0.00789
0.00175
0.01227
0.01490
0.01490
0.01052
0.00263
0.00263
0.00701
0.01490
0.02454
0.03243
0.03243
0.02542
0.01753
0.01490
0.01753
0.02454
0.03506
0.04208
0.04471
0.04295
0.03506
0.02805
0.02717
0.03506
0.04471
0.05435
0.05961
0.05522
0.04558
0.04032
0.04208
0.04997
0.05961
0.06925
0.07714
0.07977
0.07539
0.06750
0.06487
0.06750
0.07714
0.08766
0.09467
0.10256
0.10081
0.09292
0.08766
0.08766
0.09467
0.10431
0.11483
0.12184
0.12272
0.11746
0.11483
0.11746
0.12710
0.13938
0.14990
0.15515
0.15515
0.15515
0.15253
0.14814
0.14990
0.15691
0.16480
0.17181
0.17707
0.17970
0.17532
0.16743
0.16743
0.17444
0.18233
0.18934
0.19460
0.19285
0.18759
0.18321
0.17970
0.18233
0.18934
0.19898
0.20512
0.20512
0.19811
0.18584
0.17970
0.17970
0.18408
0.19022
0.19022
0.18584
0.17356
0.15866
0.14376
0.13324
0.12798
0.12272
0.11746
0.10870
0.09116
0.07100
0.05172
0.03156
0.01753
0.01490
0.01052
0.00088
-0.01403
-0.03156
-0.04646
-0.06136
-0.07013
-0.07013
-0.07013
-0.07013
-0.07451
-0.08240
-0.09116
-0.10256
-0.10519
-0.10256
-0.09818
-0.09292
-0.09029
-0.09379
-0.10168
-0.10957
-0.11483
-0.11045
-0.10256
-0.09555
-0.08766
-0.08503
-0.08941
-0.09905
-0.10519
-0.10519
-0.10256
-0.09555
-0.09029
-0.09029
-0.09379
-0.09993
-0.10168
-0.10519
-0.10256
-0.09555
-0.08766
-0.08503
-0.08941
-0.09730
-0.10168
-0.10519
-0.10256
-0.09379
-0.08065
-0.07100
-0.06311
-0.05961
-0.05961
-0.05785
-0.04909
-0.03156
-0.01403
-0.00263
0.00000
0.00000
-0.00175
-0.00701
-0.01227
-0.01666
-0.02191
-0.03068
-0.04646
-0.06487
-0.08766
-0.10782
-0.12184
-0.12535
-0.12535
-0.12272
-0.11834
-0.11659
-0.12184
-0.12886
-0.13675
-0.14025
-0.13412
-0.12272
-0.11834
-0.11483
-0.11922
-0.12710
-0.12973
-0.12798
-0.12272
-0.11571
-0.10782
-0.10519
-0.10519
-0.10870
-0.11659
-0.12184
-0.12535
-0.13061
-0.14814
-0.16041
-0.14288
-0.07802
0.01841
0.11922
0.21652
0.28314
0.24632
0.07188
-0.20249
-0.47686
-0.67234
-0.80558
-0.89324
-0.93356
-0.91515
-0.83100
-0.70477
-0.55400
-0.40323
-0.28401
-0.19986
-0.14288
-0.10168
-0.07013
-0.04909
-0.03594
-0.03156
-0.03682
-0.04032
-0.03594
-0.02630
-0.01666
-0.00789
-0.00526
-0.00526
-0.00877
-0.01490
-0.01315
-0.00614
0.00351
0.01227
0.01666
0.01841
0.01490
0.01315
0.00964
0.01227
0.01666
0.02191
0.02717
0.02805
0.02104
0.01490
0.01315
0.01227
0.01666
0.02367
0.03331
0.03857
0.03331
0.02630
0.02016
0.02191
0.02893
0.03857
0.04821
0.05522
0.05347
0.04646
0.04032
0.04032
0.04208
0.04997
0.06399
0.07363
0.07802
0.07363
0.06837
0.06487
0.06662
0.07539
0.08853
0.09818
0.10519
0.10344
0.09642
0.09029
0.09379
0.10344
0.11571
0.12886
0.13499
0.13499
0.13324
0.12798
0.12710
0.13149
0.14025
0.15165
0.15866
0.16480
0.16304
0.15866
0.15691
0.16304
0.17356
0.18321
0.19372
0.19811
0.19197
0.18321
0.17795
0.17532
0.17707
0.18496
0.19811
0.20687
0.20863
0.20337
0.19635
0.19022
0.19197
0.19811
0.20687
0.21301
0.21652
0.20687
0.19635
0.18846
0.18496
0.18671
0.19022
0.18846
0.18145
0.17006
0.15515
0.14025
0.12623
0.11834
0.11308
0.10957
0.10519
0.08678
0.06136
0.03857
0.02191
0.01490
0.01315
0.00877
0.00175
-0.01140
-0.02980
-0.04471
-0.05785
-0.06662
-0.07013
-0.07013
-0.07013
-0.07363
-0.08503
-0.09993
-0.11308
-0.12009
-0.11659
-0.10694
-0.09993
-0.09993
-0.10168
-0.10782
-0.11659
-0.12009
-0.11834
-0.11220
-0.10344
-0.09818
-0.09642
-0.10168
-0.10957
-0.12184
-0.12535
-0.12184
-0.11045
-0.09993
-0.09818
-0.09642
-0.10168
-0.10694
-0.10957
-0.10694
-0.09818
-0.09379
-0.08853
-0.08678
-0.09292
-0.09818
-0.09204
-0.08152
-0.06837
-0.04909
-0.03068
-0.02016
-0.02016
-0.02191
-0.02367
-0.01666
-0.00877
-0.00351
-0.00175
-0.00964
-0.02805
-0.05435
-0.08240
-0.10431
-0.11483
-0.11483
-0.11483
-0.11659
-0.12184
-0.12798
-0.13675
-0.14113
-0.14376
-0.13675
-0.12886
-0.12535
-0.12623
-0.13149
-0.13762
-0.14639
-0.14814
-0.14025
-0.12710
-0.11834
-0.11659
-0.12184
-0.12623
-0.12973
-0.12973
-0.12886
-0.12360
-0.11834
-0.11834
-0.13499
-0.16743
-0.17882
-0.14025
-0.04558
0.07451
0.19197
0.28577
0.30593
0.19811
-0.04558
-0.35326
-0.61010
-0.76526
-0.85993
-0.92041
-0.93970
-0.90376
-0.81873
-0.70039
-0.55312
-0.39359
-0.26297
-0.17532
-0.11483
-0.08415
-0.06837
-0.06224
-0.05347
-0.04558
-0.03243
-0.02191
-0.01403
-0.00964
-0.01315
-0.02279
-0.02980
-0.02717
-0.01578
-0.00263
0.00614
0.00964
0.00877
0.00263
-0.00526
-0.00351
0.00175
0.00789
0.01490
0.01490
0.01490
0.01227
0.00351
0.00175
0.00789
0.01666
0.02367
0.03594
0.03857
0.03331
0.02717
0.01841
0.01666
0.02367
0.03769
0.04646
0.04909
0.04383
0.03857
0.03506
0.03594
0.04295
0.05259
0.06136
0.06487
0.06487
0.06399
0.05873
0.05610
0.06136
0.06925
0.08152
0.08590
0.08853
0.08328
0.07889
0.07539
0.07714
0.08590
0.09467
0.11133
0.11483
0.11396
0.10957
0.10957
0.11133
0.11746
0.12710
0.13762
0.14639
0.14902
0.14288
0.13499
0.13587
0.14288
0.15340
0.16743
0.17619
0.17970
0.17882
0.17269
0.16480
0.16743
0.17619
0.18408
0.19635
0.19898
0.19285
0.18408
0.17882
0.17619
0.18233
0.19372
0.20512
0.20512
0.20337
0.19723
0.18846
0.18496
0.18584
0.19109
0.19635
0.19898
0.19285
0.18233
0.17006
0.15253
0.14376
0.13850
0.13499
0.13236
0.12009
0.09993
0.07889
0.05522
0.03682
0.02279
0.01403
0.00789
-0.00263
-0.01490
-0.03419
-0.05347
-0.06750
-0.07626
-0.07977
-0.07977
-0.07977
-0.08240
-0.09379
-0.10694
-0.11571
-0.11922
-0.11308
-0.10344
-0.09993
-0.09993
-0.10256
-0.11220
-0.12097
-0.12535
-0.12272
-0.11308
-0.10431
-0.09993
-0.10081
-0.10694
-0.11483
-0.11483
-0.11396
-0.10782
-0.09818
-0.09029
-0.09116
-0.09642
-0.10081
-0.10519
-0.10431
-0.09905
-0.09204
-0.07977
-0.08065
-0.08678
-0.09467
-0.09379
-0.08766
-0.07539
-0.05698
-0.04208
-0.02805
-0.02016
-0.02104
-0.02542
-0.02367
-0.01753
-0.00877
-0.00526
-0.00614
-0.01403
-0.03506
-0.06048
-0.08415
-0.10081
-0.10607
-0.10957
-0.11133
-0.11746
-0.12623
-0.13236
-0.14113
-0.14464
-0.14288
-0.13324
-0.12535
-0.12535
-0.12710
-0.13587
-0.14113
-0.14376
-0.13938
-0.13324
-0.12272
-0.11483
-0.11483
-0.11659
-0.12535
-0.12535
-0.12535
-0.12272
-0.11396
-0.11220
-0.12623
-0.15691
-0.18584
-0.17707
-0.10344
0.00701
0.12009
0.22178
0.29541
0.26823
0.10168
-0.18321
-0.46985
-0.66270
-0.77577
-0.85554
-0.90113
-0.89762
-0.84765
-0.74597
-0.61010
-0.45232
-0.30856
-0.19986
-0.12710
-0.08503
-0.06311
-0.05435
-0.04909
-0.04383
-0.03857
-0.02717
-0.01315
-0.00526
-0.00614
-0.01140
-0.02104
-0.02367
-0.01841
-0.00789
0.00088
0.00614
0.00877
0.00438
-0.00088
-0.00526
-0.00526
-0.00351
0.00701
0.01490
0.01490
0.01490
0.01227
-0.00088
-0.00438
0.00175
0.01140
0.02191
0.02980
0.02805
0.01928
0.01403
0.00964
0.01052
0.01753
0.03156
0.04032
0.04032
0.03945
0.03331
0.02542
0.03068
0.03682
0.04734
0.05961
0.05961
0.05873
0.04909
0.04471
0.04646
0.05698
0.06750
0.08065
0.08503
0.08503
0.08415
0.07889
0.07539
0.08065
0.08766
0.10168
0.10957
0.10957
0.10957
0.10870
0.10081
0.10607
0.11308
0.13149
0.14113
0.14990
0.14814
0.13938
0.13499
0.13499
0.13675
0.14639
0.15691
0.16567
0.16918
0.16392
0.15515
0.15515
0.15691
0.16655
0.17619
0.18584
0.18934
0.18408
0.17882
0.16918
0.16655
0.17532
0.18233
0.19548
0.19898
0.19372
0.18321
0.17444
0.17006
0.17181
0.17970
0.17970
0.17970
0.17269
0.15778
0.14376
0.13324
0.12360
0.11396
0.10957
0.10256
0.08766
0.07188
0.04734
0.02805
0.01315
-0.00088
-0.00526
-0.00526
-0.01227
-0.03243
-0.05172
-0.06662
-0.07977
-0.07977
-0.07977
-0.07977
-0.08152
-0.09116
-0.10168
-0.11659
-0.12535
-0.12447
-0.11834
-0.10431
-0.09993
-0.10168
-0.11133
-0.12097
-0.12535
-0.12973
-0.12272
-0.10870
-0.09993
-0.09993
-0.10081
-0.10607
-0.11659
-0.12535
-0.12360
-0.11396
-0.10431
-0.09993
-0.10081
-0.10607
-0.11659
-0.12447
-0.11922
-0.10782
-0.09292
-0.07977
-0.08065
-0.08590
-0.09029
-0.08941
-0.08415
-0.07276
-0.05259
-0.03419
-0.02454
-0.02016
-0.02542
-0.02980
-0.02542
-0.02454
-0.01928
-0.01578
-0.02717
-0.04821
-0.07802
-0.10168
-0.11571
-0.12535
-0.12535
-0.12535
-0.12535
-0.12535
-0.13149
-0.14551
-0.14990
-0.14990
-0.14814
-0.13412
-0.12535
-0.12535
-0.12623
-0.13587
-0.14551
-0.14990
-0.14376
-0.12886
-0.11922
-0.11483
-0.11571
-0.12535
-0.12535
-0.12973
-0.12973
-0.12447
-0.12009
-0.12710
-0.15253
-0.17356
-0.15253
-0.07013
0.03506
0.14025
0.24194
0.30067
0.24194
0.04208
-0.26210
-0.54173
-0.71529
-0.82749
-0.90288
-0.92830
-0.90288
-0.81960
-0.69688
-0.54611
-0.39359
-0.26648
-0.17444
-0.11571
-0.07363
-0.05435
-0.04471
-0.04032
-0.04471
-0.03945
-0.02893
-0.01841
-0.00526
-0.00526
-0.00614
-0.01578
-0.02542
-0.02454
-0.01928
-0.00877
0.00088
0.00964
0.00964
0.00438
-0.00526
-0.00526
-0.00438
0.00000
0.00614
0.01578
0.01928
0.01490
0.01490
0.00964
0.00526
0.01052
0.01578
0.02542
0.03506
0.02980
0.02454
0.01490
0.01578
0.02104
0.03068
0.04032
0.04032
0.03945
0.03506
0.02980
0.03068
0.03594
0.04558
0.06048
0.06574
0.06925
0.06487
0.05961
0.04997
0.05522
0.06574
0.07539
0.08590
0.09555
0.09905
0.08941
0.08503
0.08503
0.09116
0.11045
0.12097
0.13061
0.13412
0.12447
0.12009
0.11571
0.12535
0.13587
0.14551
0.15515
0.15954
0.15515
0.14990
0.14990
0.15077
0.16129
0.18058
0.18496
0.19022
0.18934
0.17970
0.17970
0.18058
0.18584
0.19548
0.20512
0.21476
0.21476
0.20950
0.20512
0.19986
0.19986
0.20512
0.21038
0.22002
0.22440
0.21915
0.20424
0.19460
0.19022
0.19548
0.20512
0.20512
0.20424
0.19460
0.17882
0.15954
0.14464
0.13499
0.12973
0.12447
0.11483
0.10431
0.08415
0.05961
0.03945
0.02454
0.01490
0.01490
0.00964
-0.00088
-0.01578
-0.03594
-0.05522
-0.06048
-0.07013
-0.07013
-0.06487
-0.06574
-0.07539
-0.08590
-0.09993
-0.11045
-0.11483
-0.10519
-0.09993
-0.09993
-0.09993
-0.11045
-0.12535
-0.12535
-0.12447
-0.12009
-0.11483
-0.11483
-0.11045
-0.11483
-0.12009
-0.12535
-0.12447
-0.12009
-0.10957
-0.09993
-0.09993
-0.09993
-0.09993
-0.10519
-0.10957
-0.09993
-0.08941
-0.07451
-0.06487
-0.05961
-0.05961
-0.05522
-0.04997
-0.03945
-0.02980
-0.01490
-0.00526
0.00000
-0.00526
-0.02542
-0.04558
-0.06487
-0.07977
-0.08503
-0.09029
-0.09993
-0.11483
-0.12973
-0.14464
-0.14990
-0.14990
-0.14025
-0.12973
-0.12535
-0.12973
-0.13499
-0.14464
-0.14464
-0.14464
-0.13499
-0.12973
-0.12535
-0.12535
-0.12535
-0.13499
-0.14025
-0.14464
-0.13499
-0.12535
-0.11483
-0.11483
-0.11483
-0.12535
-0.14464
-0.17006
-0.19460
-0.18496
-0.10519
0.00964
0.12009
0.21476
0.27963
0.24983
0.08590
-0.19898
-0.49352
-0.68373
-0.80908
-0.89937
-0.95986
-0.95986
-0.90025
-0.79594
-0.64078
-0.47160
-0.31645
-0.21564
-0.15077
-0.11571
-0.09029
-0.07013
-0.04997
-0.02980
-0.02016
-0.02016
-0.02454
-0.02980
-0.02980
-0.02980
-0.02016
-0.00526
0.00000
0.00000
-0.00526
-0.00526
-0.00964
-0.01490
-0.01052
-0.00526
0.00964
0.00964
0.00526
-0.00438
-0.00964
-0.01490
-0.01052
0.00000
0.01490
0.01490
0.01490
0.01490
0.00526
0.00526
0.00964
0.01490
0.02454
0.03506
0.03945
0.03506
0.02542
0.01490
0.02016
0.02980
0.03945
0.04997
0.05522
0.04997
0.04558
0.04032
0.04471
0.05435
0.06487
0.07451
0.07977
0.07977
0.07539
0.07013
0.07013
0.07451
0.08503
0.09905
0.10957
0.10957
0.10957
0.10519
0.10519
0.10957
0.11483
0.12973
0.13938
0.14990
0.14990
0.14025
0.13499
0.13499
0.13938
0.14990
0.15954
0.16918
0.17444
0.17006
0.16480
0.16041
0.16480
0.17444
0.18496
0.19460
0.19460
0.19022
0.18058
0.17970
0.17970
0.18934
0.20424
0.20950
0.21038
0.20512
0.19548
0.18584
0.18496
0.18496
0.19460
0.20424
0.20512
0.19986
0.18584
0.17532
0.16041
0.15515
0.15515
0.15515
0.14990
0.14025
0.12097
0.09642
0.07626
0.06048
0.05084
0.04032
0.04032
0.03068
0.01140
-0.00877
-0.02893
-0.04383
-0.05435
-0.05522
-0.05522
-0.05961
-0.06925
-0.07977
-0.09379
-0.10431
-0.10519
-0.09993
-0.09555
-0.08590
-0.08941
-0.09905
-0.10957
-0.11922
-0.12447
-0.11571
-0.10081
-0.09555
-0.09029
-0.09467
-0.09993
-0.10957
-0.10957
-0.10519
-0.09993
-0.09029
-0.08065
-0.07977
-0.08941
-0.09905
-0.09993
-0.09993
-0.08590
-0.07539
-0.06574
-0.06048
-0.06487
-0.06925
-0.07013
-0.06574
-0.05084
-0.03156
-0.01140
-0.00088
0.00000
-0.00438
-0.00526
-0.00526
-0.00964
-0.00526
-0.00964
-0.02367
-0.04295
-0.06750
-0.09292
-0.10870
-0.11483
-0.11483
-0.11483
-0.11045
-0.11483
-0.11922
-0.12447
-0.13412
-0.13938
-0.13061
-0.12535
-0.11571
-0.11483
-0.11922
-0.12447
-0.13412
-0.13499
-0.13061
-0.12097
-0.10607
-0.10081
-0.09993
-0.10870
-0.11922
-0.12447
-0.12009
-0.12009
-0.12447
-0.14288
-0.15866
-0.13762
-0.06311
0.03506
0.14464
0.24544
0.29541
0.21476
0.01578
-0.26210
-0.53734
-0.71792
-0.83801
-0.91252
-0.94232
-0.90901
-0.81522
-0.68812
-0.54523
-0.40410
-0.28664
-0.19898
-0.13149
-0.08503
-0.05785
-0.03682
-0.03068
-0.02980
-0.03419
-0.03068
-0.02542
-0.01578
-0.00614
-0.00088
-0.00438
-0.00526
-0.01403
-0.01490
-0.01052
-0.00088
0.00877
0.01403
0.01490
0.01052
0.00088
-0.00438
-0.00526
0.00789
0.01403
0.02367
0.02542
0.02016
0.01578
0.01052
0.01403
0.01490
0.02805
0.03857
0.04032
0.04032
0.03156
0.02104
0.01578
0.01928
0.03331
0.04383
0.04909
0.04997
0.04558
0.04032
0.03594
0.03945
0.04909
0.06311
0.06925
0.07451
0.07100
0.06574
0.06048
0.05961
0.06837
0.08328
0.09379
0.09905
0.09993
0.09555
0.09029
0.09467
0.10344
0.11396
0.12798
0.13412
0.13499
0.13499
0.13061
0.12535
0.12973
0.13412
0.15253
0.16392
0.16918
0.17006
0.16567
0.15603
0.15515
0.16392
0.17795
0.18846
0.19898
0.19548
0.19109
0.18584
0.18058
0.18846
0.20249
0.21389
0.21915
0.22002
0.20687
0.20074
0.19548
0.19898
0.20424
0.21389
0.21915
0.22002
0.21126
0.20161
0.19109
0.18584
0.18934
0.19460
0.19460
0.19109
0.17707
0.15778
0.13762
0.12184
0.11133
0.10957
0.10607
0.09642
0.08240
0.05873
0.03769
0.01841
0.00263
-0.00438
-0.00526
-0.00526
-0.01315
-0.02805
-0.04646
-0.05873
-0.06837
-0.07451
-0.07100
-0.07013
-0.07013
-0.07802
-0.08853
-0.09818
-0.10870
-0.10607
-0.10081
-0.09204
-0.09029
-0.09379
-0.09905
-0.10870
-0.11396
-0.11045
-0.10168
-0.09555
-0.08678
-0.08503
-0.08941
-0.09818
-0.10431
-0.10519
-0.10081
-0.09204
-0.08152
-0.07977
-0.07977
-0.08853
-0.09818
-0.09993
-0.09204
-0.08152
-0.06750
-0.05698
-0.05522
-0.05873
-0.06837
-0.06574
-0.05698
-0.03419
-0.01753
-0.00701
0.00351
0.00526
0.00088
-0.00438
-0.01315
-0.02279
-0.02893
-0.04208
-0.05347
-0.07539
-0.09642
-0.11659
-0.12447
-0.12535
-0.12097
-0.11571
-0.11483
-0.11922
-0.12447
-0.13324
-0.13938
-0.14025
-0.13149
-0.12184
-0.11571
-0.11483
-0.12272
-0.12886
-0.13412
-0.13499
-0.13061
-0.12184
-0.10782
-0.10081
-0.10431
-0.11308
-0.12272
-0.12886
-0.13850
-0.15253
-0.16743
-0.15428
-0.08941
0.00526
0.09730
0.18759
0.24895
0.23142
0.10431
-0.14201
-0.42427
-0.64429
-0.79769
-0.90113
-0.94846
-0.92655
-0.83976
-0.70389
-0.55488
-0.40498
-0.28752
-0.20950
-0.15077
-0.10782
-0.07626
-0.05435
-0.03419
-0.02980
-0.02980
-0.03419
-0.03506
-0.03506
-0.02717
-0.01315
-0.00614
-0.00526
-0.00526
-0.01315
-0.01928
-0.02016
-0.01227
-0.00175
0.00789
0.01403
0.01140
0.00614
-0.00263
-0.00526
-0.00088
0.01140
0.01928
0.02805
0.02980
0.02191
0.01578
0.01140
0.01403
0.01928
0.03156
0.03857
0.04032
0.04032
0.03243
0.02630
0.02542
0.02893
0.03769
0.05172
0.05873
0.05610
0.05084
0.04208
0.04032
0.04383
0.05698
0.06399
0.07626
0.07977
0.07626
0.06750
0.06487
0.06925
0.08152
0.09292
0.10694
0.10957
0.10957
0.10607
0.10081
0.10344
0.11308
0.12623
0.13412
0.13850
0.14025
0.14025
0.13587
0.13149
0.13412
0.14288
0.15691
0.17181
0.17532
0.17093
0.16217
0.16041
0.16392
0.17619
0.18759
0.19723
0.19986
0.19635
0.18759
0.18145
0.17970
0.18759
0.20161
0.21301
0.21476
0.21126
0.20249
0.19285
0.19022
0.19022
0.20161
0.20863
0.21038
0.20600
0.19723
0.18408
0.17619
0.16743
0.16918
0.17006
0.16655
0.15778
0.14025
0.12009
0.10344
0.08853
0.08503
0.08152
0.07626
0.06750
0.04997
0.02980
0.01403
-0.00088
-0.00877
-0.01403
-0.01490
-0.01841
-0.02717
-0.04471
-0.06487
-0.07714
-0.08415
-0.08503
-0.08152
-0.07977
-0.07977
-0.09116
-0.10256
-0.11571
-0.12360
-0.12097
-0.11220
-0.10256
-0.10344
-0.10870
-0.12097
-0.12886
-0.13412
-0.13149
-0.12272
-0.11220
-0.10256
-0.10344
-0.11220
-0.12272
-0.12535
-0.12535
-0.12097
-0.11308
-0.10256
-0.09993
-0.10344
-0.11220
-0.11834
-0.11308
-0.10256
-0.08503
-0.06925
-0.06136
-0.05961
-0.05961
-0.05961
-0.05610
-0.04383
-0.03243
-0.01578
-0.00614
-0.00526
-0.00877
-0.02454
-0.04120
-0.05610
-0.07100
-0.07889
-0.08766
-0.10081
-0.11922
-0.13587
-0.14727
-0.14990
-0.14990
-0.14288
-0.13324
-0.12623
-0.12886
-0.13675
-0.14727
-0.14990
-0.14990
-0.14288
-0.13324
-0.12623
-0.12535
-0.13236
-0.14201
-0.14814
-0.14639
-0.13762
-0.12798
-0.12184
-0.12009
-0.12360
-0.13587
-0.15428
-0.17795
-0.19548
-0.17882
-0.10957
-0.01403
0.07889
0.16129
0.21652
0.19460
0.05961
-0.18408
-0.44881
-0.64516
-0.78279
-0.88359
-0.93794
-0.92918
-0.85291
-0.72669
-0.57591
-0.42076
-0.29103
-0.20249
-0.15165
-0.11922
-0.09642
-0.07977
-0.06136
-0.04471
-0.03331
-0.02980
-0.02980
-0.03682
-0.04032
-0.03682
-0.03156
-0.01928
-0.01140
-0.00964
-0.01666
-0.02717
-0.02980
-0.02630
-0.01841
-0.00789
0.00175
0.00526
0.00175
-0.00351
-0.01227
-0.01140
-0.00614
0.00526
0.01315
0.01841
0.02016
0.01666
0.00789
0.00526
0.01227
0.02191
0.03506
0.04383
0.04120
0.03682
0.03156
0.02630
0.03156
0.04208
0.05522
0.06311
0.06487
0.06487
0.06136
0.05698
0.05873
0.06311
0.07539
0.08328
0.08853
0.09029
0.08678
0.08152
0.07977
0.08328
0.09555
0.10694
0.11659
0.12009
0.11659
0.11133
0.10957
0.10957
0.12009
0.13149
0.14201
0.14464
0.14201
0.13675
0.13499
0.13499
0.14464
0.15691
0.17006
0.17795
0.17707
0.16830
0.16129
0.16041
0.16655
0.17707
0.19022
0.19811
0.19986
0.19635
0.18846
0.18145
0.18321
0.19197
0.20161
0.20863
0.21038
0.20687
0.20161
0.19372
0.19022
0.19372
0.20161
0.20512
0.20512
0.19811
0.18496
0.17356
0.16304
0.15691
0.15515
0.15515
0.15165
0.14025
0.12184
0.10168
0.08503
0.07013
0.06487
0.06487
0.06136
0.04734
0.02717
0.00701
-0.00964
-0.02454
-0.02980
-0.02980
-0.02980
-0.02980
-0.04295
-0.06311
-0.07977
-0.09116
-0.09467
-0.09204
-0.08678
-0.08503
-0.09116
-0.09818
-0.10607
-0.11308
-0.11483
-0.10870
-0.10168
-0.09642
-0.09467
-0.09818
-0.10344
-0.11133
-0.11483
-0.10870
-0.10168
-0.09379
-0.08678
-0.09116
-0.10168
-0.11133
-0.11834
-0.11396
-0.10344
-0.09379
-0.08328
-0.07977
-0.07977
-0.07977
-0.07977
-0.07714
-0.06224
-0.03945
-0.01753
-0.00701
-0.00526
-0.00789
-0.00964
-0.00701
-0.00526
-0.00526
-0.00789
-0.02279
-0.04558
-0.07363
-0.09730
-0.11483
-0.12272
-0.12535
-0.12535
-0.12535
-0.12535
-0.12798
-0.13587
-0.14639
-0.14990
-0.14376
-0.13412
-0.12710
-0.12535
-0.12798
-0.13938
-0.14814
-0.14990
-0.14990
-0.14113
-0.12886
-0.12184
-0.12272
-0.13149
-0.14113
-0.14464
-0.13850
-0.13499
-0.13850
-0.14902
-0.16743
-0.17181
-0.12360
-0.03331
0.06925
0.17093
0.24018
0.20775
0.03419
-0.24106
-0.51894
-0.71792
-0.83801
-0.91427
-0.95547
-0.94671
-0.88622
-0.78191
-0.64692
-0.49615
-0.35940
-0.25246
-0.17269
-0.11746
-0.08503
-0.06574
-0.05961
-0.06311
-0.06224
-0.05698
-0.04909
-0.03857
-0.03156
-0.02980
-0.02980
-0.03594
-0.04295
-0.04471
-0.03594
-0.02104
-0.00877
-0.00526
-0.00526
-0.01140
-0.02104
-0.02542
-0.02191
-0.01140
-0.00175
0.00614
0.00701
-0.00088
-0.01052
-0.01753
-0.01403
-0.00438
0.00877
0.01753
0.02279
0.01928
0.01227
0.00701
0.00789
0.01315
0.02367
0.03594
0.04032
0.04032
0.03682
0.03243
0.02717
0.03068
0.03769
0.05172
0.06311
0.06487
0.06224
0.05435
0.04734
0.05084
0.06048
0.07363
0.08590
0.09029
0.08678
0.08240
0.07714
0.07802
0.08590
0.10168
0.11571
0.12272
0.12184
0.11746
0.11220
0.10957
0.11834
0.13061
0.14113
0.15077
0.15515
0.15253
0.14464
0.14025
0.14551
0.15603
0.16830
0.17795
0.18321
0.18233
0.17444
0.16743
0.16743
0.17532
0.18846
0.19811
0.19986
0.19723
0.18934
0.18233
0.17970
0.17970
0.18584
0.19548
0.20249
0.20249
0.19197
0.17970
0.16918
0.16217
0.16304
0.17093
0.17532
0.17181
0.15866
0.13850
0.11922
0.10168
0.09204
0.09029
0.09029
0.08152
0.06399
0.03857
0.01403
-0.00351
-0.01578
-0.02279
-0.02542
-0.02805
-0.03857
-0.05347
-0.07100
-0.08590
-0.09292
-0.09204
-0.08766
-0.08503
-0.08766
-0.09555
-0.10782
-0.12009
-0.12535
-0.11922
-0.10957
-0.10256
-0.09993
-0.10256
-0.11308
-0.12272
-0.12535
-0.12184
-0.10870
-0.09730
-0.09204
-0.09555
-0.10256
-0.11045
-0.12009
-0.12272
-0.11220
-0.09993
-0.08941
-0.08503
-0.09029
-0.09730
-0.10519
-0.10957
-0.10431
-0.09730
-0.08678
-0.07977
-0.07977
-0.07977
-0.07977
-0.07977
-0.07188
-0.05172
-0.02893
-0.01490
-0.00964
-0.01490
-0.02279
-0.02542
-0.02542
-0.02191
-0.02279
-0.03068
-0.04558
-0.06574
-0.08853
-0.10782
-0.12009
-0.12535
-0.12535
-0.12272
-0.11746
-0.12009
-0.12798
-0.13499
-0.14288
-0.14201
-0.13499
-0.12710
-0.12272
-0.12009
-0.12272
-0.13061
-0.13762
-0.14025
-0.13499
-0.12447
-0.11220
-0.10519
-0.11045
-0.12009
-0.12535
-0.12535
-0.12272
-0.12009
-0.12798
-0.14551
-0.15778
-0.13149
-0.05610
0.04120
0.14639
0.24369
0.28489
0.21827
0.01403
-0.28138
-0.55312
-0.73458
-0.84590
-0.91515
-0.93707
-0.90200
-0.81347
-0.69075
-0.55400
-0.41112
-0.28664
-0.19197
-0.12447
-0.08240
-0.05522
-0.04032
-0.03506
-0.03506
-0.03506
-0.03243
-0.02279
-0.00964
-0.00263
0.00000
-0.00526
-0.01490
-0.02016
-0.01753
-0.00964
0.00000
0.00964
0.01490
0.00964
0.00000
-0.00526
-0.00526
0.00263
0.01490
0.02454
0.03243
0.03243
0.02542
0.01753
0.01490
0.01753
0.02454
0.03506
0.04208
0.04471
0.04295
0.03243
0.02279
0.02016
0.02717
0.04032
0.05259
0.05961
0.05785
0.04734
0.03769
0.03769
0.04208
0.05259
0.06487
0.07276
0.07276
0.06750
0.06224
0.05961
0.06224
0.07188
0.08766
0.09993
0.10519
0.10256
0.09730
0.09292
0.09204
0.10256
0.11746
0.12973
0.13499
0.13236
0.12798
0.12272
0.12272
0.12973
0.14464
0.15778
0.16217
0.16304
0.15778
0.15253
0.14990
0.15253
0.15954
0.17181
0.18233
0.18496
0.18233
0.17532
0.17006
0.17444
0.18496
0.19460
0.20249
0.20512
0.20249
0.19285
0.18233
0.17970
0.18496
0.19723
0.20512
0.20512
0.20249
0.19285
0.18233
0.17532
0.17269
0.17707
0.17970
0.17970
0.17269
0.15778
0.14113
0.12097
0.10782
0.10256
0.09730
0.09292
0.08503
0.06837
0.04383
0.02104
0.00526
-0.00263
-0.00526
-0.00526
-0.00964
-0.02191
-0.03682
-0.05172
-0.06662
-0.07539
-0.07013
-0.06487
-0.06487
-0.06925
-0.07977
-0.09204
-0.10256
-0.10519
-0.10256
-0.09555
-0.08590
-0.08240
-0.08941
-0.09905
-0.10957
-0.11483
-0.11045
-0.10256
-0.09555
-0.08766
-0.08766
-0.09467
-0.10256
-0.10694
-0.10519
-0.09818
-0.09029
-0.08240
-0.08240
-0.09204
-0.10256
-0.10694
-0.10782
-0.10081
-0.08853
-0.07977
-0.07977
-0.08415
-0.09467
-0.10256
-0.10256
-0.09379
-0.07802
-0.06311
-0.04821
-0.03769
-0.03506
-0.03506
-0.03506
-0.03243
-0.02542
-0.01578
-0.00789
-0.00701
-0.01841
-0.03682
-0.05172
-0.06837
-0.07977
-0.07977
-0.08240
-0.09116
-0.10607
-0.12184
-0.13675
-0.14464
-0.14288
-0.13587
-0.12798
-0.12272
-0.12184
-0.12710
-0.13412
-0.14201
-0.14288
-0.13324
-0.12272
-0.11746
-0.11746
-0.12447
-0.13412
-0.14201
-0.14113
-0.13061
-0.12097
-0.11045
-0.10694
-0.11396
-0.12447
-0.13850
-0.15866
-0.17619
-0.18058
-0.15253
-0.07626
0.02630
0.12009
0.20337
0.24807
0.18934
0.00438
-0.26297
-0.51894
-0.70039
-0.82574
-0.91866
-0.96424
-0.94320
-0.85379
-0.71441
-0.55049
-0.39096
-0.26823
-0.19022
-0.14113
-0.10782
-0.07977
-0.05698
-0.03857
-0.02805
-0.02717
-0.03243
-0.03682
-0.04032
-0.03594
-0.02630
-0.01403
-0.00526
-0.00526
-0.00877
-0.01928
-0.02717
-0.02630
-0.01403
-0.00263
0.00438
0.00964
0.00614
-0.00175
-0.00701
-0.00789
-0.00263
0.00438
0.01227
0.01490
0.01315
0.00614
-0.00175
-0.00526
-0.00263
0.00614
0.02104
0.03419
0.03769
0.03068
0.02104
0.01490
0.01490
0.02279
0.03857
0.04909
0.05522
0.05084
0.04295
0.03769
0.03682
0.04558
0.06048
0.07539
0.08503
0.08152
0.07100
0.06487
0.06487
0.06662
0.07539
0.09116
0.10344
0.10957
0.10607
0.09642
0.09029
0.09204
0.10081
0.11571
0.12886
0.13675
0.13850
0.13149
0.12272
0.12184
0.12886
0.14025
0.15603
0.16918
0.17269
0.16655
0.15778
0.15515
0.15691
0.16567
0.18058
0.19197
0.19460
0.19109
0.18321
0.17970
0.18408
0.19548
0.20863
0.21827
0.22528
0.22090
0.21126
0.20161
0.19460
0.19898
0.20863
0.21652
0.22002
0.21652
0.20600
0.19285
0.17970
0.17970
0.17970
0.17970
0.17795
0.16918
0.15253
0.13061
0.10957
0.09642
0.09029
0.09029
0.08853
0.07977
0.06311
0.04295
0.02454
0.00964
0.00000
0.00000
0.00000
-0.00351
-0.01753
-0.03682
-0.05522
-0.06837
-0.07363
-0.06837
-0.06311
-0.06136
-0.06837
-0.07889
-0.09029
-0.10519
-0.11483
-0.11133
-0.10168
-0.09116
-0.08678
-0.09379
-0.10694
-0.12184
-0.12535
-0.12009
-0.10694
-0.09642
-0.09029
-0.09204
-0.09818
-0.11045
-0.12009
-0.11659
-0.10694
-0.09642
-0.09029
-0.09029
-0.09379
-0.10519
-0.11659
-0.11834
-0.10957
-0.09642
-0.08678
-0.07977
-0.08328
-0.09379
-0.09993
-0.09818
-0.09029
-0.07188
-0.05172
-0.04208
-0.03682
-0.04295
-0.04997
-0.04821
-0.04032
-0.02630
-0.01666
-0.01140
-0.02016
-0.03682
-0.05347
-0.06311
-0.07013
-0.07013
-0.07013
-0.07188
-0.07802
-0.09116
-0.11133
-0.12973
-0.14025
-0.13675
-0.12798
-0.12184
-0.11659
-0.12184
-0.12623
-0.13324
-0.14025
-0.13675
-0.12710
-0.11659
-0.10870
-0.10694
-0.11483
-0.12798
-0.13675
-0.13675
-0.12798
-0.12009
-0.10870
-0.10519
-0.10694
-0.11308
-0.12184
-0.12798
-0.13938
-0.15515
-0.16480
-0.15253
-0.09642
-0.00351
0.09292
0.18496
0.25509
0.22791
0.07276
-0.17532
-0.45144
-0.66796
-0.80733
-0.90288
-0.95986
-0.95460
-0.88447
-0.75912
-0.60747
-0.45495
-0.32258
-0.22703
-0.15954
-0.11133
-0.07100
-0.04383
-0.02717
-0.02191
-0.02630
-0.03156
-0.03506
-0.03331
-0.02542
-0.01227
-0.00088
0.00877
0.00175
-0.00614
-0.00964
-0.00877
-0.00088
0.01315
0.02279
0.02980
0.02717
0.01841
0.01227
0.00614
0.01140
0.01928
0.03331
0.04032
0.04032
0.03682
0.02717
0.02016
0.02104
0.02980
0.04471
0.05610
0.05873
0.05084
0.03857
0.03331
0.03156
0.03769
0.05084
0.06662
0.07100
0.07188
0.06399
0.05698
0.05172
0.05785
0.06925
0.08152
0.08503
0.08503
0.08240
0.07363
0.07100
0.07802
0.09029
0.10782
0.11659
0.12009
0.11746
0.10870
0.10344
0.10256
0.11396
0.12886
0.14288
0.14990
0.14902
0.14201
0.13324
0.13149
0.13762
0.14814
0.16041
0.17619
0.17882
0.17093
0.15866
0.15515
0.15778
0.16918
0.18233
0.19109
0.19372
0.18759
0.17882
0.17532
0.17619
0.18233
0.19372
0.20775
0.21389
0.20863
0.20249
0.19372
0.19109
0.19723
0.20775
0.21739
0.22528
0.22090
0.20775
0.19635
0.18496
0.18496
0.18759
0.19635
0.19723
0.18584
0.17006
0.14990
0.12973
0.11220
0.10519
0.10519
0.10256
0.09204
0.07889
0.05347
0.02980
0.01140
-0.00088
-0.00526
-0.00526
-0.00789
-0.02016
-0.04032
-0.06048
-0.07626
-0.07977
-0.07714
-0.06837
-0.06487
-0.06837
-0.08415
-0.09905
-0.11220
-0.11834
-0.11220
-0.10256
-0.09292
-0.08503
-0.08853
-0.10256
-0.11133
-0.11483
-0.11220
-0.10256
-0.09292
-0.08415
-0.08152
-0.08853
-0.10081
-0.10519
-0.10256
-0.09292
-0.08240
-0.07539
-0.07626
-0.08328
-0.09730
-0.10782
-0.11396
-0.10782
-0.09642
-0.08415
-0.07977
-0.08240
-0.09204
-0.10081
-0.10344
-0.09555
-0.07539
-0.05610
-0.04295
-0.03594
-0.04120
-0.04646
-0.04734
-0.03769
-0.02805
-0.01753
-0.00964
-0.01140
-0.01841
-0.03419
-0.05084
-0.05610
-0.05961
-0.05961
-0.06136
-0.06837
-0.08415
-0.10344
-0.11746
-0.12623
-0.12886
-0.12184
-0.10782
-0.09993
-0.10081
-0.10870
-0.12097
-0.12623
-0.12886
-0.12184
-0.10782
-0.09993
-0.09993
-0.10256
-0.11220
-0.12097
-0.12272
-0.11133
-0.09905
-0.09292
-0.08590
-0.09204
-0.10256
-0.11133
-0.11571
-0.12097
-0.12710
-0.13850
-0.14814
-0.12623
-0.05347
0.04646
0.14727
0.24457
0.29190
0.22616
0.04295
-0.23229
-0.50929
-0.70214
-0.82486
-0.90901
-0.93970
-0.90200
-0.80908
-0.67935
-0.53033
-0.38920
-0.27174
-0.18671
-0.12535
-0.08240
-0.04997
-0.02805
-0.02016
-0.02191
-0.02980
-0.02980
-0.02805
-0.01666
-0.00263
0.00614
0.00964
0.00877
0.00263
-0.00526
-0.00263
0.00701
0.01666
0.02717
0.03506
0.03331
0.02279
0.01490
0.01490
0.01753
0.03156
0.04120
0.04471
0.04383
0.03769
0.02805
0.02016
0.02191
0.03156
0.04208
0.05084
0.05435
0.04821
0.03945
0.03419
0.03068
0.03682
0.04821
0.06136
0.06487
0.06399
0.05785
0.04909
0.04646
0.05698
0.06662
0.07714
0.08503
0.08503
0.08328
0.07276
0.06574
0.07188
0.08240
0.09730
0.10957
0.10957
0.10870
0.10256
0.08941
0.08766
0.10256
0.11746
0.13061
0.13499
0.13412
0.12798
0.11922
0.11571
0.12272
0.13762
0.15077
0.15603
0.15954
0.15340
0.14376
0.14113
0.14639
0.15691
0.16743
0.18058
0.18408
0.17970
0.17795
0.17006
0.17181
0.18145
0.19285
0.20600
0.21038
0.20950
0.20249
0.18846
0.17970
0.18145
0.19285
0.20687
0.21389
0.20950
0.20161
0.18321
0.17356
0.16480
0.16567
0.17093
0.17532
0.17181
0.15165
0.13149
0.11220
0.09905
0.09379
0.09029
0.08941
0.08152
0.06136
0.03594
0.01227
-0.00614
-0.00964
-0.01052
-0.01490
-0.01666
-0.02717
-0.04295
-0.06311
-0.08152
-0.09029
-0.08941
-0.08415
-0.07977
-0.08152
-0.09116
-0.10256
-0.12097
-0.12447
-0.11834
-0.10870
-0.09905
-0.09555
-0.10168
-0.11133
-0.12097
-0.12535
-0.12360
-0.11308
-0.09818
-0.09029
-0.09116
-0.10168
-0.11133
-0.12097
-0.12360
-0.11396
-0.10431
-0.09905
-0.09555
-0.10168
-0.11133
-0.12097
-0.12447
-0.11834
-0.10431
-0.09905
-0.09555
-0.10081
-0.10694
-0.12097
-0.12447
-0.11834
-0.10256
-0.08853
-0.07977
-0.07539
-0.07977
-0.07977
-0.07977
-0.07276
-0.05259
-0.03331
-0.01841
-0.01227
-0.02630
-0.03769
-0.05522
-0.05522
-0.05522
-0.05435
-0.04997
-0.05172
-0.06750
-0.08766
-0.10782
-0.12535
-0.12973
-0.12447
-0.11922
-0.11483
-0.11659
-0.12623
-0.13675
-0.14990
-0.14902
-0.14288
-0.12886
-0.12009
-0.12097
-0.12535
-0.13149
-0.14025
-0.14376
-0.13412
-0.12360
-0.11396
-0.10519
-0.11133
-0.12097
-0.12535
-0.12973
-0.12973
-0.12360
-0.10957
-0.10694
-0.12798
-0.15691
-0.17093
-0.12973
-0.03156
0.08678
0.19635
0.28840
0.30330
0.18408
-0.06574
-0.38394
-0.64166
-0.79155
-0.89148
-0.94495
-0.94057
-0.89061
-0.80120
-0.66796
-0.50842
-0.35239
-0.23142
-0.14902
-0.09730
-0.06837
-0.05522
-0.05522
-0.05522
-0.05347
-0.03857
-0.02893
-0.01403
-0.00526
-0.01140
-0.02104
-0.03068
-0.03419
-0.02893
-0.01315
0.00088
0.00964
0.00877
-0.00088
-0.01052
-0.01490
-0.01403
-0.00351
0.01052
0.01490
0.01490
0.00877
-0.00088
-0.00526
-0.00438
0.00088
0.01052
0.02016
0.02454
0.01490
0.00877
-0.00526
-0.00438
0.00088
0.01666
0.03068
0.03945
0.03419
0.02454
0.01490
0.01490
0.01666
0.03068
0.04120
0.05522
0.05435
0.04909
0.03945
0.03506
0.04120
0.05084
0.06662
0.08065
0.08503
0.08415
0.07451
0.06487
0.06574
0.07100
0.08590
0.10081
0.10957
0.10957
0.10431
0.09467
0.09116
0.10081
0.11133
0.12535
0.13499
0.13499
0.13499
0.12973
0.12535
0.13061
0.13675
0.15603
0.17006
0.17444
0.16918
0.15954
0.15515
0.15515
0.16129
0.18058
0.19109
0.19986
0.19372
0.17970
0.17444
0.17006
0.17532
0.18584
0.20512
0.20950
0.20512
0.19898
0.18496
0.17970
0.17532
0.18058
0.19022
0.19986
0.19372
0.17882
0.15866
0.13938
0.12973
0.12535
0.12973
0.12973
0.12447
0.10870
0.08328
0.05873
0.03945
0.02980
0.02980
0.02980
0.02454
0.01403
-0.00614
-0.02630
-0.04558
-0.05522
-0.05961
-0.05522
-0.05522
-0.05610
-0.07539
-0.09029
-0.09993
-0.10519
-0.09993
-0.09993
-0.09029
-0.09029
-0.10081
-0.11045
-0.12535
-0.13499
-0.13499
-0.12447
-0.10957
-0.09993
-0.09993
-0.10519
-0.11571
-0.12535
-0.12973
-0.12447
-0.11922
-0.10519
-0.09993
-0.10081
-0.11571
-0.12535
-0.12973
-0.12447
-0.10957
-0.09993
-0.09467
-0.09555
-0.10081
-0.11483
-0.12009
-0.11922
-0.10431
-0.09467
-0.08503
-0.09029
-0.09993
-0.11045
-0.12009
-0.12009
-0.10957
-0.09467
-0.07977
-0.06487
-0.05961
-0.05961
-0.05961
-0.05435
-0.03945
-0.01928
-0.00438
0.00438
-0.00526
-0.02016
-0.04032
-0.05522
-0.05522
-0.04997
-0.04032
-0.04558
-0.05522
-0.07539
-0.09555
-0.11045
-0.11483
-0.11483
-0.10519
-0.09993
-0.09993
-0.10519
-0.12009
-0.12973
-0.13499
-0.12535
-0.12009
-0.10519
-0.09993
-0.09993
-0.11483
-0.12535
-0.12535
-0.12447
-0.11483
-0.09993
-0.09467
-0.09467
-0.09993
-0.10519
-0.11483
-0.10957
-0.09993
-0.09029
-0.08503
-0.09993
-0.12535
-0.15954
-0.15428
-0.07889
0.03594
0.15603
0.26560
0.31469
0.24895
0.05873
-0.25158
-0.54523
-0.72493
-0.83012
-0.90025
-0.93005
-0.90989
-0.83451
-0.71003
-0.56978
-0.41462
-0.27525
-0.17006
-0.09993
-0.06487
-0.04471
-0.04471
-0.04032
-0.03506
-0.02542
-0.00526
0.00526
0.01490
0.00964
0.00000
-0.00964
-0.01490
-0.01490
-0.00526
0.00964
0.02016
0.02454
0.02016
0.01052
0.00526
0.00526
0.00964
0.02016
0.02980
0.02980
0.02542
0.01490
0.00526
0.00526
0.00964
0.02016
0.03506
0.04032
0.04032
0.03506
0.02542
0.02016
0.02454
0.03506
0.04471
0.05961
0.05961
0.05522
0.04032
0.03506
0.03506
0.04032
0.05961
0.07013
0.07013
0.06487
0.06048
0.04997
0.04997
0.05961
0.07013
0.08503
0.09467
0.09467
0.08503
0.07977
0.07539
0.08503
0.09467
0.10957
0.12447
0.12973
0.12535
0.11045
0.10957
0.10957
0.12009
0.13412
0.14990
0.15515
0.14990
0.14025
0.13499
0.13499
0.14464
0.15954
0.17970
0.17970
0.17970
0.17532
0.16567
0.16041
0.17006
0.18408
0.19986
0.20512
0.20512
0.20512
0.19548
0.18584
0.18058
0.19460
0.20424
0.21915
0.22440
0.22002
0.20600
0.19548
0.19022
0.19460
0.20424
0.20950
0.21038
0.20512
0.18584
0.17093
0.15603
0.15515
0.15515
0.15515
0.14551
0.13587
0.11133
0.08152
0.06136
0.04120
0.03506
0.03506
0.03068
0.02016
0.00614
-0.01403
-0.03857
-0.05435
-0.06487
-0.06048
-0.05522
-0.05522
-0.06487
-0.07889
-0.09379
-0.10431
-0.10957
-0.10519
-0.09555
-0.08590
-0.08503
-0.09467
-0.10431
-0.11483
-0.12009
-0.11571
-0.10081
-0.09029
-0.08503
-0.09467
-0.09993
-0.10957
-0.11483
-0.11045
-0.10081
-0.08590
-0.08065
-0.07977
-0.08941
-0.09905
-0.11396
-0.11483
-0.10081
-0.09029
-0.08065
-0.07977
-0.08941
-0.09905
-0.10957
-0.10957
-0.10519
-0.09555
-0.08590
-0.08503
-0.09467
-0.10431
-0.10957
-0.10957
-0.10081
-0.08152
-0.06136
-0.04646
-0.03594
-0.03945
-0.04471
-0.04032
-0.03506
-0.02542
-0.01578
-0.01052
-0.01490
-0.02893
-0.03945
-0.05347
-0.05961
-0.05961
-0.06487
-0.06487
-0.07889
-0.08941
-0.10344
-0.11834
-0.12447
-0.12535
-0.12009
-0.10607
-0.10081
-0.09993
-0.11396
-0.12447
-0.12535
-0.12535
-0.12009
-0.10607
-0.10081
-0.09993
-0.10431
-0.11834
-0.12447
-0.12535
-0.11571
-0.10168
-0.09116
-0.09029
-0.09467
-0.09993
-0.11396
-0.11922
-0.12447
-0.12973
-0.14814
-0.14990
-0.12272
-0.04295
0.05522
0.15077
0.24983
0.29190
0.20950
-0.02542
-0.33836
-0.60396
-0.77402
-0.88885
-0.95810
-0.97388
-0.92567
-0.82136
-0.68023
-0.51718
-0.36553
-0.25158
-0.17269
-0.11571
-0.07013
-0.03857
-0.02191
-0.01140
-0.01490
-0.02367
-0.02542
-0.02016
-0.00701
0.00351
0.00964
0.01403
0.00614
-0.00351
-0.00964
-0.00964
-0.00088
0.01315
0.02367
0.02980
0.02542
0.01578
0.00614
0.00088
0.00877
0.01928
0.03331
0.03945
0.04032
0.03156
0.02104
0.01578
0.01928
0.03331
0.04821
0.05873
0.05522
0.04646
0.04032
0.03156
0.02980
0.03857
0.05785
0.06399
0.06925
0.07013
0.06136
0.05084
0.04558
0.05347
0.06399
0.08240
0.08941
0.09029
0.08590
0.07626
0.07100
0.07451
0.08415
0.09818
0.10870
0.11396
0.11045
0.10607
0.09642
0.09905
0.10870
0.12272
0.13762
0.14025
0.13587
0.13499
0.13061
0.12535
0.13324
0.14814
0.16304
0.17356
0.17532
0.16655
0.15603
0.15515
0.15954
0.17269
0.18321
0.19811
0.19986
0.19109
0.18145
0.17532
0.17532
0.18321
0.19811
0.20424
0.20950
0.20600
0.19635
0.18671
0.18058
0.18846
0.19811
0.20863
0.21389
0.21038
0.20161
0.18759
0.17619
0.17532
0.17882
0.18408
0.18496
0.18058
0.16304
0.14288
0.12710
0.11220
0.10168
0.09555
0.08678
0.08065
0.06311
0.03857
0.01841
-0.00175
-0.01315
-0.01490
-0.01052
-0.01403
-0.02805
-0.04646
-0.06224
-0.07802
-0.08415
-0.08503
-0.08065
-0.07977
-0.07977
-0.08853
-0.09818
-0.10870
-0.10957
-0.10607
-0.10081
-0.09204
-0.08590
-0.08941
-0.09818
-0.10431
-0.10957
-0.10607
-0.09642
-0.08678
-0.08065
-0.07977
-0.08853
-0.09818
-0.10870
-0.10607
-0.10081
-0.08766
-0.08065
-0.08415
-0.09292
-0.10344
-0.11308
-0.11483
-0.10694
-0.09642
-0.08678
-0.08503
-0.08941
-0.09818
-0.10782
-0.10957
-0.10607
-0.09642
-0.08240
-0.07626
-0.07100
-0.07802
-0.08415
-0.08065
-0.07188
-0.05347
-0.03331
-0.01753
-0.00701
-0.00526
-0.01753
-0.02805
-0.02980
-0.02630
-0.01666
-0.00701
-0.01315
-0.02717
-0.04997
-0.07539
-0.09642
-0.10431
-0.10519
-0.10081
-0.09993
-0.10782
-0.12184
-0.13324
-0.13938
-0.14025
-0.12798
-0.12097
-0.10782
-0.10519
-0.10870
-0.12184
-0.12886
-0.13412
-0.12710
-0.11659
-0.10694
-0.10081
-0.10431
-0.11308
-0.12272
-0.12535
-0.12535
-0.11308
-0.10168
-0.09555
-0.09905
-0.12009
-0.15340
-0.17970
-0.15691
-0.07013
0.04997
0.16743
0.26560
0.30505
0.22178
0.02016
-0.25596
-0.53033
-0.71266
-0.82837
-0.90989
-0.94846
-0.92742
-0.84853
-0.71441
-0.54611
-0.37518
-0.24106
-0.14727
-0.09467
-0.06925
-0.06136
-0.05610
-0.04295
-0.02805
-0.00877
-0.00088
0.00438
0.00088
-0.00351
-0.01315
-0.01140
-0.00614
0.00701
0.01403
0.01490
0.01490
0.00701
-0.00263
-0.00526
-0.00088
0.01140
0.02279
0.03243
0.03506
0.02717
0.01753
0.01490
0.01490
0.01928
0.03156
0.03857
0.04383
0.04120
0.02805
0.01753
0.01490
0.02630
0.03769
0.05172
0.05873
0.05610
0.04295
0.03594
0.03506
0.03857
0.05172
0.06311
0.07276
0.07100
0.06574
0.05698
0.05084
0.05347
0.06311
0.07626
0.08766
0.09379
0.08766
0.08503
0.08152
0.07977
0.08415
0.09642
0.10782
0.11746
0.12009
0.11220
0.10607
0.10870
0.11396
0.12623
0.13762
0.14727
0.14639
0.14113
0.13587
0.13149
0.13412
0.14639
0.16129
0.17269
0.17882
0.17619
0.17093
0.16217
0.16392
0.17619
0.18759
0.19723
0.20337
0.20161
0.18846
0.18145
0.17970
0.17970
0.19548
0.20775
0.21389
0.21476
0.20775
0.19372
0.18233
0.17970
0.19109
0.20249
0.20512
0.20512
0.19723
0.18408
0.16918
0.15778
0.15515
0.15866
0.15603
0.14727
0.13412
0.11133
0.09029
0.07013
0.06487
0.06136
0.05610
0.04383
0.02893
0.01052
-0.00964
-0.02630
-0.03769
-0.04032
-0.04032
-0.04032
-0.04734
-0.06136
-0.07977
-0.09642
-0.10694
-0.10607
-0.10168
-0.09993
-0.09642
-0.09905
-0.10694
-0.12097
-0.12886
-0.12623
-0.11396
-0.09905
-0.09116
-0.09379
-0.09905
-0.10694
-0.11396
-0.11133
-0.10256
-0.09642
-0.09116
-0.09029
-0.09730
-0.11133
-0.12184
-0.12886
-0.12623
-0.11396
-0.09905
-0.09116
-0.09730
-0.10344
-0.10870
-0.11396
-0.10782
-0.09379
-0.07889
-0.06750
-0.06487
-0.06837
-0.07013
-0.06662
-0.05785
-0.04032
-0.02104
-0.00789
-0.00175
0.00351
0.00877
0.01315
0.02191
0.03594
0.05084
0.06574
0.07363
0.06750
0.05084
0.03068
0.01403
-0.00088
-0.00526
-0.00526
-0.00526
-0.00877
-0.01753
-0.02717
-0.03331
-0.03857
-0.03682
-0.03506
-0.03506
-0.03857
-0.04734
-0.05347
-0.05873
-0.04909
-0.02717
0.00088
0.02016
0.03243
0.02805
0.02191
0.01666
0.02191
0.03594
0.05785
0.06487
0.06487
0.05785
0.04471
0.02630
0.00263
-0.02279
-0.04734
-0.03769
0.01928
0.11659
0.22353
0.33135
0.41725
0.42602
0.31908
0.08678
-0.20337
-0.43741
-0.58380
-0.68636
-0.76000
-0.78366
-0.73282
-0.62325
-0.48475
-0.33310
-0.19197
-0.08415
-0.00701
0.04909
0.08941
0.11045
0.12535
0.13324
0.13149
0.12009
0.10782
0.10519
0.11220
0.12184
0.13149
0.13850
0.14376
0.14464
0.14201
0.13675
0.12798
0.12798
0.13675
0.14025
0.13675
0.13499
0.13149
0.13324
0.14551
0.17356
0.21564
0.26385
0.31031
0.33836
0.34187
0.34362
0.34537
0.34537
0.33836
0.32521
0.31294
0.30680
0.31820
0.34187
0.36992
0.39709
0.41550
0.42339
0.43478
0.44706
0.44706
0.44180
0.43303
0.41988
0.41199
0.40673
0.40498
0.41199
0.42514
0.44004
0.45495
0.46634
0.48037
0.49527
0.51631
0.53822
0.54874
0.54962
0.55312
0.56189
0.57153
0.57854
0.57328
0.56978
0.56627
0.54523
0.50842
0.46546
0.42690
0.38833
0.35852
0.34713
0.34187
0.33310
0.32346
0.31995
0.31382
0.30680
0.30856
0.31031
0.30680
0.30154
0.29716
0.29190
0.28314
0.27700
0.27525
0.27525
0.27525
0.27525
0.26560
0.25333
0.23668
0.22703
0.21827
0.21213
0.21038
0.20687
0.19811
0.18846
0.17882
0.16567
0.15340
0.14376
0.13675
0.13149
0.12360
0.11045
0.09204
0.07188
0.04909
0.03331
0.02016
0.00877
-0.00175
-0.01753
-0.03769
-0.06136
-0.08240
-0.09993
-0.11133
-0.12097
-0.12535
-0.13149
-0.14464
-0.15954
-0.17093
-0.18145
-0.18846
-0.19285
-0.19460
-0.19460
-0.19811
-0.20600
-0.21652
-0.22353
-0.22528
-0.22528
-0.22178
-0.22002
-0.22002
-0.22002
-0.22353
-0.22791
-0.22966
-0.22703
-0.22178
-0.22002
-0.22002
-0.22353
-0.22791
-0.23317
-0.23843
-0.23668
-0.23229
-0.22703
-0.22528
-0.22528
-0.22791
-0.23317
-0.23843
-0.24018
-0.23668
-0.22879
-0.22178
-0.22002
-0.22353
-0.22791
-0.22966
-0.22703
-0.22178
-0.21652
-0.20863
-0.20161
-0.19723
-0.19460
-0.18846
-0.17619
-0.16392
-0.15428
-0.14727
-0.13850
-0.12886
-0.12535
-0.12798
-0.13938
-0.15077
-0.16743
-0.18759
-0.20424
-0.21652
-0.22879
-0.23843
-0.24632
-0.25596
-0.26034
-0.25684
-0.25158
-0.24983
-0.24983
-0.25333
-0.25771
-0.26034
-0.26034
-0.25684
-0.24895
-0.24194
-0.24018
-0.24281
-0.24807
-0.25333
-0.25158
-0.24720
-0.24194
-0.23668
-0.23229
-0.22966
-0.23317
-0.23843
-0.24632
-0.26210
-0.28226
-0.28664
-0.24632
-0.15691
-0.04909
0.05435
0.14288
0.16567
0.07100
-0.15954
-0.46546
-0.72581
-0.89499
-1.00632
-1.07469
-1.08871
-1.04401
-0.95284
-0.82136
-0.65919
-0.50140
-0.37781
-0.29365
-0.23843
-0.19898
-0.17006
-0.15077
-0.13938
-0.13236
-0.12973
-0.12973
-0.12973
-0.12710
-0.12535
-0.11922
-0.10957
-0.10519
-0.10782
-0.10957
-0.10957
-0.10957
-0.10431
-0.09993
-0.09730
-0.09204
-0.09029
-0.09292
-0.09818
-0.09993
-0.09379
-0.08415
-0.07977
-0.07714
-0.07539
-0.07802
-0.07977
-0.07977
-0.07451
-0.06750
-0.05961
-0.05522
-0.05522
-0.05785
-0.05961
-0.05961
-0.05698
-0.05172
-0.04734
-0.03945
-0.03506
-0.03506
-0.03506
-0.03769
-0.03682
-0.03243
-0.02717
-0.01928
-0.00964
-0.00526
-0.00789
-0.00964
-0.00964
-0.00701
-0.00175
0.00526
0.01315
0.01753
0.02016
0.02016
0.02016
0.02542
0.03594
0.04295
0.04821
0.05259
0.05522
0.05259
0.04997
0.05259
0.06048
0.06750
0.07539
0.08240
0.08503
0.08503
0.08503
0.08503
0.09029
0.10081
0.10782
0.11308
0.11746
0.11746
0.11220
0.10957
0.11308
0.11746
0.12535
0.13236
0.13499
0.13499
0.13499
0.13499
0.13499
0.13499
0.13762
0.14288
0.14464
0.14201
0.13762
0.13236
0.12710
0.11922
0.11483
0.11220
0.10957
0.10431
0.09204
0.07714
0.06224
0.04997
0.03945
0.02980
0.01928
0.00438
-0.01315
-0.03068
-0.04821
-0.06311
-0.07276
-0.07802
-0.08240
-0.09029
-0.09993
-0.11308
-0.12535
-0.13499
-0.14288
-0.14464
-0.14201
-0.14025
-0.14288
-0.14727
-0.15253
-0.15778
-0.15691
-0.15253
-0.14990
-0.14727
-0.14464
-0.14727
-0.14990
-0.15253
-0.15515
-0.15253
-0.14727
-0.14201
-0.14025
-0.14025
-0.14288
-0.14727
-0.14990
-0.14990
-0.14990
-0.14464
-0.14025
-0.14025
-0.14288
-0.14727
-0.14990
-0.14990
-0.14990
-0.14990
-0.14727
-0.14201
-0.14025
-0.14025
-0.14288
-0.14201
-0.13499
-0.12447
-0.11220
-0.09993
-0.09204
-0.08503
-0.07977
-0.07714
-0.07013
-0.05961
-0.04997
-0.04208
-0.04471
-0.05522
-0.07013
-0.08766
-0.10256
-0.11746
-0.12973
-0.14025
-0.14727
-0.15515
-0.16480
-0.17532
-0.17970
-0.17707
-0.17269
-0.17006
-0.17006
-0.17006
-0.17006
-0.17269
-0.17795
-0.17707
-0.17269
-0.17006
-0.17006
-0.16743
-0.16743
-0.17006
-0.17006
-0.17006
-0.16480
-0.15515
-0.14990
-0.14990
-0.14990
-0.15778
-0.17532
-0.19986
-0.21739
-0.19548
-0.11746
-0.00789
0.10168
0.19723
0.24457
0.19548
0.02104
-0.26034
-0.55049
-0.75649
-0.88710
-0.97213
-1.00719
-0.98089
-0.89148
-0.75912
-0.60659
-0.45144
-0.32083
-0.22791
-0.17006
-0.13762
-0.11308
-0.09292
-0.07802
-0.06487
-0.05785
-0.05259
-0.05259
-0.05522
-0.05259
-0.04734
-0.04295
-0.03506
-0.02980
-0.02980
-0.02980
-0.03243
-0.03506
-0.03243
-0.02980
-0.02717
-0.02279
-0.02016
-0.02016
-0.02279
-0.02542
-0.02542
-0.02279
-0.01490
-0.00789
-0.00526
-0.00263
-0.00263
-0.00526
-0.00526
-0.00263
0.00263
0.00701
0.01227
0.01227
0.00964
0.00789
0.00526
0.00701
0.01227
0.01928
0.02717
0.02980
0.02805
0.02542
0.02542
0.02717
0.03243
0.03769
0.04471
0.05259
0.05698
0.05785
0.05522
0.05522
0.05698
0.06224
0.06925
0.07977
0.08503
0.08503
0.08503
0.08503
0.08766
0.09204
0.09993
0.10694
0.11483
0.12009
0.12009
0.12009
0.12272
0.12973
0.13762
0.14201
0.14727
0.14990
0.14990
0.14990
0.14990
0.15253
0.15954
0.16918
0.17532
0.17707
0.17970
0.17795
0.17532
0.17532
0.17707
0.18233
0.18496
0.18759
0.19022
0.18759
0.18233
0.17970
0.17970
0.18233
0.18759
0.18759
0.18321
0.17532
0.16567
0.15778
0.15253
0.14814
0.14288
0.13762
0.12798
0.11308
0.09642
0.07802
0.06574
0.05522
0.04558
0.03594
0.02367
0.00877
-0.00614
-0.02191
-0.03243
-0.03945
-0.04734
-0.05259
-0.05961
-0.06925
-0.08152
-0.09467
-0.10431
-0.11220
-0.11483
-0.11483
-0.11483
-0.11746
-0.12184
-0.12710
-0.13236
-0.13499
-0.13324
-0.12798
-0.12535
-0.12535
-0.12535
-0.12710
-0.13236
-0.13499
-0.13324
-0.12798
-0.12272
-0.12009
-0.12009
-0.12184
-0.12710
-0.12973
-0.12973
-0.12973
-0.12798
-0.12272
-0.12009
-0.12184
-0.12535
-0.12710
-0.12798
-0.12535
-0.12272
-0.11834
-0.11308
-0.10957
-0.11220
-0.11483
-0.11483
-0.11045
-0.10081
-0.09116
-0.08328
-0.07802
-0.07100
-0.06048
-0.05522
-0.05084
-0.03857
-0.02630
-0.01578
-0.00964
-0.01403
-0.02454
-0.04032
-0.06311
-0.07889
-0.09116
-0.10168
-0.11133
-0.12447
-0.13587
-0.14727
-0.14990
-0.14814
-0.14288
-0.13762
-0.13499
-0.13675
-0.14376
-0.14990
-0.14990
-0.14990
-0.14814
-0.14288
-0.14025
-0.14025
-0.14025
-0.13762
-0.13499
-0.13499
-0.13061
-0.12535
-0.12272
-0.11834
-0.11659
-0.12184
-0.13499
-0.15778
-0.17795
-0.17795
-0.12798
-0.03419
0.07276
0.16129
0.22966
0.23843
0.13061
-0.10256
-0.39534
-0.63552
-0.79243
-0.89674
-0.95898
-0.96599
-0.90639
-0.79243
-0.65130
-0.49790
-0.34976
-0.23931
-0.17093
-0.12798
-0.10256
-0.08240
-0.06399
-0.05084
-0.04295
-0.03769
-0.03331
-0.02980
-0.02980
-0.02630
-0.01841
-0.01140
-0.00526
-0.00526
-0.00701
-0.00964
-0.00964
-0.00964
-0.00789
-0.00088
0.00701
0.00964
0.00789
0.00088
-0.00526
-0.00088
0.00701
0.01227
0.01666
0.02016
0.02016
0.02016
0.02016
0.02016
0.02191
0.02893
0.03682
0.04032
0.04032
0.04032
0.03594
0.02980
0.03156
0.03682
0.04208
0.04909
0.05522
0.05347
0.04821
0.04471
0.04909
0.05873
0.06837
0.07714
0.08152
0.08503
0.08328
0.07977
0.07977
0.08152
0.08853
0.09905
0.10694
0.10957
0.10957
0.10957
0.10957
0.11220
0.11659
0.12360
0.13149
0.13499
0.13499
0.13499
0.13675
0.14201
0.14814
0.15691
0.16217
0.16480
0.16304
0.16041
0.16217
0.16655
0.17181
0.17707
0.18321
0.19197
0.19460
0.19460
0.19460
0.19460
0.19635
0.20161
0.20687
0.21389
0.22002
0.22002
0.22002
0.21827
0.21301
0.21038
0.21213
0.21476
0.21476
0.21126
0.20337
0.19811
0.19197
0.18321
0.17970
0.17795
0.17181
0.16129
0.14990
0.13499
0.12009
0.10694
0.09642
0.08853
0.07977
0.06662
0.05522
0.04032
0.02454
0.00789
-0.00526
-0.00701
-0.01315
-0.02367
-0.03506
-0.04821
-0.05961
-0.07363
-0.07977
-0.08152
-0.08678
-0.09204
-0.09642
-0.10344
-0.11483
-0.12535
-0.12535
-0.12535
-0.12535
-0.12535
-0.12535
-0.12623
-0.13149
-0.13675
-0.14201
-0.14376
-0.14025
-0.14025
-0.13850
-0.13499
-0.13499
-0.13675
-0.14025
-0.13850
-0.13499
-0.13324
-0.12973
-0.12973
-0.13149
-0.13499
-0.13499
-0.13499
-0.13324
-0.12798
-0.12535
-0.12535
-0.12623
-0.13149
-0.13499
-0.13499
-0.13324
-0.12710
-0.11659
-0.10694
-0.09993
-0.10168
-0.10344
-0.09818
-0.09029
-0.07363
-0.05698
-0.04646
-0.03857
-0.03331
-0.02980
-0.02980
-0.03331
-0.04471
-0.05961
-0.07451
-0.08941
-0.10431
-0.11922
-0.13587
-0.15165
-0.15691
-0.15866
-0.15340
-0.14990
-0.15165
-0.15691
-0.16041
-0.16041
-0.15866
-0.15340
-0.14990
-0.14814
-0.14464
-0.14639
-0.14990
-0.14990
-0.14990
-0.14814
-0.14201
-0.13324
-0.12973
-0.12973
-0.13149
-0.13675
-0.14025
-0.14113
-0.14902
-0.16567
-0.18321
-0.17707
-0.11571
-0.01403
0.08766
0.18321
0.25771
0.24281
0.09204
-0.17795
-0.47861
-0.70214
-0.83363
-0.92216
-0.96950
-0.96687
-0.90639
-0.79594
-0.65305
-0.49089
-0.34713
-0.24194
-0.16830
-0.11396
-0.07802
-0.05610
-0.04383
-0.04032
-0.04032
-0.03857
-0.03331
-0.02893
-0.02191
-0.01403
-0.00964
-0.01140
-0.01490
-0.01666
-0.01841
-0.01403
-0.00877
-0.00526
-0.00526
-0.00351
-0.00175
-0.00526
-0.00526
-0.00263
0.00789
0.01666
0.02016
0.02016
0.01841
0.01490
0.01490
0.01490
0.01753
0.02630
0.03156
0.03506
0.03331
0.02717
0.02016
0.02104
0.02805
0.03594
0.04120
0.04471
0.04383
0.04032
0.04032
0.04120
0.04646
0.05172
0.05785
0.06487
0.06487
0.06487
0.06487
0.06662
0.07276
0.08152
0.08503
0.08766
0.09467
0.09467
0.09467
0.09642
0.10168
0.10607
0.11133
0.11746
0.12623
0.12973
0.12973
0.12973
0.13149
0.13499
0.13762
0.14727
0.15603
0.16041
0.16041
0.16041
0.16041
0.16217
0.17269
0.18145
0.18584
0.19022
0.19022
0.18846
0.18496
0.18584
0.19285
0.20161
0.20775
0.21652
0.21915
0.21389
0.21038
0.20863
0.20512
0.20600
0.21038
0.21038
0.20863
0.20512
0.20337
0.19898
0.19372
0.19022
0.19022
0.18846
0.18233
0.17181
0.15778
0.14639
0.13236
0.12272
0.11220
0.10168
0.08678
0.07013
0.05172
0.03506
0.01753
0.00614
-0.00614
-0.01227
-0.02191
-0.03243
-0.04383
-0.05698
-0.06837
-0.07977
-0.08152
-0.08503
-0.08590
-0.09116
-0.09642
-0.10081
-0.10607
-0.10957
-0.10870
-0.10344
-0.09993
-0.09993
-0.10081
-0.10694
-0.11483
-0.11396
-0.10870
-0.10431
-0.09993
-0.09993
-0.09993
-0.10081
-0.10607
-0.10957
-0.10957
-0.10870
-0.10431
-0.09993
-0.09993
-0.10256
-0.11133
-0.11483
-0.11483
-0.11396
-0.10870
-0.10431
-0.09993
-0.09993
-0.09993
-0.09993
-0.09905
-0.09204
-0.07889
-0.07188
-0.05873
-0.05259
-0.04383
-0.03857
-0.03419
-0.02893
-0.02279
-0.01315
-0.00526
-0.00614
-0.01315
-0.02893
-0.04909
-0.06837
-0.08328
-0.09642
-0.10168
-0.11133
-0.11746
-0.12710
-0.13587
-0.14025
-0.14025
-0.13938
-0.13412
-0.12886
-0.12623
-0.13061
-0.13587
-0.14025
-0.14025
-0.13938
-0.13324
-0.12535
-0.12535
-0.12535
-0.12535
-0.12535
-0.12535
-0.12535
-0.12272
-0.11396
-0.10957
-0.11133
-0.11834
-0.13499
-0.15866
-0.17269
-0.14814
-0.05785
0.05522
0.15778
0.23931
0.27262
0.20863
0.01841
-0.27788
-0.56539
-0.75824
-0.87220
-0.95372
-0.98528
-0.94934
-0.85554
-0.72055
-0.56539
-0.40761
-0.27262
-0.18408
-0.12886
-0.09642
-0.07539
-0.05259
-0.03857
-0.02805
-0.01928
-0.01490
-0.01490
-0.01578
-0.02016
-0.01928
-0.01315
-0.00526
-0.00438
0.00088
0.00438
-0.00088
-0.00526
-0.00526
-0.00438
0.00175
0.01052
0.01490
0.01490
0.01403
0.00964
0.00964
0.01052
0.01490
0.01578
0.02016
0.02016
0.01928
0.01490
0.01490
0.01578
0.02104
0.02630
0.03506
0.03594
0.03945
0.03419
0.02980
0.02980
0.03156
0.04032
0.04208
0.05084
0.05522
0.05435
0.04909
0.04471
0.04646
0.05698
0.06662
0.07539
0.07977
0.07889
0.07539
0.07539
0.07539
0.08065
0.08678
0.09555
0.10081
0.10519
0.10519
0.10607
0.10957
0.11220
0.12623
0.13499
0.13499
0.13499
0.13499
0.13499
0.13587
0.14113
0.15077
0.15603
0.16041
0.16480
0.16480
0.16480
0.16567
0.17093
0.17532
0.18145
0.19109
0.19460
0.19460
0.19460
0.18934
0.18584
0.19109
0.19635
0.20512
0.20512
0.20512
0.20424
0.19898
0.19460
0.19460
0.19548
0.19986
0.19898
0.19460
0.18846
0.17970
0.17269
0.15954
0.15428
0.14902
0.14376
0.13324
0.11834
0.10256
0.08328
0.07363
0.06399
0.05347
0.04383
0.03331
0.01753
0.00263
-0.01227
-0.02542
-0.03156
-0.04120
-0.05084
-0.05610
-0.06224
-0.07539
-0.08240
-0.09555
-0.09993
-0.09993
-0.09993
-0.09993
-0.09993
-0.10081
-0.10607
-0.11483
-0.11483
-0.11483
-0.11396
-0.10957
-0.10957
-0.10519
-0.11045
-0.11483
-0.11571
-0.11922
-0.11396
-0.10957
-0.10519
-0.10519
-0.10519
-0.11045
-0.11483
-0.11483
-0.11483
-0.10957
-0.10431
-0.09993
-0.10081
-0.10519
-0.10519
-0.10431
-0.09905
-0.09292
-0.07977
-0.07977
-0.07451
-0.07013
-0.06925
-0.06399
-0.05347
-0.04295
-0.02805
-0.01403
-0.00526
-0.00526
-0.00438
0.00088
0.00526
0.00438
-0.00088
-0.00701
-0.02717
-0.04734
-0.06662
-0.08065
-0.09116
-0.09993
-0.09993
-0.10081
-0.10519
-0.10519
-0.10607
-0.11483
-0.11483
-0.11483
-0.10957
-0.10431
-0.09993
-0.10081
-0.10519
-0.10519
-0.10519
-0.10431
-0.09993
-0.09467
-0.08941
-0.08503
-0.08590
-0.09029
-0.09467
-0.09467
-0.09467
-0.09029
-0.09116
-0.10256
-0.13149
-0.14814
-0.12272
-0.04471
0.05961
0.15866
0.24895
0.27788
0.18496
-0.03769
-0.33924
-0.59432
-0.74948
-0.85116
-0.91164
-0.92129
-0.87132
-0.76789
-0.62588
-0.46108
-0.31031
-0.19811
-0.12097
-0.07626
-0.03857
-0.01928
-0.00964
-0.00526
-0.00438
0.00088
0.01052
0.01578
0.02016
0.02542
0.02542
0.02542
0.02542
0.02542
0.03068
0.04032
0.04032
0.04471
0.04471
0.04032
0.04032
0.04032
0.04032
0.04558
0.05522
0.05961
0.05961
0.05961
0.05522
0.05522
0.05522
0.05610
0.06487
0.06574
0.07013
0.06925
0.06487
0.06487
0.06487
0.06574
0.07539
0.08503
0.08503
0.08503
0.08503
0.08503
0.08065
0.08503
0.08590
0.09555
0.10081
0.10957
0.10957
0.10957
0.10957
0.10957
0.11045
0.12097
0.13061
0.13499
0.13499
0.13499
0.13499
0.13499
0.13587
0.14551
0.15515
0.15515
0.15515
0.15515
0.15515
0.15515
0.16567
0.18058
0.18584
0.19548
0.19986
0.19986
0.19022
0.19022
0.19548
0.20512
0.21038
0.21564
0.22002
0.22002
0.22002
0.22002
0.22002
0.22528
0.23054
0.24018
0.24457
0.24457
0.24018
0.23492
0.23492
0.23492
0.23580
0.24544
0.24983
0.24983
0.24457
0.23931
0.22966
0.22528
0.22528
0.22528
0.22440
0.22002
0.21476
0.20424
0.18496
0.17970
0.16918
0.15954
0.15515
0.14902
0.13499
0.12447
0.10957
0.08941
0.07977
0.06487
0.05435
0.03945
0.03419
0.01490
0.00438
-0.00526
-0.01052
-0.01490
-0.02016
-0.02542
-0.03068
-0.04558
-0.05522
-0.06487
-0.07013
-0.07013
-0.07013
-0.06487
-0.06487
-0.07013
-0.07977
-0.07977
-0.08503
-0.08503
-0.07977
-0.07977
-0.07977
-0.07977
-0.08503
-0.09467
-0.09467
-0.09029
-0.08503
-0.07977
-0.07977
-0.07977
-0.07977
-0.08503
-0.09029
-0.09467
-0.09029
-0.09029
-0.08503
-0.08503
-0.09029
-0.09467
-0.09467
-0.09029
-0.08941
-0.07977
-0.07977
-0.07539
-0.07451
-0.07013
-0.06487
-0.06487
-0.05522
-0.04471
-0.02980
-0.01490
-0.00526
-0.00526
-0.00526
0.00000
0.00526
0.00964
0.00964
0.00526
-0.01052
-0.03506
-0.06048
-0.07977
-0.09993
-0.11483
-0.12535
-0.12009
-0.11483
-0.11483
-0.11483
-0.12009
-0.12535
-0.12535
-0.12535
-0.12009
-0.10957
-0.10519
-0.10519
-0.10957
-0.11483
-0.12009
-0.11483
-0.10957
-0.10519
-0.10519
-0.10957
-0.10957
-0.10519
-0.10519
-0.10519
-0.09993
-0.09993
-0.10519
-0.12447
-0.14990
-0.15515
-0.10081
-0.00614
0.10431
0.20950
0.28401
0.25070
0.07626
-0.21739
-0.51718
-0.70828
-0.81347
-0.88885
-0.93970
-0.93970
-0.87570
-0.77139
-0.62237
-0.45758
-0.30680
-0.19635
-0.12623
-0.08590
-0.06048
-0.04997
-0.04032
-0.03506
-0.02980
-0.02542
-0.01490
-0.01052
-0.00526
-0.00526
-0.00964
-0.00964
-0.01490
-0.01490
-0.00526
0.00000
0.00526
0.00526
0.00526
0.00000
-0.00526
-0.00526
-0.00526
0.00438
0.00964
0.01490
0.01490
0.01052
0.00526
0.00964
0.01490
0.02454
0.02980
0.02980
0.02542
0.02016
0.02016
0.02454
0.03506
0.03506
0.03945
0.04032
0.04032
0.04032
0.04032
0.04032
0.04032
0.04032
0.04997
0.05522
0.05961
0.05961
0.05961
0.05961
0.05961
0.06487
0.07451
0.08503
0.08941
0.09029
0.08503
0.08503
0.08941
0.09467
0.10431
0.10957
0.11483
0.11483
0.11483
0.11483
0.12009
0.12447
0.13412
0.13499
0.14464
0.14464
0.14025
0.13499
0.13499
0.13938
0.14990
0.15515
0.15954
0.16041
0.16041
0.16041
0.16041
0.16041
0.16918
0.17970
0.18496
0.18496
0.18934
0.19022
0.18496
0.18496
0.18496
0.18934
0.19460
0.19986
0.19986
0.19022
0.18058
0.17970
0.17970
0.17970
0.18496
0.18496
0.18058
0.17532
0.16129
0.14551
0.13587
0.13061
0.12097
0.11045
0.10081
0.08590
0.06662
0.04646
0.03068
0.01578
0.00088
-0.00438
-0.01928
-0.02893
-0.04909
-0.05961
-0.07363
-0.07977
-0.08941
-0.09029
-0.09029
-0.09467
-0.09993
-0.11396
-0.12447
-0.12535
-0.12535
-0.12535
-0.12535
-0.12535
-0.12535
-0.12535
-0.12973
-0.13499
-0.13938
-0.13061
-0.12535
-0.12009
-0.11571
-0.11922
-0.12447
-0.12973
-0.12973
-0.12535
-0.12535
-0.12009
-0.12009
-0.12009
-0.12447
-0.12973
-0.13499
-0.13499
-0.13061
-0.12535
-0.12535
-0.12535
-0.12535
-0.12973
-0.12973
-0.12973
-0.12535
-0.12009
-0.11045
-0.10519
-0.10081
-0.09993
-0.09555
-0.08152
-0.07100
-0.05610
-0.04558
-0.04032
-0.04032
-0.04032
-0.04032
-0.04471
-0.04471
-0.05435
-0.06399
-0.08328
-0.09818
-0.11834
-0.13324
-0.14814
-0.14990
-0.14990
-0.14990
-0.14990
-0.14990
-0.14990
-0.15428
-0.15515
-0.15515
-0.15077
-0.14990
-0.14990
-0.14551
-0.14990
-0.14990
-0.14990
-0.14990
-0.14551
-0.14025
-0.13587
-0.13061
-0.13412
-0.13938
-0.14464
-0.14464
-0.14464
-0.14464
-0.15428
-0.17707
-0.19811
-0.18233
-0.10870
-0.00614
0.10344
0.21301
0.26911
0.20337
-0.00526
-0.31031
-0.58468
-0.75298
-0.86343
-0.93268
-0.96687
-0.94758
-0.86519
-0.73983
-0.58731
-0.42865
-0.29979
-0.20512
-0.14639
-0.10431
-0.07802
-0.05698
-0.05084
-0.04558
-0.04471
-0.04471
-0.03594
-0.03068
-0.02980
-0.02542
-0.02980
-0.02980
-0.02980
-0.02980
-0.02542
-0.02104
-0.01140
-0.00526
-0.00526
-0.00964
-0.00964
-0.00964
-0.00526
-0.00526
-0.00088
0.00438
0.00526
0.00088
-0.00438
-0.00526
-0.00088
0.00877
0.01403
0.01490
0.01928
0.01578
0.01490
0.01490
0.01490
0.01490
0.02367
0.03331
0.03506
0.03506
0.03506
0.03068
0.03419
0.03506
0.03945
0.04471
0.04909
0.05435
0.05522
0.05522
0.05522
0.05961
0.06399
0.07363
0.08328
0.08503
0.08503
0.08503
0.08503
0.08503
0.09379
0.10344
0.10957
0.10957
0.10957
0.10957
0.10957
0.10957
0.11396
0.12360
0.13324
0.13499
0.13938
0.14025
0.13587
0.13938
0.14464
0.15340
0.15954
0.16392
0.16480
0.16918
0.17006
0.16567
0.16918
0.17444
0.17882
0.18408
0.18934
0.19022
0.18584
0.18058
0.17970
0.18408
0.18934
0.19460
0.19460
0.19460
0.18671
0.18058
0.17619
0.17532
0.17532
0.17532
0.17532
0.16655
0.15691
0.14201
0.13149
0.11746
0.11045
0.10168
0.08766
0.08065
0.06750
0.04383
0.02367
0.00789
-0.00789
-0.02279
-0.02893
-0.03857
-0.05259
-0.06750
-0.07802
-0.08853
-0.09818
-0.09993
-0.09993
-0.09993
-0.09993
-0.10431
-0.10957
-0.11396
-0.11483
-0.11483
-0.11045
-0.10957
-0.10957
-0.10957
-0.11396
-0.11922
-0.12009
-0.12009
-0.11133
-0.10607
-0.10081
-0.09993
-0.09993
-0.10431
-0.10870
-0.10957
-0.10607
-0.10081
-0.09993
-0.09993
-0.09993
-0.10782
-0.11396
-0.11483
-0.11133
-0.10168
-0.09555
-0.09116
-0.09379
-0.09905
-0.09993
-0.09555
-0.08678
-0.07714
-0.06311
-0.05172
-0.04208
-0.03156
-0.02980
-0.02980
-0.02630
-0.02104
-0.01578
-0.01928
-0.02805
-0.04208
-0.06487
-0.08240
-0.09730
-0.10782
-0.11396
-0.11922
-0.12360
-0.12886
-0.13762
-0.14814
-0.14990
-0.14990
-0.14639
-0.13675
-0.13499
-0.13499
-0.13499
-0.13938
-0.14376
-0.14464
-0.14113
-0.13236
-0.12623
-0.12886
-0.12973
-0.12973
-0.12973
-0.12973
-0.12623
-0.12535
-0.12097
-0.12009
-0.12798
-0.15428
-0.18408
-0.19372
-0.13938
-0.04208
0.06750
0.16918
0.24983
0.25333
0.13499
-0.10870
-0.40586
-0.63552
-0.77840
-0.87570
-0.93444
-0.94145
-0.88447
-0.78717
-0.65831
-0.50403
-0.35239
-0.23755
-0.16392
-0.11834
-0.09029
-0.07714
-0.06311
-0.05610
-0.04295
-0.03243
-0.02630
-0.02542
-0.02542
-0.02893
-0.02980
-0.02980
-0.02191
-0.01578
-0.00701
-0.00526
-0.00526
-0.00877
-0.01403
-0.01490
-0.01140
-0.00614
0.00263
0.00877
0.00614
0.00088
0.00000
0.00000
0.00351
0.01315
0.01490
0.01928
0.02367
0.02104
0.01578
0.01490
0.01490
0.01928
0.02367
0.02893
0.03419
0.03506
0.03156
0.02630
0.02893
0.03419
0.03857
0.04734
0.05347
0.05873
0.05610
0.05522
0.05873
0.06399
0.06925
0.07802
0.08415
0.08503
0.08503
0.08503
0.08503
0.08853
0.09379
0.10256
0.10870
0.11396
0.11483
0.11483
0.11483
0.11922
0.12360
0.13236
0.13850
0.14727
0.15340
0.15165
0.14639
0.14464
0.15253
0.15866
0.16743
0.17795
0.17970
0.17970
0.18408
0.18145
0.17970
0.18408
0.19285
0.20249
0.20512
0.20512
0.20512
0.20161
0.19986
0.20337
0.20512
0.21213
0.21915
0.22002
0.21213
0.20600
0.20512
0.20512
0.20512
0.20863
0.21038
0.20600
0.19723
0.18408
0.17269
0.16217
0.15603
0.14727
0.14113
0.13587
0.12360
0.10870
0.09029
0.07013
0.05435
0.04295
0.03594
0.02367
0.01227
-0.00088
-0.02367
-0.03769
-0.05084
-0.05522
-0.05873
-0.06399
-0.06837
-0.07714
-0.09116
-0.09905
-0.10694
-0.10957
-0.10607
-0.10519
-0.10870
-0.11396
-0.12184
-0.12535
-0.12886
-0.12623
-0.12535
-0.12097
-0.11659
-0.11834
-0.12360
-0.12886
-0.13324
-0.13149
-0.12623
-0.12097
-0.11659
-0.11483
-0.11834
-0.12360
-0.12535
-0.12535
-0.11746
-0.11133
-0.10256
-0.09993
-0.09993
-0.09993
-0.09642
-0.09116
-0.08328
-0.06925
-0.05435
-0.03945
-0.03156
-0.02980
-0.02980
-0.02630
-0.02542
-0.02542
-0.02893
-0.03682
-0.05084
-0.07276
-0.09379
-0.11396
-0.12360
-0.12886
-0.12973
-0.13324
-0.13499
-0.13499
-0.14201
-0.14814
-0.14990
-0.14990
-0.14288
-0.13675
-0.13850
-0.14025
-0.14376
-0.14814
-0.14990
-0.14639
-0.14113
-0.13324
-0.12973
-0.12973
-0.13324
-0.14201
-0.14464
-0.14464
-0.14113
-0.13675
-0.13499
-0.14551
-0.17093
-0.19723
-0.18759
-0.12097
-0.01841
0.08415
0.18145
0.24457
0.20424
0.03068
-0.25684
-0.54523
-0.73720
-0.85467
-0.93005
-0.96687
-0.95460
-0.89674
-0.79243
-0.64779
-0.48650
-0.34187
-0.23142
-0.15866
-0.11220
-0.08590
-0.07626
-0.06837
-0.06136
-0.05698
-0.04821
-0.04120
-0.03682
-0.03506
-0.03506
-0.03857
-0.04032
-0.03682
-0.03156
-0.02980
-0.02630
-0.02542
-0.02191
-0.02016
-0.02016
-0.02016
-0.01315
-0.00701
-0.00526
-0.00175
0.00000
-0.00351
-0.00526
-0.00526
-0.00526
-0.00175
0.00351
0.00526
0.00526
0.00526
0.00526
0.00877
0.00964
0.01315
0.01490
0.01841
0.02367
0.02191
0.02016
0.02016
0.02016
0.02630
0.03331
0.03857
0.04646
0.05347
0.05172
0.04997
0.04997
0.05347
0.06136
0.06837
0.07363
0.07802
0.07626
0.07539
0.07539
0.08152
0.08853
0.09642
0.10694
0.10957
0.11308
0.11483
0.11483
0.11834
0.12623
0.13324
0.13850
0.14025
0.14025
0.14025
0.14288
0.14464
0.15165
0.15866
0.16304
0.16830
0.17006
0.16655
0.16480
0.16480
0.16830
0.17356
0.17795
0.17970
0.18321
0.18496
0.18496
0.18496
0.18496
0.18496
0.18846
0.19285
0.19460
0.19197
0.18671
0.18145
0.17970
0.17970
0.17970
0.17970
0.17970
0.17356
0.16041
0.14814
0.13850
0.12886
0.11834
0.11220
0.10344
0.09029
0.07188
0.05259
0.03243
0.01578
0.00351
-0.00614
-0.01666
-0.02630
-0.03945
-0.05435
-0.06925
-0.08152
-0.09116
-0.09818
-0.09993
-0.09993
-0.09993
-0.10607
-0.11659
-0.12360
-0.12535
-0.12535
-0.12535
-0.12184
-0.12272
-0.12535
-0.12798
-0.13324
-0.13499
-0.13149
-0.12710
-0.12535
-0.12184
-0.12272
-0.12535
-0.12535
-0.12535
-0.12535
-0.12184
-0.11659
-0.11483
-0.11483
-0.11834
-0.12272
-0.12535
-0.12535
-0.12184
-0.11659
-0.11483
-0.11483
-0.11483
-0.11483
-0.11220
-0.10344
-0.09730
-0.08590
-0.07714
-0.06574
-0.05698
-0.05172
-0.04734
-0.04208
-0.03682
-0.02893
-0.02191
-0.02279
-0.03156
-0.04734
-0.06750
-0.08415
-0.09642
-0.10957
-0.12097
-0.12798
-0.13324
-0.14113
-0.14814
-0.14990
-0.14990
-0.14990
-0.14727
-0.14464
-0.14464
-0.14464
-0.14814
-0.14990
-0.14990
-0.14727
-0.14201
-0.13675
-0.13499
-0.13762
-0.14025
-0.14288
-0.14201
-0.13675
-0.13499
-0.13236
-0.12710
-0.12798
-0.13938
-0.16041
-0.18496
-0.19811
-0.16743
-0.07889
0.03068
0.13762
0.22791
0.25421
0.15778
-0.07188
-0.36904
-0.61711
-0.77139
-0.87045
-0.93794
-0.96336
-0.92918
-0.84239
-0.71091
-0.54962
-0.39096
-0.26823
-0.18408
-0.13149
-0.10344
-0.08590
-0.07100
-0.05873
-0.04909
-0.04208
-0.03682
-0.03243
-0.03331
-0.03506
-0.03506
-0.03506
-0.03243
-0.02454
-0.01666
-0.01490
-0.01753
-0.02016
-0.02279
-0.02191
-0.01753
-0.00877
-0.00526
-0.00526
-0.00526
-0.00526
-0.00526
-0.00526
-0.00526
0.00088
0.00789
0.00964
0.00964
0.00701
0.00526
0.00526
0.01052
0.01490
0.01753
0.02279
0.02542
0.02542
0.02542
0.02542
0.02805
0.03243
0.03769
0.04032
0.04032
0.04032
0.04032
0.04032
0.04295
0.04821
0.05610
0.06311
0.06487
0.06487
0.06487
0.06487
0.07100
0.08065
0.08766
0.09292
0.09818
0.09993
0.09993
0.09993
0.10256
0.10782
0.11571
0.12535
0.13236
0.13499
0.13499
0.13499
0.13499
0.13499
0.14025
0.15077
0.15515
0.15778
0.16041
0.16304
0.16480
0.16480
0.16743
0.17532
0.17970
0.18233
0.18233
0.17970
0.17970
0.17970
0.17970
0.17970
0.18584
0.19022
0.19022
0.18759
0.18233
0.17970
0.17970
0.18233
0.18759
0.19022
0.18759
0.17970
0.16918
0.15954
0.15253
0.14464
0.13762
0.13236
0.12184
0.10431
0.08678
0.07188
0.05435
0.04208
0.03156
0.01928
0.00964
0.00000
-0.01578
-0.03331
-0.04821
-0.06048
-0.06750
-0.07276
-0.07802
-0.08240
-0.08766
-0.09555
-0.10256
-0.10782
-0.11308
-0.11220
-0.10957
-0.10957
-0.11308
-0.11746
-0.12272
-0.12535
-0.12535
-0.12272
-0.11746
-0.11220
-0.10957
-0.11571
-0.12272
-0.12535
-0.12535
-0.12272
-0.11746
-0.11220
-0.10957
-0.11220
-0.11746
-0.12272
-0.12535
-0.12535
-0.12009
-0.10957
-0.10256
-0.09993
-0.09993
-0.09993
-0.09730
-0.08941
-0.07977
-0.07013
-0.05961
-0.05259
-0.04734
-0.04471
-0.04208
-0.03506
-0.02980
-0.02717
-0.02717
-0.03506
-0.04997
-0.07276
-0.09555
-0.11308
-0.12272
-0.12973
-0.13499
-0.13499
-0.13762
-0.14551
-0.14990
-0.14990
-0.14990
-0.14990
-0.14727
-0.14288
-0.14025
-0.14288
-0.14727
-0.14990
-0.14990
-0.14727
-0.14025
-0.13236
-0.12973
-0.13236
-0.13762
-0.14464
-0.14727
-0.14288
-0.13499
-0.12710
-0.12710
-0.14025
-0.16041
-0.18233
-0.17970
-0.12272
-0.02279
0.08503
0.18233
0.24720
0.21476
0.04821
-0.21915
-0.49439
-0.69951
-0.82925
-0.91252
-0.95723
-0.95021
-0.88535
-0.77314
-0.62325
-0.45845
-0.31294
-0.21038
-0.14551
-0.10519
-0.08240
-0.07013
-0.06048
-0.05259
-0.04471
-0.03769
-0.03243
-0.02980
-0.02980
-0.02980
-0.02980
-0.02980
-0.02717
-0.01753
-0.00789
-0.00526
-0.00526
-0.00964
-0.01753
-0.02016
-0.01490
-0.00789
0.00000
