-0.03031
-0.03031
-0.03031
-0.03031
-0.03359
-0.03522
-0.03522
-0.03522
-0.03522
-0.03850
-0.04014
-0.03686
-0.03522
-0.03195
-0.03031
-0.02703
-0.02539
-0.02539
-0.02212
-0.01966
-0.01966
-0.01966
-0.01966
-0.01966
-0.01966
-0.01966
-0.01966
-0.01966
-0.01966
-0.02294
-0.02539
-0.02539
-0.02539
-0.02539
-0.02539
-0.02539
-0.02785
-0.03031
-0.03031
-0.03031
-0.03359
-0.03522
-0.03850
-0.04014
-0.04342
-0.04505
-0.04505
-0.04833
-0.04997
-0.04997
-0.04997
-0.04997
-0.04997
-0.05325
-0.05488
-0.05488
-0.05488
-0.05488
-0.05816
-0.05980
-0.05652
-0.05488
-0.05161
-0.04342
-0.03359
-0.02703
-0.02212
-0.01393
-0.00655
0.00410
0.01966
0.03440
0.04915
0.05816
0.05980
0.05652
0.05161
0.04669
0.04178
0.03031
0.01556
-0.00246
-0.02212
-0.03932
-0.05406
-0.06635
-0.07618
-0.08273
-0.08519
-0.08847
-0.09011
-0.09011
-0.09011
-0.09011
-0.09011
-0.09011
-0.09338
-0.09175
-0.09011
-0.09011
-0.09011
-0.09011
-0.09011
-0.09011
-0.09011
-0.09011
-0.09011
-0.09011
-0.09011
-0.09011
-0.09011
-0.09011
-0.09338
-0.09175
-0.09011
-0.09011
-0.08683
-0.08192
-0.07127
-0.04997
-0.01884
0.00983
0.04423
0.09011
0.14909
0.22035
0.27442
0.26623
0.19004
0.05079
-0.11714
-0.27524
-0.40712
-0.49723
-0.55211
-0.58488
-0.58324
-0.54228
-0.46610
-0.37353
-0.27851
-0.19578
-0.13516
-0.09420
-0.06553
-0.04915
-0.03932
-0.03195
-0.02703
-0.02539
-0.02212
-0.01966
-0.01966
-0.01966
-0.01720
-0.01474
-0.01474
-0.01229
-0.00983
-0.00983
-0.00983
-0.00983
-0.00983
-0.00983
-0.00737
-0.00491
-0.00491
-0.00491
-0.00491
-0.00491
-0.00246
0.00000
0.00000
0.00000
0.00000
0.00000
0.00000
0.00000
0.00000
0.00000
0.00000
0.00000
0.00000
0.00000
0.00000
0.00000
-0.00328
-0.00491
-0.00491
-0.00246
0.00000
0.00000
0.00328
0.00491
0.00491
0.00491
0.00491
0.00491
0.00491
0.00491
0.00491
0.00491
0.00491
0.00819
0.00983
0.00983
0.00983
0.00983
0.00983
0.00983
0.00983
0.01311
0.01474
0.01802
0.02294
0.02212
0.01966
0.01966
0.01966
0.01966
0.01966
0.01966
0.01966
0.02294
0.02539
0.02212
0.01966
0.01966
0.01720
0.01474
0.01802
0.01966
0.01966
0.01720
0.01474
0.01474
0.01474
0.01474
0.01474
0.01474
0.01474
0.01474
0.01474
0.01474
0.01474
0.01474
0.01474
0.01802
0.01720
0.01474
0.01474
0.01229
0.00737
0.00246
0.00000
-0.00246
-0.00737
-0.01311
-0.01802
-0.02294
-0.02539
-0.02785
-0.03031
-0.03031
-0.03031
-0.03031
-0.03031
-0.03277
-0.03522
-0.03195
-0.03031
-0.03031
-0.03031
-0.03031
-0.03031
-0.03031
-0.03031
-0.03031
-0.03031
-0.03031
-0.03031
-0.03031
-0.02703
-0.02539
-0.02212
-0.01720
-0.01229
-0.01229
-0.01474
-0.01802
-0.02539
-0.03031
-0.03031
-0.03031
-0.03031
-0.03277
-0.03768
-0.04260
-0.04260
-0.04260
-0.04751
-0.05243
-0.05488
-0.05488
-0.05488
-0.05488
-0.05734
-0.05980
-0.05980
-0.05980
-0.05980
-0.05980
-0.06226
-0.06471
-0.06471
-0.06471
-0.06799
-0.06963
-0.06963
-0.06471
-0.05488
-0.04178
-0.02703
-0.00983
0.00819
0.02048
0.02539
0.02212
0.01966
0.01966
0.02294
0.02539
0.01966
0.00491
-0.01556
-0.03522
-0.04997
-0.06307
-0.07536
-0.08519
-0.09256
-0.09748
-0.09994
-0.09994
-0.10239
-0.10485
-0.10485
-0.10239
-0.09994
-0.09994
-0.09994
-0.09994
-0.09994
-0.09994
-0.09994
-0.09994
-0.10239
-0.10485
-0.10485
-0.10485
-0.10239
-0.09994
-0.09994
-0.09994
-0.09994
-0.09994
-0.09994
-0.09994
-0.09748
-0.09502
-0.09256
-0.08519
-0.06963
-0.04505
-0.00737
0.04014
0.09502
0.16465
0.24493
0.32520
0.37026
0.33503
0.21298
0.02785
-0.16957
-0.34486
-0.47511
-0.55703
-0.60699
-0.63239
-0.62502
-0.57750
-0.50050
-0.40302
-0.29817
-0.20807
-0.14499
-0.10239
-0.07536
-0.05980
-0.04997
-0.04014
-0.03277
-0.03031
-0.03031
-0.02785
-0.02539
-0.02294
-0.01966
-0.01966
-0.01966
-0.01966
-0.01720
-0.01474
-0.01229
-0.00737
-0.00491
-0.00491
-0.00491
-0.00246
0.00000
0.00246
0.00491
0.00491
0.00491
0.00491
0.00491
0.00491
0.00491
0.00491
0.00737
0.01229
0.01474
0.01474
0.01474
0.01474
0.01474
0.01474
0.01474
0.01474
0.01474
0.01474
0.01474
0.01474
0.01474
0.01474
0.01474
0.01474
0.01474
0.01474
0.01474
0.01474
0.01474
0.01720
0.01966
0.01966
0.01966
0.01966
0.02212
0.02539
0.02539
0.02539
0.02703
0.03031
0.03195
0.03522
0.03522
0.03522
0.03522
0.03522
0.03522
0.03522
0.03522
0.03522
0.03522
0.03277
0.03195
0.03522
0.03522
0.03522
0.03522
0.03522
0.03768
0.04014
0.04014
0.03768
0.03522
0.03277
0.03031
0.03031
0.03031
0.03031
0.03031
0.03031
0.03031
0.03195
0.03522
0.03277
0.03031
0.03031
0.03031
0.03031
0.03031
0.03031
0.02785
0.02539
0.02539
0.02294
0.01966
0.01802
0.01474
0.01311
0.00737
0.00246
-0.00246
-0.00491
-0.00737
-0.00983
-0.01229
-0.01720
-0.01966
-0.01966
-0.01966
-0.01966
-0.02212
-0.02703
-0.03031
-0.03031
-0.03031
-0.03031
-0.03031
-0.03031
-0.03031
-0.03031
-0.03031
-0.03031
-0.03031
-0.03031
-0.03031
-0.03031
-0.03031
-0.03031
-0.03031
-0.03031
-0.03031
-0.03031
-0.03031
-0.03031
-0.03031
-0.03031
-0.03031
-0.03031
-0.03031
-0.03195
-0.03522
-0.03522
-0.03522
-0.03686
-0.04014
-0.04014
-0.04014
-0.04178
-0.04505
-0.04505
-0.04505
-0.04751
-0.04997
-0.05243
-0.05488
-0.05488
-0.05488
-0.05488
-0.05488
-0.05488
-0.05488
-0.05488
-0.05488
-0.05488
-0.05488
-0.05488
-0.05325
-0.04751
-0.03850
-0.02785
-0.02048
-0.01311
-0.00819
-0.00082
0.01147
0.02867
0.04423
0.05406
0.06226
0.06471
0.06307
0.05816
0.05079
0.04260
0.03195
0.01393
-0.00082
-0.01802
-0.03604
-0.04915
-0.06144
-0.07372
-0.08192
-0.08683
-0.09011
-0.09011
-0.09175
-0.09502
-0.09502
-0.09502
-0.09502
-0.09256
-0.09011
-0.09011
-0.09011
-0.09011
-0.09011
-0.09175
-0.09502
-0.09502
-0.09338
-0.09011
-0.09011
-0.09175
-0.09338
-0.09011
-0.09011
-0.09011
-0.09011
-0.08765
-0.08273
-0.08028
-0.07372
-0.05488
-0.02785
0.00000
0.03113
0.07454
0.13106
0.20315
0.27442
0.29326
0.22772
0.08847
-0.08601
-0.25558
-0.39483
-0.49395
-0.55539
-0.58979
-0.60126
-0.57341
-0.50706
-0.41449
-0.31128
-0.22117
-0.15564
-0.11141
-0.08192
-0.06389
-0.05079
-0.04342
-0.03768
-0.03277
-0.03031
-0.03031
-0.03031
-0.02785
-0.02539
-0.02539
-0.02539
-0.02539
-0.02294
-0.01966
-0.01802
-0.01474
-0.01311
-0.00983
-0.00983
-0.00983
-0.00983
-0.00819
-0.00491
-0.00491
-0.00491
-0.00491
-0.00328
0.00000
0.00164
0.00491
0.00491
0.00491
0.00491
0.00491
0.00491
0.00655
0.00983
0.00983
0.00983
0.00819
0.00491
0.00655
0.00983
0.00983
0.01147
0.01474
0.01474
0.01474
0.01474
0.01311
0.01147
0.01474
0.01474
0.01474
0.01474
0.01474
0.01474
0.01474
0.01474
0.01474
0.01474
0.01474
0.01474
0.01474
0.01474
0.01474
0.01474
0.01474
0.01474
0.01474
0.01474
0.01474
0.01474
0.01474
0.01474
0.01474
0.01474
0.01474
0.01311
0.01147
0.01474
0.01311
0.00983
0.00983
0.00983
0.00983
0.00983
0.00983
0.00983
0.01147
0.01474
0.01474
0.01474
0.01474
0.01474
0.01474
0.01474
0.01474
0.01311
0.00983
0.00983
0.00983
0.00983
0.00819
0.00491
0.00328
-0.00164
-0.00491
-0.00491
-0.00655
-0.01147
-0.01638
-0.01966
-0.02130
-0.02703
-0.03031
-0.03195
-0.03522
-0.03522
-0.03522
-0.03522
-0.03686
-0.04014
-0.04014
-0.04014
-0.04014
-0.04014
-0.03850
-0.03522
-0.03686
-0.04014
-0.03850
-0.03522
-0.03522
-0.03359
-0.03031
-0.03031
-0.03031
-0.02867
-0.02376
-0.01802
-0.01474
-0.01638
-0.01966
-0.01966
-0.02130
-0.02539
-0.02539
-0.02703
-0.03031
-0.03031
-0.03031
-0.03195
-0.03686
-0.04014
-0.04014
-0.04178
-0.04505
-0.04669
-0.04997
-0.05161
-0.05488
-0.05488
-0.05652
-0.05980
-0.05980
-0.05980
-0.05980
-0.05816
-0.05652
-0.05980
-0.05980
-0.05980
-0.05980
-0.05980
-0.05816
-0.05488
-0.05488
-0.05488
-0.05488
-0.05161
-0.04178
-0.03359
-0.02867
-0.02212
-0.01229
-0.00164
0.00983
0.02457
0.03850
0.04833
0.05652
0.05816
0.05488
0.05161
0.04342
0.03686
0.02539
0.00737
-0.01638
-0.03440
-0.04997
-0.06471
-0.07618
-0.08192
-0.08765
-0.09666
-0.09994
-0.09994
-0.09994
-0.09994
-0.09994
-0.10158
-0.10485
-0.10649
-0.10977
-0.10977
-0.10977
-0.10977
-0.10977
-0.10977
-0.11141
-0.11468
-0.11468
-0.11386
-0.10813
-0.10485
-0.10485
-0.10485
-0.10485
-0.10321
-0.09994
-0.09830
-0.09502
-0.09502
-0.09175
-0.08028
-0.06144
-0.02867
0.01311
0.06226
0.12697
0.20643
0.29162
0.34650
0.32439
0.21380
0.04833
-0.13270
-0.30800
-0.44644
-0.54064
-0.58979
-0.61928
-0.62174
-0.58160
-0.50788
-0.41040
-0.30800
-0.22035
-0.15728
-0.11550
-0.08437
-0.06553
-0.05325
-0.04833
-0.04260
-0.03359
-0.03031
-0.03031
-0.02867
-0.02376
-0.02130
-0.02621
-0.03031
-0.02867
-0.02539
-0.02376
-0.01966
-0.01966
-0.01966
-0.01966
-0.01966
-0.01884
-0.01393
-0.00983
-0.00983
-0.00901
-0.00491
-0.00491
-0.00491
-0.00491
-0.00328
0.00000
0.00000
0.00000
0.00164
0.00491
0.00491
0.00655
0.01147
0.01474
0.01474
0.01474
0.01474
0.01474
0.01474
0.01474
0.01474
0.01474
0.01474
0.01474
0.01474
0.01474
0.01474
0.01474
0.01474
0.01474
0.01474
0.01474
0.01474
0.01474
0.01638
0.01966
0.01966
0.01966
0.01966
0.02130
0.02539
0.02539
0.02539
0.02539
0.02539
0.02539
0.02539
0.02539
0.02621
0.03031
0.03031
0.03031
0.03031
0.03031
0.03113
0.03522
0.03359
0.03031
0.03031
0.03031
0.03031
0.03031
0.03113
0.03522
0.03522
0.03522
0.03359
0.03031
0.03031
0.03031
0.03031
0.03113
0.03522
0.03522
0.03522
0.03522
0.03522
0.03359
0.03031
0.03031
0.03031
0.03031
0.03031
0.03031
0.03031
0.03031
0.02867
0.02539
0.02376
0.01884
0.01474
0.01393
0.00901
0.00410
0.00000
0.00000
-0.00082
-0.00491
-0.00491
-0.00655
-0.01147
-0.01474
-0.01474
-0.01474
-0.01638
-0.01966
-0.02130
-0.02539
-0.02376
-0.01966
-0.01966
-0.02130
-0.02539
-0.02539
-0.02539
-0.02539
-0.02539
-0.02539
-0.02539
-0.02539
-0.02539
-0.02539
-0.02621
-0.03031
-0.03031
-0.03031
-0.03031
-0.03031
-0.03031
-0.03031
-0.03031
-0.03031
-0.03113
-0.03522
-0.03604
-0.04014
-0.04096
-0.04505
-0.04505
-0.04505
-0.04505
-0.04587
-0.04997
-0.04997
-0.04997
-0.04997
-0.04997
-0.04997
-0.04915
-0.04505
-0.04423
-0.03768
-0.02539
-0.00819
0.00328
0.01720
0.02785
0.04014
0.04014
0.04014
0.04014
0.04096
0.04505
0.04423
0.03686
0.02130
0.00328
-0.00819
-0.02212
-0.03277
-0.04669
-0.05570
-0.06062
-0.06471
-0.06635
-0.07127
-0.07618
-0.08028
-0.08028
-0.08028
-0.08028
-0.08028
-0.08028
-0.07864
-0.07536
-0.07536
-0.07372
-0.06963
-0.06963
-0.06963
-0.06963
-0.06963
-0.06963
-0.06963
-0.06963
-0.06963
-0.06963
-0.06963
-0.06963
-0.06881
-0.06389
-0.05898
-0.05406
-0.04587
-0.02457
0.00737
0.04669
0.08519
0.14253
0.20970
0.28916
0.35387
0.35387
0.25640
0.09502
-0.09338
-0.26786
-0.40876
-0.50050
-0.55211
-0.58651
-0.59061
-0.55784
-0.48740
-0.39074
-0.28670
-0.19168
-0.12205
-0.07946
-0.05161
-0.03359
-0.02294
-0.01393
-0.00901
-0.00491
-0.00491
-0.00491
-0.00410
0.00000
0.00000
0.00000
0.00082
0.00491
0.00491
0.00573
0.00983
0.00983
0.00983
0.00983
0.00983
0.01065
0.01474
0.01474
0.01474
0.01474
0.01474
0.01474
0.01474
0.01556
0.01966
0.01966
0.01884
0.01474
0.01474
0.01474
0.01474
0.01474
0.01474
0.01474
0.01474
0.01474
0.01474
0.01474
0.01474
0.01556
0.01966
0.01966
0.01884
0.01474
0.01474
0.01474
0.01474
0.01556
0.01966
0.01966
0.01966
0.01966
0.02048
0.02539
0.02539
0.02539
0.02539
0.02457
0.01966
0.01966
0.01966
0.01966
0.02048
0.02539
0.02539
0.02539
0.02539
0.02539
0.02539
0.02539
0.02539
0.02457
0.01966
0.01966
0.01966
0.01966
0.01966
0.01966
0.01966
0.01966
0.01966
0.01966
0.01966
0.01966
0.01966
0.01966
0.01966
0.01966
0.01474
0.01556
0.01966
0.01966
0.01474
0.01474
0.01474
0.01474
0.01474
0.01474
0.01474
0.01474
0.01393
0.00983
0.00983
0.00901
0.00491
0.00410
0.00000
-0.00082
-0.00491
-0.00573
-0.00983
-0.01065
-0.01556
-0.01966
-0.01966
-0.02048
-0.02539
-0.03031
-0.03031
-0.03031
-0.03031
-0.03031
-0.03031
-0.03031
-0.03031
-0.03031
-0.03031
-0.03031
-0.02949
-0.02539
-0.02457
-0.01966
-0.01966
-0.01474
-0.01556
-0.01966
-0.01966
-0.01474
-0.01474
-0.01474
-0.01474
-0.01474
-0.01474
-0.01474
-0.01474
-0.01474
-0.01474
-0.01474
-0.01556
-0.01966
-0.01966
-0.01966
-0.01966
-0.01966
-0.02048
-0.02539
-0.03031
-0.03031
-0.03522
-0.03522
-0.03522
-0.04014
-0.04014
-0.04014
-0.04014
-0.04096
-0.04505
-0.04505
-0.04505
-0.04505
-0.04505
-0.04505
-0.04505
-0.04505
-0.04505
-0.04505
-0.04505
-0.04423
-0.03932
-0.02949
-0.02457
-0.01884
-0.00983
-0.00410
0.00164
0.01638
0.02621
0.04178
0.05570
0.06635
0.07454
0.06963
0.06471
0.06471
0.05898
0.04915
0.03768
0.01802
-0.00164
-0.01638
-0.03195
-0.05079
-0.06062
-0.07045
-0.07536
-0.08028
-0.08028
-0.08028
-0.08028
-0.08028
-0.08028
-0.08028
-0.08028
-0.08028
-0.08028
-0.08028
-0.08028
-0.08519
-0.08519
-0.08519
-0.08519
-0.08519
-0.08519
-0.08519
-0.08437
-0.08028
-0.08028
-0.08028
-0.08028
-0.08028
-0.07946
-0.07536
-0.07454
-0.06881
-0.05406
-0.03768
-0.01229
0.01720
0.04833
0.09502
0.15646
0.23510
0.29490
0.28752
0.19250
0.03686
-0.13106
-0.27524
-0.40220
-0.48904
-0.53737
-0.57013
-0.56686
-0.52426
-0.44808
-0.35224
-0.25312
-0.16629
-0.11222
-0.07290
-0.04833
-0.02949
-0.01966
-0.01474
-0.00983
-0.00983
-0.00491
-0.00491
-0.00491
0.00000
0.00000
0.00000
0.00000
0.00573
0.00983
0.00983
0.00983
0.00983
0.00491
0.00491
0.00491
0.00491
0.00491
0.00491
0.00491
0.00491
0.00491
0.00983
0.00983
0.00983
0.00983
0.00983
0.00983
0.00983
0.00983
0.00983
0.00983
0.00983
0.00983
0.01065
0.01474
0.01474
0.01474
0.01065
0.01474
0.01474
0.01474
0.01474
0.01474
0.01474
0.01474
0.01474
0.01474
0.01474
0.01474
0.01474
0.01474
0.01474
0.01474
0.01474
0.01474
0.01474
0.01556
0.01966
0.02048
0.02539
0.02539
0.02949
0.02539
0.02539
0.02539
0.03031
0.03522
0.03522
0.03522
0.03440
0.02457
0.01966
0.01474
0.01474
0.01556
0.02048
0.02539
0.02539
0.02457
0.01966
0.01966
0.01474
0.01474
0.01474
0.01474
0.01474
0.01474
0.01474
0.01474
0.01474
0.01474
0.01474
0.01474
0.01556
0.01966
0.01966
0.01474
0.01474
0.01474
0.01474
0.01474
0.00983
0.00491
-0.00491
-0.00491
-0.00491
-0.00491
-0.00983
-0.00983
-0.01474
-0.01474
-0.01966
-0.01966
-0.01966
-0.01966
-0.01966
-0.01966
-0.01966
-0.01474
-0.01474
-0.01474
-0.01966
-0.01474
-0.01474
-0.00983
-0.01474
-0.01474
-0.01474
-0.01474
-0.00983
-0.00491
-0.00491
-0.00491
-0.00491
-0.00491
-0.00491
-0.00491
-0.00491
-0.00491
-0.00983
-0.01474
-0.01966
-0.01966
-0.01966
-0.01966
-0.02539
-0.02539
-0.02539
-0.03031
-0.03031
-0.03522
-0.04014
-0.04014
-0.04505
-0.04997
-0.04997
-0.04997
-0.04997
-0.05488
-0.05488
-0.05488
-0.05980
-0.05980
-0.06471
-0.06471
-0.06471
-0.06471
-0.06471
-0.05980
-0.04997
-0.03031
-0.01474
-0.00491
0.01474
0.02539
0.03522
0.03522
0.03031
0.03031
0.03031
0.03522
0.03031
0.01474
-0.00491
-0.02457
-0.03522
-0.04997
-0.05980
-0.07454
-0.08028
-0.09011
-0.09502
-0.09994
-0.09994
-0.09994
-0.09994
-0.09994
-0.09994
-0.09994
-0.09994
-0.10485
-0.10485
-0.10485
-0.10485
-0.09994
-0.09994
-0.09994
-0.09994
-0.09994
-0.09994
-0.09994
-0.09994
-0.09994
-0.09994
-0.09994
-0.09994
-0.09994
-0.09502
-0.09502
-0.09011
-0.08519
-0.07045
-0.04014
-0.00082
0.04915
0.10895
0.17858
0.26295
0.34814
0.37927
0.32602
0.19742
0.00410
-0.19086
-0.37108
-0.49723
-0.57341
-0.61437
-0.63484
-0.61519
-0.56112
-0.47757
-0.38746
-0.28752
-0.19742
-0.13680
-0.09584
-0.07045
-0.05570
-0.04505
-0.03522
-0.03031
-0.03031
-0.03031
-0.02539
-0.02048
-0.01966
-0.01556
-0.01474
-0.00983
-0.00983
-0.00983
-0.00491
-0.00491
-0.00491
-0.00491
-0.00491
-0.00491
-0.00491
-0.00491
-0.00491
-0.00491
-0.00491
-0.00491
-0.00491
-0.00491
-0.00491
-0.00491
-0.00491
-0.00491
0.00000
0.00000
0.00000
0.00491
0.00491
0.00491
0.00491
0.00491
0.00983
0.00983
0.01474
0.01474
0.01474
0.00983
0.00983
0.00983
0.01474
0.01474
0.01966
0.01966
0.01966
0.02457
0.02539
0.02539
0.02539
0.02539
0.02539
0.02949
0.03031
0.02539
0.02539
0.02048
0.01966
0.01556
0.01474
0.01474
0.01474
0.01474
0.01966
0.01966
0.01966
0.01966
0.01966
0.01966
0.01966
0.01966
0.01556
0.01474
0.01474
0.01474
0.01474
0.01474
0.01474
0.01474
0.01474
0.01474
0.01474
0.01474
0.01474
0.01474
0.01474
0.01474
0.01474
0.01474
0.01474
0.01474
0.01474
0.01474
0.01474
0.01474
0.01474
0.01474
0.01474
0.01474
0.01474
0.01474
0.01474
0.01474
0.01474
0.01474
0.01065
0.00573
0.00000
-0.00491
-0.00491
-0.00983
-0.00983
-0.01474
-0.01966
-0.01966
-0.02457
-0.02949
-0.03031
-0.03031
-0.03031
-0.03031
-0.03031
-0.03031
-0.03031
-0.03031
-0.03440
-0.03522
-0.03522
-0.03031
-0.03031
-0.03031
-0.03031
-0.03440
-0.03031
-0.03031
-0.03031
-0.03031
-0.03031
-0.03031
-0.03440
-0.03522
-0.03522
-0.03522
-0.03031
-0.03440
-0.03932
-0.04014
-0.04014
-0.04014
-0.04014
-0.04014
-0.04014
-0.04423
-0.04505
-0.04505
-0.04505
-0.04505
-0.04505
-0.04505
-0.04915
-0.05488
-0.05488
-0.05488
-0.05488
-0.05488
-0.05488
-0.05488
-0.05488
-0.05488
-0.05488
-0.05488
-0.05488
-0.05488
-0.05079
-0.04587
-0.03604
-0.03031
-0.02130
-0.01065
-0.00573
0.00819
0.02376
0.03850
0.05325
0.06389
0.06963
0.06553
0.06471
0.05570
0.05079
0.04096
0.02621
0.00737
-0.00819
-0.02785
-0.04342
-0.05406
-0.06799
-0.07454
-0.07946
-0.08028
-0.08028
-0.08437
-0.08519
-0.08519
-0.08519
-0.08519
-0.08519
-0.08519
-0.08929
-0.09011
-0.09011
-0.09011
-0.09011
-0.09011
-0.09011
-0.09011
-0.08519
-0.08519
-0.08929
-0.09011
-0.09011
-0.09011
-0.09011
-0.09011
-0.09011
-0.09011
-0.08601
-0.08028
-0.07536
-0.05325
-0.02376
0.01065
0.04997
0.10321
0.17120
0.25394
0.31783
0.32029
0.23264
0.07618
-0.10239
-0.26868
-0.40794
-0.49477
-0.55293
-0.58651
-0.58570
-0.55047
-0.48002
-0.38336
-0.27851
-0.19086
-0.13188
-0.08601
-0.05816
-0.04178
-0.03113
-0.02539
-0.02048
-0.01556
-0.01065
-0.00573
-0.00491
-0.00491
-0.00491
-0.00491
-0.00491
-0.00491
-0.00082
0.00000
0.00410
0.00491
0.00901
0.00983
0.00983
0.01393
0.01474
0.01474
0.01474
0.01474
0.01474
0.01474
0.01966
0.01966
0.01966
0.01966
0.01966
0.01966
0.01966
0.01966
0.01966
0.01966
0.01966
0.01966
0.01966
0.01966
0.01966
0.02457
0.02539
0.02048
0.01966
0.02457
0.02539
0.02539
0.02539
0.02539
0.02539
0.02949
0.03031
0.03031
0.03031
0.02539
0.02539
0.02949
0.03031
0.03031
0.03031
0.03031
0.03440
0.03522
0.03522
0.03522
0.03522
0.03522
0.03113
0.03031
0.03031
0.02621
0.02539
0.02949
0.03031
0.03031
0.03031
0.03031
0.03031
0.03031
0.03031
0.03031
0.03031
0.03031
0.03031
0.02621
0.02539
0.02539
0.02539
0.02048
0.01966
0.01966
0.01966
0.01556
0.01474
0.01474
0.01474
0.01474
0.01474
0.01474
0.01474
0.01474
0.01474
0.01474
0.01065
0.00983
0.00573
0.00491
0.00491
0.00082
-0.00410
-0.00491
-0.00491
-0.00901
-0.00983
-0.01393
-0.01474
-0.01884
-0.01966
-0.01966
-0.01966
-0.01966
-0.01966
-0.01966
-0.02376
-0.02539
-0.02130
-0.01966
-0.01966
-0.01966
-0.01966
-0.01966
-0.01966
-0.01556
-0.01065
-0.00983
-0.00573
-0.00491
-0.00491
-0.00491
-0.00082
0.00000
0.00000
0.00410
0.00491
0.00082
-0.00410
-0.00491
-0.00491
-0.00491
-0.00491
-0.00491
-0.00491
-0.00491
-0.00901
-0.00983
-0.01393
-0.01474
-0.01474
-0.01884
-0.02376
-0.02539
-0.02867
-0.03031
-0.03031
-0.03031
-0.03031
-0.03031
-0.03031
-0.03359
-0.03522
-0.03522
-0.03522
-0.03522
-0.03522
-0.03522
-0.03932
-0.04014
-0.03604
-0.03522
-0.03113
-0.01802
-0.00737
-0.00491
0.00328
0.00901
0.01393
0.02703
0.04178
0.06062
0.07290
0.07864
0.07618
0.07536
0.07127
0.06635
0.05734
0.04342
0.02785
0.01311
-0.00573
-0.02539
-0.03768
-0.05161
-0.05898
-0.06799
-0.07372
-0.07536
-0.07536
-0.07127
-0.07372
-0.07864
-0.08028
-0.08355
-0.08519
-0.08519
-0.08519
-0.08929
-0.09011
-0.09011
-0.09011
-0.09011
-0.09011
-0.09011
-0.08601
-0.08519
-0.08847
-0.09011
-0.09011
-0.09011
-0.09011
-0.09011
-0.09011
-0.09011
-0.08601
-0.08110
-0.06881
-0.04587
-0.01720
0.01311
0.05488
0.09994
0.16383
0.23755
0.28998
0.27687
0.17776
0.01556
-0.15892
-0.32275
-0.44808
-0.53245
-0.58406
-0.61027
-0.60699
-0.56686
-0.49395
-0.39483
-0.28998
-0.20397
-0.13926
-0.09830
-0.07127
-0.05734
-0.04342
-0.03604
-0.03113
-0.02621
-0.02539
-0.02130
-0.01638
-0.01474
-0.01474
-0.01147
-0.00983
-0.00983
-0.00655
-0.00491
-0.00491
-0.00491
-0.00491
-0.00491
-0.00164
0.00000
0.00000
0.00000
0.00000
0.00000
0.00410
0.00901
0.00983
0.01393
0.01474
0.01474
0.01474
0.01474
0.01474
0.01474
0.01884
0.01966
0.01638
0.01474
0.01474
0.01884
0.01966
0.01966
0.01966
0.01966
0.01966
0.01966
0.01638
0.01884
0.01966
0.02376
0.02539
0.02539
0.02539
0.02130
0.01966
0.02376
0.02539
0.02130
0.02376
0.02539
0.02539
0.02867
0.03359
0.03522
0.03850
0.04014
0.04014
0.04014
0.04014
0.03604
0.03522
0.03522
0.03850
0.04014
0.04014
0.04014
0.04014
0.04014
0.03604
0.03850
0.03604
0.03522
0.03522
0.03522
0.03522
0.03522
0.03850
0.04014
0.04014
0.04014
0.04014
0.04014
0.04014
0.04014
0.03604
0.03522
0.03522
0.03522
0.03522
0.03522
0.03522
0.03522
0.03113
0.03031
0.02621
0.02867
0.03031
0.03031
0.02621
0.02130
0.01638
0.01474
0.01147
0.00655
0.00164
0.00000
0.00000
0.00000
-0.00328
-0.00491
-0.01229
-0.01884
-0.01966
-0.02376
-0.02539
-0.02867
-0.03031
-0.03031
-0.03031
-0.03031
-0.03031
-0.03031
-0.03031
-0.03031
-0.03031
-0.03031
-0.03031
-0.03031
-0.03031
-0.03031
-0.03031
-0.03031
-0.03031
-0.03031
-0.03031
-0.03031
-0.03031
-0.03031
-0.03031
-0.03359
-0.03522
-0.03522
-0.03850
-0.04014
-0.04014
-0.04014
-0.04342
-0.04833
-0.04997
-0.05325
-0.05488
-0.05488
-0.05816
-0.05980
-0.05980
-0.05980
-0.06307
-0.06471
-0.06144
-0.05980
-0.05980
-0.05652
-0.05161
-0.03932
-0.02457
-0.00983
0.00573
0.01720
0.02376
0.02867
0.03031
0.03031
0.03359
0.03850
0.03277
0.01638
0.00000
-0.01556
-0.02703
-0.04014
-0.05161
-0.06553
-0.07372
-0.07864
-0.08028
-0.08355
-0.08519
-0.08847
-0.09011
-0.09011
-0.09011
-0.09011
-0.09011
-0.09011
-0.09011
-0.09011
-0.09011
-0.08683
-0.08519
-0.08519
-0.08519
-0.08519
-0.08519
-0.08519
-0.08519
-0.08519
-0.08519
-0.08519
-0.08519
-0.08519
-0.08192
-0.08028
-0.07700
-0.07127
-0.05980
-0.03850
-0.00328
0.03359
0.07536
0.13352
0.20479
0.28998
0.36043
0.36370
0.27524
0.11141
-0.08028
-0.25803
-0.40466
-0.50624
-0.56849
-0.60454
-0.61519
-0.58488
-0.52016
-0.42842
-0.32520
-0.23346
-0.16547
-0.11550
-0.08028
-0.05980
-0.04833
-0.03850
-0.03195
-0.03031
-0.02703
-0.02212
-0.01966
-0.01638
-0.01474
-0.01474
-0.01474
-0.01474
-0.01474
-0.01147
-0.00983
-0.00983
-0.00983
-0.00983
-0.00983
-0.00983
-0.00655
-0.00491
-0.00491
-0.00164
0.00000
0.00328
0.00819
0.00983
0.00983
0.00983
0.00983
0.01311
0.01474
0.01474
0.01474
0.01474
0.01474
0.01474
0.01474
0.01474
0.01474
0.01474
0.01474
0.01474
0.01802
0.01966
0.01966
0.02294
0.02539
0.02539
0.02539
0.02785
0.03031
0.03031
0.03031
0.02703
0.02539
0.02785
0.03031
0.03359
0.03522
0.03522
0.03522
0.03522
0.03850
0.04014
0.03686
0.03850
0.04014
0.04014
0.04014
0.04014
0.04014
0.04014
0.04014
0.04014
0.04014
0.04014
0.04014
0.04014
0.04014
0.04014
0.04014
0.03686
0.03522
0.03522
0.03522
0.03522
0.03522
0.03522
0.03522
0.03522
0.03522
0.03522
0.03522
0.03522
0.03522
0.03522
0.03195
0.03031
0.03031
0.03031
0.02703
0.02539
0.02785
0.03031
0.02703
0.02539
0.02212
0.01966
0.01720
0.01474
0.01474
0.01229
0.00655
0.00164
-0.00328
-0.00491
-0.00819
-0.01311
-0.01802
-0.01966
-0.02294
-0.02539
-0.02785
-0.03031
-0.03031
-0.03031
-0.03031
-0.03031
-0.03031
-0.03031
-0.03031
-0.03031
-0.03031
-0.03031
-0.03031
-0.03031
-0.03031
-0.03031
-0.02703
-0.02539
-0.02539
-0.02539
-0.02539
-0.02539
-0.02539
-0.02539
-0.02539
-0.02539
-0.02785
-0.03031
-0.03031
-0.03031
-0.03031
-0.03031
-0.03031
-0.03277
-0.03522
-0.03522
-0.03768
-0.04014
-0.04260
-0.04505
-0.04505
-0.04833
-0.04997
-0.04997
-0.04997
-0.04997
-0.04997
-0.04997
-0.05325
-0.05488
-0.05488
-0.05488
-0.05488
-0.05488
-0.05488
-0.05243
-0.04669
-0.04178
-0.03440
-0.02703
-0.02212
-0.01393
-0.00737
0.00082
0.01393
0.03195
0.04915
0.06062
0.06799
0.06717
0.06471
0.06226
0.05406
0.04423
0.03440
0.02130
0.00328
-0.01638
-0.03359
-0.04833
-0.05816
-0.06881
-0.07782
-0.08028
-0.08273
-0.08765
-0.09011
-0.09011
-0.09011
-0.09011
-0.09256
-0.09502
-0.09502
-0.09502
-0.09502
-0.09502
-0.09502
-0.09175
-0.09011
-0.09011
-0.09011
-0.09011
-0.09011
-0.09011
-0.08683
-0.08519
-0.08519
-0.08519
-0.08192
-0.08028
-0.08028
-0.08028
-0.07454
-0.05898
-0.03277
0.00000
0.03195
0.07290
0.13188
0.20479
0.27933
0.31292
0.27278
0.15564
-0.00819
-0.18021
-0.33340
-0.44808
-0.52344
-0.56931
-0.58488
-0.56276
-0.50624
-0.42514
-0.32930
-0.23510
-0.15892
-0.10813
-0.07618
-0.05652
-0.04423
-0.03440
-0.03031
-0.02703
-0.02539
-0.02539
-0.02212
-0.01966
-0.01720
-0.01474
-0.01229
-0.00737
-0.00491
-0.00491
-0.00491
-0.00491
-0.00491
-0.00491
-0.00491
-0.00246
0.00000
0.00000
0.00000
0.00246
0.00491
0.00246
0.00246
0.00491
0.00737
0.00983
0.00983
0.00983
0.00983
0.00983
0.00983
0.00983
0.00983
0.00983
0.00983
0.00983
0.00983
0.00983
0.00983
0.01229
0.01474
0.01474
0.01474
0.01474
0.01474
0.01474
0.01474
0.01474
0.01474
0.01802
0.01966
0.01966
0.01966
0.01966
0.01966
0.01966
0.01966
0.01966
0.01966
0.01966
0.01966
0.01966
0.02294
0.02212
0.01966
0.01966
0.01966
0.01966
0.01966
0.01966
0.01966
0.01966
0.01966
0.02294
0.02212
0.01720
0.01474
0.01474
0.01474
0.01474
0.01474
0.01474
0.01474
0.01474
0.01474
0.01474
0.01474
0.01474
0.01474
0.01474
0.01229
0.00983
0.00983
0.00983
0.00983
0.00983
0.00983
0.00737
0.00491
0.00491
0.00246
0.00000
0.00000
-0.00246
-0.00491
-0.00491
-0.00737
-0.00983
-0.01229
-0.01474
-0.01720
-0.01966
-0.02294
-0.02539
-0.02539
-0.02539
-0.02539
-0.02539
-0.02539
-0.02539
-0.02539
-0.02539
-0.02539
-0.02539
-0.02539
-0.02212
-0.01966
-0.01966
-0.01720
-0.01474
-0.01474
-0.01474
-0.01229
-0.00983
-0.00983
-0.00983
-0.00983
-0.00983
-0.00983
-0.00983
-0.00983
-0.00983
-0.00983
-0.00983
-0.01229
-0.01720
-0.01966
-0.02212
-0.02785
-0.03031
-0.03031
-0.03277
-0.03522
-0.03522
-0.03522
-0.03768
-0.04260
-0.04751
-0.04997
-0.05243
-0.05488
-0.05488
-0.05488
-0.05488
-0.05488
-0.05488
-0.05488
-0.05488
-0.05488
-0.05488
-0.05488
-0.05488
-0.05488
-0.05243
-0.04751
-0.04014
-0.03277
-0.02785
-0.02048
-0.00983
-0.00491
-0.00246
0.00491
0.01720
0.03195
0.04751
0.05980
0.06717
0.06963
0.06799
0.06471
0.06062
0.04997
0.03768
0.02294
0.00573
-0.01474
-0.02949
-0.04423
-0.05980
-0.06963
-0.07700
-0.08028
-0.08028
-0.08028
-0.08028
-0.08028
-0.08273
-0.08765
-0.09011
-0.09011
-0.09011
-0.09256
-0.09502
-0.09502
-0.09502
-0.09256
-0.09011
-0.09256
-0.09502
-0.09502
-0.09502
-0.09502
-0.09502
-0.09502
-0.09502
-0.09502
-0.09748
-0.09994
-0.09748
-0.09256
-0.08519
-0.07536
-0.05816
-0.02867
0.00410
0.03850
0.08273
0.13516
0.19660
0.25558
0.26868
0.20970
0.07946
-0.08929
-0.25558
-0.39483
-0.49395
-0.55293
-0.58897
-0.60290
-0.57996
-0.51852
-0.43006
-0.32766
-0.23428
-0.16055
-0.10895
-0.07618
-0.05325
-0.04014
-0.03031
-0.02294
-0.01966
-0.01966
-0.01802
-0.01311
-0.00983
-0.00983
-0.00983
-0.00983
-0.00983
-0.00983
-0.00983
-0.00819
-0.00491
-0.00491
-0.00491
-0.00491
-0.00491
-0.00491
-0.00491
-0.00491
-0.00491
-0.00491
-0.00491
-0.00491
-0.00491
-0.00491
-0.00737
-0.00819
-0.00491
-0.00491
-0.00491
-0.00246
0.00000
0.00000
0.00000
0.00246
0.00491
0.00491
0.00491
0.00491
0.00737
0.00983
0.00983
0.00983
0.00983
0.01229
0.01474
0.01474
0.01474
0.01474
0.01474
0.01474
0.01474
0.01474
0.01311
0.01229
0.01474
0.01474
0.01474
0.01474
0.01720
0.02212
0.02703
0.03031
0.03031
0.03031
0.02785
0.02539
0.02294
0.01966
0.01966
0.01966
0.01966
0.01966
0.01966
0.01966
0.01802
0.01474
0.01720
0.01966
0.01966
0.01802
0.01474
0.01474
0.01474
0.01474
0.01474
0.01474
0.01474
0.01474
0.01474
0.01474
0.01720
0.01802
0.01474
0.01474
0.01474
0.01474
0.01474
0.01474
0.01474
0.01311
0.00983
0.00983
0.00819
0.00328
-0.00164
-0.00491
-0.00491
-0.00737
-0.01229
-0.01720
-0.02212
-0.02539
-0.02539
-0.02539
-0.02294
-0.01966
-0.01966
-0.01966
-0.02212
-0.02703
-0.03031
-0.02785
-0.02539
-0.02539
-0.02539
-0.02703
-0.03031
-0.03031
-0.02785
-0.02294
-0.01966
-0.01966
-0.01802
-0.01474
-0.01474
-0.01474
-0.01720
-0.01966
-0.02212
-0.02703
-0.03031
-0.03031
-0.03031
-0.03031
-0.03031
-0.03031
-0.03031
-0.03031
-0.03031
-0.03031
-0.03195
-0.03686
-0.04178
-0.04505
-0.04505
-0.04505
-0.04669
-0.04997
-0.04997
-0.04833
-0.04505
-0.04669
-0.04997
-0.05161
-0.05488
-0.05488
-0.05652
-0.05980
-0.05980
-0.05980
-0.05980
-0.06226
-0.06471
-0.06307
-0.05816
-0.05325
-0.04587
-0.03604
-0.02621
-0.01638
-0.00819
0.00082
0.01556
0.03031
0.04587
0.05898
0.06307
0.05816
0.05325
0.04833
0.04342
0.03440
0.02130
0.00737
-0.01229
-0.02867
-0.04260
-0.05898
-0.07045
-0.08192
-0.08683
-0.09338
-0.09994
-0.09994
-0.09994
-0.09994
-0.09994
-0.09994
-0.09994
-0.09994
-0.09994
-0.09994
-0.09994
-0.09994
-0.09994
-0.09994
-0.09994
-0.09994
-0.09994
-0.09994
-0.09994
-0.09994
-0.09994
-0.09830
-0.09502
-0.09338
-0.09011
-0.09011
-0.08847
-0.08519
-0.08355
-0.07454
-0.05406
-0.02457
0.01065
0.05570
0.10977
0.18103
0.26377
0.34568
0.37435
0.30964
0.16055
-0.02621
-0.21298
-0.37517
-0.48822
-0.55703
-0.59880
-0.61355
-0.59471
-0.53737
-0.45054
-0.35224
-0.25721
-0.17448
-0.12123
-0.08601
-0.06471
-0.05161
-0.04178
-0.03359
-0.02867
-0.02294
-0.01966
-0.01966
-0.01802
-0.01474
-0.01311
-0.00983
-0.00983
-0.00983
-0.00983
-0.00819
-0.00491
-0.00491
-0.00491
-0.00491
-0.00491
-0.00491
-0.00491
-0.00491
-0.00328
0.00000
0.00164
0.00491
0.00491
0.00655
0.00983
0.00983
0.00983
0.00983
0.00983
0.00983
0.00983
0.00983
0.00983
0.01147
0.01474
0.01474
0.01474
0.01474
0.01474
0.01474
0.01474
0.01474
0.01474
0.01474
0.01474
0.01474
0.01638
0.01966
0.01966
0.01966
0.01966
0.01966
0.01966
0.01966
0.02130
0.02539
0.02376
0.01966
0.01966
0.02130
0.02539
0.02539
0.02539
0.02539
0.02539
0.02539
0.02539
0.02539
0.02539
0.02539
0.02539
0.02621
0.03031
0.02867
0.02539
0.02376
0.01966
0.02130
0.02539
0.02539
0.02539
0.02539
0.02539
0.02539
0.02539
0.02539
0.02539
0.02376
0.01966
0.01966
0.01966
0.01966
0.01966
0.02130
0.02539
0.02539
0.02621
0.03031
0.03031
0.03031
0.03031
0.03031
0.03031
0.03031
0.02867
0.02539
0.02539
0.02376
0.01884
0.01474
0.01311
0.00819
0.00491
0.00328
-0.00164
-0.00491
-0.00491
-0.00491
-0.00491
-0.00655
-0.01147
-0.01638
-0.01966
-0.02130
-0.02539
-0.02539
-0.02539
-0.02621
-0.03031
-0.03031
-0.03031
-0.03031
-0.03031
-0.03113
-0.03522
-0.03522
-0.03604
-0.04014
-0.04014
-0.04014
-0.04014
-0.04178
-0.04505
-0.04505
-0.04505
-0.04505
-0.04505
-0.04505
-0.04505
-0.04505
-0.04505
-0.04505
-0.04669
-0.04997
-0.05161
-0.05488
-0.05488
-0.05488
-0.05488
-0.05488
-0.05488
-0.05488
-0.05488
-0.05488
-0.05488
-0.05488
-0.05488
-0.05488
-0.05488
-0.05488
-0.05488
-0.05488
-0.05488
-0.05488
-0.05243
-0.04260
-0.03359
-0.02867
-0.02212
-0.01393
-0.00737
0.00410
0.02048
0.03768
0.04915
0.06144
0.06389
0.05898
0.05406
0.04751
0.03850
0.03113
0.01720
0.00573
-0.01147
-0.03359
-0.04915
-0.06226
-0.07290
-0.08110
-0.08601
-0.09011
-0.09011
-0.09093
-0.09502
-0.09502
-0.09502
-0.09502
-0.09502
-0.09502
-0.09502
-0.09502
-0.09502
-0.09502
-0.09338
-0.09011
-0.09011
-0.09011
-0.09011
-0.09011
-0.09011
-0.09011
-0.09011
-0.09011
-0.09011
-0.09011
-0.09011
-0.08847
-0.08355
-0.07864
-0.07127
-0.05488
-0.03359
-0.00737
0.02621
0.07372
0.13352
0.21216
0.29571
0.33913
0.29326
0.16711
-0.00983
-0.18922
-0.34323
-0.46446
-0.53737
-0.58242
-0.60536
-0.59389
-0.54064
-0.45709
-0.36125
-0.26377
-0.18021
-0.12451
-0.08437
-0.06144
-0.04751
-0.03768
-0.03031
-0.03031
-0.02867
-0.02376
-0.01966
-0.01884
-0.01474
-0.01393
-0.00983
-0.00983
-0.00983
-0.00983
-0.00983
-0.00901
-0.00491
-0.00491
-0.00491
-0.00491
-0.00410
0.00000
0.00000
0.00000
0.00000
0.00082
0.00573
0.00983
0.01147
0.01474
0.01474
0.01474
0.01474
0.01474
0.01474
0.01393
0.01147
0.01474
0.01474
0.01474
0.01474
0.01474
0.01393
0.01147
0.01474
0.01474
0.01474
0.01474
0.01474
0.01474
0.01474
0.01474
0.01474
0.01638
0.01884
0.01474
0.01474
0.01474
0.01474
0.01474
0.01638
0.01966
0.02130
0.02539
0.02621
0.03031
0.03031
0.03031
0.03031
0.03031
0.02867
0.02539
0.02539
0.02539
0.02539
0.02539
0.02539
0.02539
0.02539
0.02539
0.02376
0.01966
0.01966
0.02130
0.02539
0.02376
0.01966
0.01966
0.01966
0.01884
0.01474
0.01474
0.01474
0.01474
0.01474
0.01474
0.01474
0.01474
0.01474
0.01474
0.01638
0.01966
0.01966
0.01884
0.01474
0.01474
0.01474
0.01474
0.01393
0.01065
0.01474
0.01393
0.00901
0.00410
-0.00082
-0.00491
-0.00573
-0.01065
-0.01474
-0.01556
-0.01966
-0.01966
-0.01966
-0.02130
-0.02621
-0.03031
-0.03031
-0.03031
-0.03031
-0.03031
-0.03031
-0.03031
-0.03031
-0.03031
-0.03031
-0.03031
-0.03031
-0.03031
-0.03031
-0.03031
-0.03113
-0.03522
-0.03522
-0.03522
-0.03522
-0.03522
-0.03440
-0.03031
-0.03031
-0.03031
-0.03031
-0.03113
-0.03522
-0.03604
-0.04014
-0.04014
-0.04096
-0.04587
-0.05079
-0.05488
-0.05488
-0.05488
-0.05488
-0.05488
-0.05488
-0.05488
-0.05488
-0.05488
-0.05570
-0.05980
-0.05980
-0.05898
-0.05488
-0.05488
-0.05488
-0.05488
-0.05570
-0.05980
-0.05980
-0.06062
-0.06389
-0.05898
-0.05325
-0.04260
-0.03031
-0.02867
-0.01802
-0.00819
0.00246
0.01720
0.03195
0.04260
0.05570
0.05980
0.05898
0.05325
0.04423
0.03850
0.02785
0.01147
-0.00819
-0.02703
-0.04260
-0.05652
-0.06717
-0.08110
-0.08601
-0.09011
-0.09011
-0.09093
-0.09584
-0.09994
-0.09994
-0.09994
-0.09912
-0.09502
-0.09584
-0.09994
-0.09994
-0.09912
-0.09502
-0.09584
-0.09994
-0.09994
-0.09994
-0.09994
-0.09994
-0.09994
-0.09994
-0.09994
-0.09994
-0.09994
-0.09994
-0.09994
-0.09994
-0.09912
-0.09420
-0.08847
-0.07782
-0.05980
-0.02539
0.01229
0.06389
0.13025
0.20807
0.30145
0.37026
0.35715
0.25148
0.07700
-0.12042
-0.30063
-0.44398
-0.53818
-0.59389
-0.62010
-0.61600
-0.58160
-0.51279
-0.42105
-0.31619
-0.22035
-0.15400
-0.11141
-0.08273
-0.06389
-0.05406
-0.04423
-0.03932
-0.03522
-0.03522
-0.03440
-0.03031
-0.03031
-0.03031
-0.03031
-0.02949
-0.02539
-0.02539
-0.02539
-0.02457
-0.01966
-0.01966
-0.01474
-0.01474
-0.00901
-0.00491
-0.00491
-0.00491
-0.00491
-0.00410
0.00000
0.00000
0.00000
0.00000
0.00000
0.00000
0.00000
0.00000
0.00000
0.00000
0.00000
0.00000
0.00082
0.00491
0.00573
0.00983
0.00983
0.00983
0.01065
0.01474
0.00983
0.00983
0.01065
0.01474
0.01474
0.01474
0.01474
0.01556
0.01966
0.01966
0.01966
0.01966
0.01966
0.01966
0.01966
0.01966
0.01966
0.01966
0.02048
0.02539
0.02539
0.02539
0.03031
0.03522
0.03522
0.04014
0.03932
0.03522
0.03522
0.03522
0.03522
0.03522
0.03440
0.03031
0.03031
0.03031
0.03031
0.03031
0.03522
0.03440
0.03031
0.03031
0.03031
0.03031
0.03031
0.03031
0.03031
0.03031
0.03031
0.03031
0.03031
0.03522
0.03522
0.03522
0.03522
0.03522
0.03522
0.03522
0.03522
0.03522
0.03440
0.03031
0.03522
0.03440
0.03031
0.03031
0.03031
0.03031
0.02949
0.02457
0.01966
0.01966
0.01474
0.01474
0.00983
0.00983
0.00491
-0.00082
-0.00491
-0.00491
-0.00573
-0.01065
-0.01474
-0.01556
-0.01966
-0.02048
-0.02539
-0.02539
-0.02539
-0.02539
-0.03031
-0.03031
-0.03031
-0.03031
-0.03031
-0.03031
-0.03031
-0.03031
-0.03031
-0.03031
-0.03031
-0.03031
-0.03031
-0.03031
-0.03522
-0.03522
-0.03522
-0.03522
-0.04014
-0.04014
-0.04014
-0.04014
-0.04505
-0.04505
-0.04505
-0.04505
-0.04505
-0.04997
-0.05488
-0.05488
-0.05488
-0.05570
-0.05980
-0.05980
-0.05980
-0.05980
-0.06062
-0.06471
-0.06471
-0.05980
-0.05406
-0.03932
-0.02867
-0.00901
0.00082
0.01556
0.02539
0.03031
0.02949
0.02539
0.02539
0.03031
0.03440
0.02949
0.01393
-0.00573
-0.02048
-0.03113
-0.05079
-0.06062
-0.07536
-0.08028
-0.08519
-0.09011
-0.09011
-0.09011
-0.09502
-0.09011
-0.09502
-0.09502
-0.09502
-0.09502
-0.09011
-0.09011
-0.09502
-0.09502
-0.09502
-0.09502
-0.09502
-0.09502
-0.09502
-0.09502
-0.09011
-0.09011
-0.09011
-0.08519
-0.08519
-0.08519
-0.08028
-0.08028
-0.08028
-0.07946
-0.07454
-0.05406
-0.02867
0.00164
0.03686
0.08273
0.14335
0.22363
0.30636
0.34323
0.28998
0.14827
-0.03686
-0.21544
-0.36370
-0.47757
-0.55129
-0.59553
-0.61437
-0.59798
-0.54228
-0.45709
-0.35633
-0.25230
-0.16875
-0.11878
-0.08437
-0.05980
-0.04997
-0.04014
-0.03522
-0.03031
-0.03031
-0.03031
-0.02949
-0.02539
-0.02457
-0.01966
-0.01474
-0.01474
-0.01474
-0.01474
-0.01474
-0.01474
-0.00983
-0.00983
-0.00983
-0.00983
-0.00983
-0.00983
-0.00491
-0.00491
-0.00491
-0.00491
-0.00491
-0.00491
0.00000
-0.00491
-0.00491
-0.00491
-0.00491
-0.00491
-0.00491
0.00000
0.00000
0.00000
0.00000
0.00000
0.00000
0.00491
0.00491
0.00491
0.00491
0.00491
0.00983
0.00983
0.00983
0.00983
0.00983
0.00983
0.00983
0.01474
0.01474
0.01474
0.01474
0.01474
0.01474
0.01474
0.01474
0.01474
0.01474
0.01474
0.01474
0.01474
0.01966
0.01966
0.02539
0.02539
0.03031
0.03031
0.03522
0.03031
0.02539
0.02539
0.01966
0.01966
0.01966
0.01966
0.01966
0.01966
0.01966
0.01966
0.01474
0.01474
0.01474
0.01474
0.01474
0.01474
0.01474
0.01474
0.01474
0.00983
0.00983
0.00983
0.00983
0.00983
0.00983
0.00491
0.00491
0.00491
0.00983
0.00983
0.00983
0.00983
0.00983
0.00983
0.00983
0.00983
0.00491
0.00000
0.00000
0.00000
-0.00491
-0.00491
-0.00491
-0.00983
-0.01474
-0.01966
-0.02457
-0.02539
-0.02539
-0.02539
-0.03031
-0.03031
-0.03031
-0.03031
-0.03522
-0.04014
-0.04014
-0.04014
-0.04505
-0.04505
-0.04014
-0.04014
-0.03522
-0.03522
-0.03522
-0.03522
-0.03522
-0.03522
-0.03522
-0.03522
-0.03522
-0.04014
-0.04014
-0.04014
-0.04014
-0.04014
-0.04014
-0.04505
-0.04505
-0.04997
-0.04997
-0.04997
-0.04997
-0.04997
-0.04997
-0.05488
-0.05488
-0.05488
-0.05488
-0.05488
-0.05488
-0.05488
-0.05488
-0.05488
-0.05488
-0.05488
-0.05488
-0.05488
-0.05980
-0.05980
-0.05488
-0.05980
-0.05980
-0.06471
-0.06471
-0.06471
-0.06062
-0.05980
-0.05980
-0.05488
-0.04505
-0.03522
-0.03031
-0.02048
-0.01556
-0.00573
0.00491
0.01966
0.03932
0.04915
0.06389
0.06471
0.06471
0.06062
0.05079
0.04014
0.03031
0.01556
-0.00410
-0.02376
-0.03932
-0.05406
-0.06881
-0.07946
-0.08028
-0.08437
-0.09011
-0.09502
-0.09502
-0.09502
-0.09502
-0.09502
-0.09502
-0.09994
-0.09994
-0.09994
-0.09994
-0.09994
-0.09994
-0.09994
-0.09994
-0.09994
-0.09994
-0.09994
-0.09994
-0.09994
-0.09994
-0.09994
-0.09502
-0.09011
-0.09011
-0.09011
-0.09011
-0.08519
-0.08028
-0.08028
-0.05652
-0.02703
0.01229
0.05734
0.11141
0.18513
0.27360
0.36370
0.38828
0.32520
0.16629
-0.03522
-0.22691
-0.38828
-0.50214
-0.56604
-0.60699
-0.61928
-0.59716
-0.53491
-0.45135
-0.34814
-0.24738
-0.17038
-0.11878
-0.08273
-0.06144
-0.05079
-0.04096
-0.03522
-0.03031
-0.02539
-0.02539
-0.02048
-0.01556
-0.01474
-0.01065
-0.00983
-0.00983
-0.00983
-0.00983
-0.00983
-0.00573
-0.00491
-0.00491
-0.00491
-0.00082
0.00000
0.00000
0.00000
-0.00491
-0.00082
0.00000
0.00000
0.00000
0.00000
0.00000
0.00000
0.00000
0.00491
0.00491
0.00491
0.00491
0.00491
0.00983
0.00983
0.00573
0.00491
0.00491
0.00983
0.01474
0.01474
0.01474
0.01474
0.01065
0.00983
0.00983
0.00983
0.01474
0.01474
0.01474
0.01474
0.01474
0.01474
0.01474
0.01474
0.01474
0.01474
0.01474
0.01966
0.01966
0.01966
0.01966
0.01966
0.01966
0.01966
0.01966
0.01966
0.01966
0.01966
0.01556
0.01474
0.01966
0.01966
0.01966
0.01966
0.01966
0.01966
0.01966
0.01966
0.01966
0.01966
0.01966
0.01966
0.01966
0.01966
0.01966
0.01966
0.01966
0.02457
0.02539
0.02539
0.02539
0.02539
0.02539
0.02048
0.01966
0.01966
0.01966
0.02457
0.02048
0.01966
0.01966
0.01966
0.01966
0.01966
0.01966
0.01966
0.01966
0.01556
0.01474
0.01474
0.01065
0.00573
0.00082
-0.00410
-0.00491
-0.00491
-0.00901
-0.01474
-0.01474
-0.01966
-0.02457
-0.02539
-0.02539
-0.02949
-0.03031
-0.03031
-0.03031
-0.03031
-0.03031
-0.03031
-0.03440
-0.03522
-0.03522
-0.03932
-0.04014
-0.04014
-0.04014
-0.04014
-0.04014
-0.04423
-0.04915
-0.04997
-0.04997
-0.04997
-0.04997
-0.04997
-0.04997
-0.04997
-0.04997
-0.05406
-0.05488
-0.05488
-0.05488
-0.05488
-0.05488
-0.05488
-0.05488
-0.05488
-0.05488
-0.05488
-0.05898
-0.05980
-0.05980
-0.05980
-0.06389
-0.06471
-0.06471
-0.06471
-0.06471
-0.06062
-0.05161
-0.03686
-0.02621
-0.00819
0.00737
0.01393
0.01966
0.01966
0.01966
0.01966
0.02457
0.02949
0.02539
0.01229
-0.00246
-0.02212
-0.03768
-0.05243
-0.06799
-0.07864
-0.08437
-0.08929
-0.09420
-0.09502
-0.09502
-0.09912
-0.09994
-0.09994
-0.09994
-0.09994
-0.09994
-0.09994
-0.09584
-0.09502
-0.09502
-0.09502
-0.09502
-0.09502
-0.09502
-0.09093
-0.09011
-0.09011
-0.09011
-0.08601
-0.08519
-0.08519
-0.08519
-0.08519
-0.08519
-0.08110
-0.08028
-0.07618
-0.05816
-0.03440
-0.00491
0.02949
0.07209
0.12943
0.21052
0.29162
0.33422
0.28998
0.15974
-0.01802
-0.20315
-0.35879
-0.47593
-0.54883
-0.59307
-0.61273
-0.59880
-0.54965
-0.46610
-0.36370
-0.25885
-0.18267
-0.12861
-0.09093
-0.06881
-0.05652
-0.04669
-0.03686
-0.03113
-0.03031
-0.03031
-0.03031
-0.02621
-0.02539
-0.02130
-0.01966
-0.01966
-0.01966
-0.01556
-0.01474
-0.01474
-0.01474
-0.01474
-0.01065
-0.00983
-0.00983
-0.00573
-0.00491
-0.00491
-0.00491
-0.00491
-0.00082
0.00000
0.00000
0.00000
0.00410
0.00491
0.00491
0.00491
0.00901
0.00983
0.00573
0.00491
0.00491
0.00901
0.00983
0.00983
0.00983
0.00983
0.00983
0.00983
0.01393
0.01474
0.01474
0.01474
0.01474
0.01474
0.01474
0.01474
0.01884
0.02376
0.02130
0.01966
0.01966
0.01966
0.01966
0.01966
0.02376
0.02539
0.02867
0.03031
0.03031
0.03031
0.03031
0.03031
0.03031
0.03031
0.03031
0.02621
0.02539
0.02539
0.02539
0.02539
0.02130
0.02376
0.02539
0.02539
0.02539
0.02130
0.01638
0.01474
0.01474
0.01474
0.01474
0.01474
0.01474
0.01474
0.01474
0.01474
0.01147
0.00983
0.00983
0.00573
0.00491
0.00491
0.00901
0.01393
0.01474
0.01474
0.01474
0.01474
0.01147
0.00573
0.00491
0.00491
0.00491
0.00082
0.00000
-0.00410
-0.00491
-0.00901
-0.01393
-0.01474
-0.01884
-0.02376
-0.02539
-0.02867
-0.03031
-0.03031
-0.03031
-0.03359
-0.03522
-0.03522
-0.03850
-0.04014
-0.04014
-0.03604
-0.03522
-0.03850
-0.04014
-0.03604
-0.03113
-0.03031
-0.03031
-0.03031
-0.03031
-0.03031
-0.03031
-0.03031
-0.03031
-0.03031
-0.03031
-0.03031
-0.03031
-0.03031
-0.03031
-0.03031
-0.03359
-0.03522
-0.03850
-0.04014
-0.04342
-0.04915
-0.04997
-0.04997
-0.04997
-0.04997
-0.05406
-0.05488
-0.05488
-0.05488
-0.05488
-0.05898
-0.05980
-0.05980
-0.05980
-0.05652
-0.05488
-0.05488
-0.05488
-0.05488
-0.05488
-0.05488
-0.05898
-0.05980
-0.05652
-0.05161
-0.04260
-0.03277
-0.03031
-0.01884
-0.00737
0.00655
0.02130
0.03604
0.04751
0.05734
0.05980
0.05652
0.05161
0.04587
0.04096
0.03277
0.01884
0.00410
-0.01474
-0.03113
-0.04997
-0.06226
-0.07209
-0.07864
-0.08765
-0.09338
-0.09830
-0.09994
-0.09994
-0.09994
-0.09994
-0.09994
-0.09994
-0.09994
-0.09994
-0.09994
-0.09994
-0.10403
-0.10158
-0.09994
-0.09994
-0.09994
-0.09994
-0.09994
-0.09994
-0.09994
-0.09666
-0.09502
-0.09502
-0.09830
-0.09666
-0.09502
-0.08765
-0.08110
-0.08028
-0.06553
-0.04178
-0.01311
0.02785
0.08028
0.14581
0.23346
0.32520
0.37190
0.32602
0.19660
0.02130
-0.16383
-0.33422
-0.46282
-0.54556
-0.59389
-0.61600
-0.60536
-0.55703
-0.47921
-0.38664
-0.29162
-0.20397
-0.14089
-0.09994
-0.07209
-0.05816
-0.04751
-0.04178
-0.03604
-0.03113
-0.03031
-0.03031
-0.03031
-0.03031
-0.02621
-0.02539
-0.02130
-0.01638
-0.01474
-0.01474
-0.01474
-0.01474
-0.01147
-0.01393
-0.01474
-0.01147
-0.00655
-0.00491
-0.00819
-0.00983
-0.00983
-0.00983
-0.00983
-0.00655
-0.00491
-0.00491
-0.00491
-0.00491
-0.00491
-0.00164
0.00328
0.00491
0.00491
0.00491
0.00491
0.00491
0.00819
0.00983
0.01311
0.01474
0.01147
0.00983
0.00983
0.00983
0.00655
0.00491
0.00819
0.00983
0.01311
0.01474
0.01474
0.01474
0.01884
0.02376
0.02539
0.02539
0.02539
0.02539
0.02539
0.02539
0.02539
0.02539
0.02539
0.02539
0.02539
0.02539
0.02539
0.02130
0.01966
0.02376
0.02539
0.02539
0.02539
0.02539
0.02539
0.02539
0.02539
0.02539
0.02539
0.02539
0.02130
0.01638
0.01474
0.01474
0.01474
0.01474
0.01474
0.01474
0.01474
0.01802
0.01966
0.02376
0.02867
0.03359
0.03522
0.03522
0.03522
0.03522
0.03195
0.03359
0.03522
0.03522
0.03522
0.03522
0.03522
0.03195
0.03031
0.03031
0.02703
0.02539
0.02130
0.01966
0.01638
0.01474
0.00819
0.00164
-0.00328
-0.00491
-0.00491
-0.00491
-0.00491
-0.00491
-0.00819
-0.01311
-0.01802
-0.01966
-0.01966
-0.02294
-0.02539
-0.02539
-0.02539
-0.02539
-0.02539
-0.02867
-0.03031
-0.03031
-0.03031
-0.03031
-0.03031
-0.03359
-0.03522
-0.03522
-0.03522
-0.03522
-0.03522
-0.03522
-0.03522
-0.03522
-0.03522
-0.03522
-0.03522
-0.03850
-0.04014
-0.04342
-0.04505
-0.04505
-0.04833
-0.05325
-0.05488
-0.05488
-0.05488
-0.05488
-0.05488
-0.05488
-0.05488
-0.05488
-0.05488
-0.05488
-0.05488
-0.05161
-0.04342
-0.03031
-0.01556
0.00000
0.01147
0.02457
0.03359
0.03522
0.03195
0.03031
0.03359
0.03522
0.02867
0.01556
0.00000
-0.01802
-0.03113
-0.04423
-0.05652
-0.06635
-0.07290
-0.07782
-0.08028
-0.08028
-0.08355
-0.08519
-0.08519
-0.08519
-0.08519
-0.08847
-0.09011
-0.08683
-0.08519
-0.08519
-0.08519
-0.08519
-0.08847
-0.08683
-0.08519
-0.08192
-0.08028
-0.08028
-0.08028
-0.08028
-0.08028
-0.08028
-0.08028
-0.08028
-0.07700
-0.07536
-0.07209
-0.06717
-0.05898
-0.03604
-0.00328
0.03195
0.07618
0.13270
0.19824
0.27769
0.33831
0.32684
0.22936
0.06471
-0.11960
-0.28916
-0.42432
-0.51607
-0.57259
-0.60208
-0.60044
-0.56440
-0.49231
-0.39811
-0.29244
-0.20069
-0.13598
-0.09338
-0.06471
-0.04587
-0.03359
-0.03031
-0.02703
-0.02212
-0.01966
-0.01966
-0.01720
-0.01229
-0.00983
-0.00983
-0.00983
-0.00655
-0.00491
-0.00491
-0.00491
-0.00491
-0.00491
-0.00491
-0.00491
-0.00491
-0.00491
-0.00491
-0.00491
-0.00491
-0.00491
-0.00491
-0.00491
-0.00491
-0.00164
0.00000
0.00000
0.00328
0.00491
0.00491
0.00491
0.00491
0.00164
0.00000
0.00000
0.00000
0.00328
0.00491
0.00491
0.00819
0.00983
0.01311
0.01474
0.01229
0.00983
0.00983
0.00737
0.00491
0.00819
0.00983
0.00983
0.00983
0.00983
0.01311
0.01474
0.01474
0.01474
0.01474
0.01474
0.01474
0.01474
0.01474
0.01474
0.01474
0.01474
0.01474
0.01474
0.01474
0.01474
0.01474
0.01474
0.01474
0.01229
0.00983
0.00983
0.00983
0.00983
0.00983
0.00983
0.00983
0.01311
0.01229
0.00983
0.00983
0.00983
0.01311
0.01474
0.01229
0.00983
0.00737
0.00491
0.00491
0.00491
0.00491
0.00491
0.00491
0.00491
0.00491
0.00491
0.00491
0.00491
0.00491
0.00491
0.00246
-0.00246
-0.00491
-0.00491
-0.00491
-0.00819
-0.01311
-0.01802
-0.01966
-0.02294
-0.02785
-0.03031
-0.03031
-0.03031
-0.03031
-0.03031
-0.03031
-0.03031
-0.03031
-0.03031
-0.03031
-0.03031
-0.03031
-0.03031
-0.03031
-0.03031
-0.03031
-0.03031
-0.03031
-0.03031
-0.03031
-0.03031
-0.03031
-0.03031
-0.03031
-0.03031
-0.03031
-0.03031
-0.03031
-0.03031
-0.03031
-0.03277
-0.03522
-0.03522
-0.03522
-0.03522
-0.03768
-0.04260
-0.04751
-0.05243
-0.05488
-0.05488
-0.05488
-0.05488
-0.05488
-0.05243
-0.05243
-0.05488
-0.05488
-0.05488
-0.05488
-0.05488
-0.05734
-0.06307
-0.06226
-0.05980
-0.05734
-0.05734
-0.05980
-0.05980
-0.05980
-0.05980
-0.06307
-0.06471
-0.06471
-0.06226
-0.05734
-0.04997
-0.04260
-0.03440
-0.02703
-0.01966
-0.00983
0.00328
0.01802
0.03277
0.04833
0.05734
0.05734
0.05488
0.05243
0.04505
0.03768
0.02703
0.01229
-0.00573
-0.02294
-0.04096
-0.05570
-0.06553
-0.07536
-0.08273
-0.08765
-0.09011
-0.09011
-0.09011
-0.09256
-0.09748
-0.09994
-0.09994
-0.09994
-0.09994
-0.10239
-0.10239
-0.09994
-0.09994
-0.09994
-0.09994
-0.09994
-0.09994
-0.09994
-0.09994
-0.09994
-0.09994
-0.09994
-0.09994
-0.09748
-0.09256
-0.09011
-0.09011
-0.08765
-0.08273
-0.07209
-0.05243
-0.02212
0.01556
0.06062
0.11632
0.18595
0.26377
0.31783
0.30391
0.20315
0.04260
-0.13270
-0.29490
-0.43169
-0.52344
-0.57587
-0.60536
-0.60454
-0.56931
-0.49887
-0.40384
-0.30391
-0.21462
-0.14991
-0.10485
-0.07209
-0.05488
-0.04260
-0.03277
-0.03031
-0.02785
-0.02212
-0.01966
-0.01966
-0.02212
-0.02212
-0.01966
-0.01966
-0.01720
-0.01474
-0.01474
-0.01474
-0.01229
-0.00737
-0.00246
0.00000
0.00000
0.00000
0.00246
0.00491
0.00491
0.00491
0.00737
0.00983
0.00983
0.00983
0.01229
0.01474
0.01474
0.01229
0.00983
0.00983
0.00983
0.00983
0.00983
0.00983
0.01229
0.01474
0.01474
0.01474
0.01474
0.01474
0.01474
0.01474
0.01474
0.01474
0.01474
0.01474
0.01474
0.01474
0.01474
0.01474
0.01474
0.01474
0.01474
0.01720
0.01966
0.01966
0.01966
0.02212
0.02539
0.02539
0.02539
0.02703
0.03031
0.02785
0.02539
0.02539
0.02539
0.02703
0.03031
0.02785
0.02539
0.02703
0.03031
0.03277
0.03522
0.03277
0.03277
0.03522
0.03522
0.03522
0.03522
0.03277
0.03031
0.03031
0.03031
0.03031
0.03031
0.03031
0.02785
0.02539
0.02703
0.03031
0.03031
0.03031
0.03031
0.03031
0.03031
0.03195
0.03277
0.03031
0.03031
0.03031
0.03031
0.03031
0.03031
0.03031
0.02785
0.02539
0.02539
0.02048
0.01474
0.01474
0.01311
0.00737
0.00246
-0.00246
-0.00491
-0.00491
-0.00737
-0.01229
-0.01474
-0.01720
-0.01966
-0.01966
-0.01966
-0.02212
-0.02539
-0.02539
-0.02703
-0.03031
-0.03031
-0.03031
-0.03031
-0.03031
-0.03031
-0.03031
-0.03031
-0.03031
-0.03031
-0.03031
-0.03031
-0.03031
-0.03031
-0.03031
-0.03031
-0.03195
-0.03522
-0.03686
-0.04014
-0.03768
-0.03686
-0.04260
-0.04505
-0.04751
-0.04751
-0.04505
-0.04505
-0.04751
-0.04997
-0.05243
-0.05488
-0.05488
-0.05488
-0.05488
-0.05488
-0.05488
-0.05488
-0.05488
-0.05243
-0.04342
-0.03031
-0.01638
0.00164
0.01474
0.02457
0.03195
0.03522
0.03277
0.02785
0.02703
0.03031
0.02539
0.01556
0.00328
-0.01147
-0.02457
-0.03850
-0.05243
-0.05898
-0.06963
-0.07536
-0.07700
-0.08028
-0.08028
-0.08028
-0.08028
-0.08192
-0.08519
-0.08519
-0.08683
-0.09175
-0.09502
-0.09502
-0.09502
-0.09502
-0.09256
-0.09011
-0.09011
-0.09011
-0.09011
-0.09011
-0.09011
-0.09011
-0.09011
-0.09011
-0.09011
-0.09011
-0.09011
-0.08765
-0.08519
-0.08273
-0.07372
-0.05243
-0.02212
0.00983
0.05079
0.10731
0.17858
0.26459
0.34077
0.35551
0.28507
0.14089
-0.04505
-0.23182
-0.38664
-0.49477
-0.56358
-0.60044
-0.61273
-0.59389
-0.53737
-0.44890
-0.34732
-0.24820
-0.17038
-0.12042
-0.08765
-0.06389
-0.05079
-0.04260
-0.03768
-0.03277
-0.03031
-0.03031
-0.02785
-0.02539
-0.02294
-0.01966
-0.01966
-0.01966
-0.01802
-0.01311
-0.00983
-0.00983
-0.00983
-0.00819
-0.00491
-0.00491
-0.00491
-0.00491
-0.00491
-0.00328
0.00164
0.00491
0.00491
0.00491
0.00491
0.00737
0.01229
0.01474
0.01474
0.01474
0.01474
0.01474
0.01311
0.00983
0.00983
0.00983
0.01229
0.01311
0.00983
0.00983
0.01229
0.01474
0.01474
0.01474
0.01720
0.01966
0.01966
0.02212
0.02539
0.02539
0.02703
0.03031
0.03031
0.03031
0.03031
0.03195
0.03522
0.03522
0.03277
0.03031
0.03031
0.03195
0.03686
0.04014
0.04014
0.04014
0.04014
0.04014
0.04014
0.04014
0.03850
0.03522
0.03522
0.03522
0.03522
0.03522
0.03522
0.03522
0.03522
0.03522
0.03522
0.03522
0.03522
0.03277
0.03031
0.02785
0.02539
0.02539
0.02539
0.02539
0.02539
0.02539
0.02539
0.02539
0.02703
0.03031
0.03031
0.03031
0.02785
0.02539
0.02294
0.01966
0.01802
0.01474
0.01474
0.01474
0.01311
0.00983
0.00819
0.00328
-0.00164
-0.00655
-0.00983
-0.01147
-0.01474
-0.01638
-0.02212
-0.02703
-0.03031
-0.03031
-0.03031
-0.03031
-0.03195
-0.03522
-0.03686
-0.04014
-0.04014
-0.04014
-0.03850
-0.03522
-0.03359
-0.03031
-0.03031
-0.03031
-0.03031
-0.03031
-0.03031
-0.03031
-0.03031
-0.03031
-0.03031
-0.03031
-0.03031
-0.03031
-0.03031
-0.03031
-0.03031
-0.03031
-0.03031
-0.03031
-0.03195
-0.03522
-0.03522
-0.03522
-0.03686
-0.04014
-0.04178
-0.04505
-0.04505
-0.04505
-0.04505
-0.04669
-0.04997
-0.04997
-0.04997
-0.04997
-0.04997
-0.04997
-0.04997
-0.04997
-0.04997
-0.04997
-0.04997
-0.04997
-0.04997
-0.04997
-0.04997
-0.04833
-0.04342
-0.03686
-0.03031
-0.02703
-0.01802
-0.01147
-0.00164
0.00819
0.02130
0.04014
0.05488
0.06471
0.06471
0.06307
0.05816
0.05325
0.04669
0.03850
0.02867
0.00819
-0.00983
-0.02457
-0.04014
-0.05325
-0.06471
-0.07700
-0.08028
-0.08192
-0.08683
-0.09011
-0.09175
-0.09502
-0.09502
-0.09338
-0.09011
-0.09011
-0.09011
-0.09175
-0.09502
-0.09338
-0.09175
-0.09502
-0.09502
-0.09502
-0.09502
-0.09502
-0.09338
-0.09011
-0.08847
-0.08519
-0.08519
-0.08519
-0.08519
-0.08519
-0.08355
-0.08028
-0.07372
-0.05243
-0.02539
0.00410
0.03768
0.08028
0.13680
0.21134
0.28261
0.29899
0.23837
0.10158
-0.07372
-0.23919
-0.37517
-0.47593
-0.53900
-0.57750
-0.59471
-0.57996
-0.52098
-0.43333
-0.33012
-0.23428
-0.15974
-0.11304
-0.07782
-0.05734
-0.04669
-0.03686
-0.03031
-0.03031
-0.02867
-0.02376
-0.01884
-0.01311
-0.00819
-0.00491
-0.00491
-0.00491
-0.00491
-0.00491
-0.00491
-0.00491
-0.00328
0.00000
0.00000
0.00164
0.00491
0.00491
0.00328
0.00000
-0.00164
-0.00491
-0.00491
-0.00491
-0.00491
-0.00328
0.00164
0.00491
0.00655
0.00983
0.00983
0.00983
0.00983
0.01147
0.01474
0.01474
0.01474
0.01474
0.01474
0.01474
0.01474
0.01474
0.01393
0.01147
0.01474
0.01474
0.01474
0.01474
0.01638
0.02130
0.02539
0.02539
0.02621
0.03031
0.03031
0.02867
0.02539
0.02621
0.03031
0.03031
0.03031
0.03113
0.03522
0.03359
0.03031
0.03113
0.03522
0.03522
0.03359
0.03113
0.03522
0.03522
0.03522
0.03359
0.03031
0.03113
0.03522
0.03522
0.03522
0.03522
0.03522
0.03522
0.03522
0.03359
0.03031
0.03031
0.02867
0.02621
0.03031
0.03113
0.03522
0.03522
0.03522
0.03522
0.03359
0.03031
0.02867
0.02539
0.02376
0.02130
0.02621
0.02867
0.02376
0.01966
0.01966
0.01966
0.01966
0.01966
0.01884
0.01474
0.01393
0.00737
-0.00164
-0.00491
-0.00491
-0.00491
-0.00655
-0.01147
-0.01638
-0.02130
-0.02539
-0.02539
-0.02539
-0.02621
-0.03031
-0.03031
-0.03031
-0.03031
-0.03031
-0.03031
-0.03031
-0.03031
-0.03031
-0.03031
-0.03031
-0.03031
-0.03031
-0.03031
-0.03031
-0.03031
-0.03031
-0.03031
-0.03031
-0.03113
-0.03522
-0.03522
-0.03604
-0.04014
-0.04014
-0.04014
-0.04014
-0.04014
-0.04014
-0.04014
-0.04096
-0.04342
-0.04014
-0.04096
-0.04587
-0.05079
-0.05488
-0.05488
-0.05652
-0.05980
-0.05898
-0.05488
-0.05488
-0.05488
-0.05406
-0.04751
-0.03768
-0.02621
-0.01147
0.00328
0.01720
0.02621
0.03031
0.03031
0.03031
0.03113
0.03522
0.03277
0.02130
0.00655
-0.00983
-0.02867
-0.04342
-0.05652
-0.06226
-0.07209
-0.08028
-0.08028
-0.08110
-0.08519
-0.08601
-0.09011
-0.09011
-0.09093
-0.09502
-0.09502
-0.09502
-0.09420
-0.09011
-0.09011
-0.09011
-0.09011
-0.08929
-0.08519
-0.08519
-0.08519
-0.08519
-0.08519
-0.08519
-0.08519
-0.08519
-0.08519
-0.08355
-0.08028
-0.07864
-0.07536
-0.07372
-0.06717
-0.04997
-0.02294
0.01229
0.05079
0.10321
0.17120
0.25476
0.34241
0.38664
0.35469
0.23919
0.05898
-0.13598
-0.30473
-0.43825
-0.52098
-0.57095
-0.59471
-0.58570
-0.53655
-0.46774
-0.37927
-0.27687
-0.19168
-0.13106
-0.08929
-0.06062
-0.04342
-0.03440
-0.02867
-0.02376
-0.01884
-0.01474
-0.01393
-0.01065
-0.01393
-0.00983
-0.00983
-0.00901
-0.00491
-0.00491
-0.00491
-0.00491
-0.00410
0.00082
0.00491
0.00491
0.00573
0.00983
0.00901
0.00491
0.00573
0.00983
0.00983
0.00983
0.01065
0.01474
0.01474
0.01474
0.01474
0.01556
0.01966
0.01966
0.02130
0.02539
0.02539
0.02539
0.02376
0.02130
0.02539
0.02621
0.03031
0.03031
0.03113
0.03522
0.03522
0.03522
0.03522
0.03522
0.03522
0.03604
0.04014
0.04014
0.04014
0.04014
0.04014
0.04014
0.04014
0.04014
0.04014
0.04014
0.04014
0.04014
0.04014
0.04014
0.04014
0.04014
0.04014
0.04014
0.04096
0.04505
0.04505
0.04505
0.04587
0.04997
0.04997
0.04915
0.04505
0.04505
0.04505
0.04423
0.04096
0.04505
0.04505
0.04505
0.04505
0.04505
0.04505
0.04505
0.04423
0.04014
0.04014
0.04014
0.04096
0.04505
0.04505
0.04505
0.04423
0.04014
0.04014
0.04096
0.04505
0.04505
0.04505
0.04505
0.04505
0.04423
0.04014
0.04014
0.04014
0.04014
0.03932
0.03440
0.02949
0.02457
0.01884
0.01474
0.01393
0.00983
0.00901
0.00491
0.00410
0.00000
0.00000
-0.00082
-0.00491
-0.00491
-0.00491
-0.00491
-0.00491
-0.00491
-0.00573
-0.01065
-0.01474
-0.01474
-0.01556
-0.01966
-0.01966
-0.01966
-0.01474
-0.01393
-0.00983
-0.00983
-0.00983
-0.00983
-0.00983
-0.00983
-0.00901
-0.00491
-0.00573
-0.00983
-0.00983
-0.01065
-0.01474
-0.01556
-0.02048
-0.02539
-0.02539
-0.02539
-0.03031
-0.03031
-0.03031
-0.03031
-0.03031
-0.03031
-0.03031
-0.03031
-0.03031
-0.03031
-0.03031
-0.03031
-0.03031
-0.03031
-0.02785
-0.01393
-0.00246
0.01638
0.02703
0.04096
0.05079
0.05488
0.05488
0.05406
0.05079
0.05570
0.05898
0.05325
0.03850
0.02294
0.00819
-0.00655
-0.02212
-0.03686
-0.05079
-0.05570
-0.05980
-0.06062
-0.06471
-0.06471
-0.06471
-0.06471
-0.06471
-0.06471
-0.06553
-0.06963
-0.06963
-0.06963
-0.06963
-0.06963
-0.06963
-0.07045
-0.07454
-0.06963
-0.06963
-0.06963
-0.06963
-0.06471
-0.06471
-0.06471
-0.05980
-0.05980
-0.05980
-0.05488
-0.05488
-0.05406
-0.04260
-0.02212
0.00901
0.04342
0.07454
0.12205
0.18841
0.26868
0.34732
0.35797
0.27933
0.12615
-0.05816
-0.23592
-0.38500
-0.48084
-0.53818
-0.57177
-0.58324
-0.55866
-0.49067
-0.39975
-0.29490
-0.19742
-0.12533
-0.07782
-0.05243
-0.02867
-0.01966
-0.01474
-0.00983
-0.00491
0.00000
0.00000
-0.00082
-0.00491
-0.00491
0.00082
0.00491
0.00573
0.01065
0.01474
0.01474
0.01474
0.01556
0.01966
0.01966
0.01966
0.02048
0.02539
0.02539
0.02457
0.01966
0.01966
0.01474
0.01556
0.01966
0.01966
0.02048
0.02539
0.02457
0.01966
0.02048
0.02539
0.02539
0.02539
0.02539
0.02539
0.02539
0.02457
0.01966
0.01966
0.02048
0.02539
0.02539
0.03031
0.03031
0.03031
0.03031
0.03031
0.03031
0.03522
0.03522
0.03522
0.03522
0.03522
0.03522
0.04014
0.04014
0.04014
0.04014
0.04014
0.04505
0.04505
0.04505
0.04997
0.04997
0.04997
0.04505
0.04505
0.04014
0.04014
0.04014
0.04505
0.04997
0.04997
0.04997
0.04997
0.04505
0.04014
0.04014
0.03932
0.03522
0.03522
0.03522
0.04014
0.04014
0.04014
0.04014
0.04014
0.04014
0.04014
0.04014
0.04014
0.04014
0.04014
0.04014
0.04014
0.04014
0.04014
0.04014
0.03932
0.03522
0.03522
0.03522
0.03440
0.03031
0.02949
0.02539
0.02457
0.01966
0.01474
0.01474
0.00983
0.00000
-0.00491
-0.00491
0.00000
0.00000
-0.00491
-0.00491
-0.00491
-0.00491
-0.00491
-0.00983
-0.00983
-0.01556
-0.01966
-0.01966
-0.01474
-0.01474
-0.00983
-0.00983
-0.00983
-0.00983
-0.00983
-0.00983
-0.00491
-0.00983
-0.00983
-0.01556
-0.01966
-0.01966
-0.01966
-0.02048
-0.02539
-0.02539
-0.02539
-0.02539
-0.03031
-0.03031
-0.03031
-0.03031
-0.03522
-0.04014
-0.04014
-0.04505
-0.04997
-0.05488
-0.05488
-0.05488
-0.05488
-0.05488
-0.05488
-0.05488
-0.05980
-0.05980
-0.05980
-0.05488
-0.05488
-0.05488
-0.05980
-0.05980
-0.05980
-0.05488
-0.05488
-0.05488
-0.04997
-0.04014
-0.02949
-0.02457
-0.00983
-0.00491
0.01556
0.02539
0.04014
0.05980
0.06471
0.06471
0.06471
0.05488
0.04505
0.04014
0.02949
0.01966
0.00491
-0.01556
-0.03031
-0.04997
-0.06553
-0.07536
-0.08028
-0.08519
-0.09011
-0.09502
-0.09502
-0.09502
-0.09502
-0.09502
-0.09502
-0.09502
-0.09502
-0.09502
-0.09502
-0.09502
-0.09011
-0.09011
-0.09011
-0.09011
-0.09011
-0.09011
-0.08519
-0.08519
-0.08519
-0.08519
-0.08519
-0.08519
-0.08519
-0.08028
-0.08028
-0.08028
-0.08028
-0.07454
-0.05488
-0.03031
0.00491
0.04014
0.08519
0.15482
0.24001
0.33503
0.38992
0.35469
0.22527
0.04014
-0.15482
-0.32439
-0.45463
-0.53491
-0.57996
-0.60454
-0.59471
-0.54556
-0.47019
-0.36534
-0.26541
-0.17530
-0.12042
-0.08028
-0.05488
-0.04505
-0.03031
-0.03031
-0.02539
-0.01966
-0.01966
-0.01966
-0.01474
-0.00983
-0.00983
-0.00491
-0.00491
-0.00491
-0.00491
-0.00491
-0.00491
-0.00491
0.00000
0.00000
0.00000
0.00000
0.00491
0.00491
0.00491
0.00491
0.00983
0.00983
0.00983
0.00983
0.01474
0.00983
0.01474
0.01474
0.00983
0.01474
0.01474
0.01474
0.01966
0.01966
0.01966
0.01966
0.01966
0.01966
0.02457
0.02539
0.02539
0.02539
0.02539
0.02539
0.02949
0.03031
0.03522
0.03522
0.03522
0.03522
0.03522
0.03522
0.03522
0.03522
0.04014
0.04014
0.04014
0.03522
0.03522
0.03522
0.03522
0.04014
0.04014
0.04014
0.04014
0.04505
0.04505
0.04505
0.04505
0.04505
0.04505
0.04505
0.04505
0.04505
0.04505
0.04997
0.04997
0.04997
0.04997
0.04505
0.04505
0.04505
0.04505
0.04505
0.04505
0.04505
0.04505
0.04505
0.04505
0.04505
0.04014
0.04014
0.04014
0.04014
0.04014
0.04014
0.04014
0.04014
0.04014
0.04014
0.04014
0.04014
0.04014
0.03522
0.03522
0.03031
0.03031
0.02539
0.02539
0.02048
0.01556
0.01474
0.01474
0.01474
0.01474
0.01065
0.00491
0.00000
0.00000
-0.00491
-0.00491
-0.00983
-0.00983
-0.01474
-0.01474
-0.01966
-0.01966
-0.01966
-0.01966
-0.01966
-0.01966
-0.01966
-0.01966
-0.02457
-0.02539
-0.02539
-0.02539
-0.02949
-0.03031
-0.03031
-0.03031
-0.02539
-0.02539
-0.02949
-0.03031
-0.03031
-0.03031
-0.03031
-0.03031
-0.03031
-0.03031
-0.03031
-0.03031
-0.03440
-0.03932
-0.04014
-0.04014
-0.04014
-0.04423
-0.04505
-0.04505
-0.04505
-0.04505
-0.04505
-0.04505
-0.04505
-0.04014
-0.03113
-0.01638
-0.00082
0.01393
0.03359
0.04423
0.04505
0.04997
0.04997
0.04997
0.04997
0.05488
0.04587
0.03113
0.01147
-0.00410
-0.02294
-0.03850
-0.05406
-0.05980
-0.06881
-0.07454
-0.07946
-0.08028
-0.08028
-0.08028
-0.08028
-0.08028
-0.08028
-0.08028
-0.08028
-0.08028
-0.08028
-0.08028
-0.08028
-0.08028
-0.08028
-0.08028
-0.08028
-0.08028
-0.07536
-0.07536
-0.07536
-0.07045
-0.06963
-0.07454
-0.07536
-0.07536
-0.07536
-0.07045
-0.06963
-0.06062
-0.05079
-0.02785
0.00655
0.04178
0.08110
0.13926
0.21216
0.29653
0.34568
0.31865
0.19824
0.01884
-0.16137
-0.31865
-0.44234
-0.53081
-0.57996
-0.60699
-0.59634
-0.55047
-0.47347
-0.37108
-0.27032
-0.18431
-0.12615
-0.08437
-0.05734
-0.04178
-0.03113
-0.02539
-0.02048
-0.01556
-0.01474
-0.01065
-0.00983
-0.00983
-0.00983
-0.00573
-0.00491
-0.00491
-0.00491
-0.00491
-0.00491
-0.00491
-0.00082
0.00000
0.00000
0.00000
0.00000
0.00000
0.00000
0.00410
0.00491
0.00491
0.00491
0.00491
0.00491
0.00491
0.00491
0.00901
0.00983
0.01474
0.01474
0.01474
0.01474
0.01474
0.01474
0.01065
0.00983
0.00983
0.01474
0.01474
0.01474
0.01474
0.01474
0.01474
0.01474
0.01474
0.01474
0.01474
0.01966
0.01966
0.02457
0.02048
0.01966
0.01556
0.01474
0.01966
0.02457
0.02539
0.02539
0.02539
0.02539
0.02539
0.02539
0.02539
0.02949
0.03031
0.02539
0.02539
0.02539
0.02539
0.02539
0.02539
0.02539
0.02539
0.02539
0.02048
0.01966
0.01966
0.01966
0.01966
0.01966
0.01966
0.01556
0.01474
0.01474
0.01966
0.01966
0.02457
0.02048
0.01556
0.01474
0.01474
0.01065
0.00983
0.01393
0.01474
0.01474
0.01474
0.01065
0.00983
0.00983
0.00983
0.01393
0.01065
0.00983
0.00983
0.00573
0.00491
0.00082
-0.00410
-0.00901
-0.01393
-0.01474
-0.01884
-0.02457
-0.02539
-0.02949
-0.03031
-0.03031
-0.03031
-0.03031
-0.03031
-0.03031
-0.03031
-0.03031
-0.03031
-0.03031
-0.03031
-0.03031
-0.03031
-0.03031
-0.03031
-0.03031
-0.03031
-0.03031
-0.02621
-0.02539
-0.02539
-0.02048
-0.01966
-0.01966
-0.01966
-0.01966
-0.01966
-0.02376
-0.02539
-0.02539
-0.02539
-0.02949
-0.03031
-0.03031
-0.03440
-0.03932
-0.04014
-0.04423
-0.04505
-0.04505
-0.04505
-0.04915
-0.04997
-0.04587
-0.04915
-0.04997
-0.04997
-0.04997
-0.05406
-0.05488
-0.05488
-0.05488
-0.05488
-0.05488
-0.05488
-0.05488
-0.05488
-0.05488
-0.05488
-0.04669
-0.03686
-0.03113
-0.02212
-0.01147
-0.00573
0.00737
0.02212
0.04096
0.06144
0.06881
0.06963
0.06553
0.06471
0.05652
0.04669
0.03686
0.02294
0.00410
-0.01638
-0.03195
-0.05161
-0.06307
-0.07290
-0.07864
-0.08028
-0.08437
-0.08929
-0.09011
-0.09011
-0.09011
-0.09420
-0.09912
-0.09994
-0.09994
-0.09994
-0.09994
-0.09994
-0.09994
-0.09994
-0.09994
-0.09994
-0.09994
-0.09994
-0.09994
-0.09994
-0.09584
-0.09502
-0.09502
-0.09502
-0.09502
-0.09502
-0.09093
-0.09011
-0.09011
-0.08601
-0.07290
-0.04587
-0.01229
0.03113
0.08765
0.15564
0.24165
0.32766
0.36125
0.31783
0.19824
0.01966
-0.17038
-0.34077
-0.47019
-0.55047
-0.59225
-0.61191
-0.59962
-0.54392
-0.46692
-0.37517
-0.28015
-0.19742
-0.13680
-0.10158
-0.07946
-0.05898
-0.05079
-0.04587
-0.04505
-0.04096
-0.03604
-0.03113
-0.03031
-0.03031
-0.03031
-0.03031
-0.03031
-0.03031
-0.03031
-0.03031
-0.02621
-0.02539
-0.02130
-0.01638
-0.01147
-0.00983
-0.00983
-0.00983
-0.00573
-0.00491
-0.00901
-0.00983
-0.00573
-0.00491
-0.00491
-0.00491
-0.00082
0.00000
0.00000
0.00000
0.00000
0.00000
0.00000
0.00000
0.00000
0.00000
0.00410
0.00491
0.00491
0.00491
0.00491
0.00491
0.00082
0.00000
0.00410
0.00491
0.00491
0.00901
0.01393
0.01474
0.01474
0.01474
0.01474
0.01474
0.01474
0.01474
0.01474
0.01474
0.01474
0.01884
0.02376
0.02539
0.02539
0.02539
0.02539
0.02539
0.02539
0.02867
0.03031
0.03031
0.03031
0.03359
0.03522
0.03522
0.03522
0.03522
0.03113
0.03031
0.03031
0.03031
0.03031
0.03031
0.03031
0.03031
0.03031
0.03359
0.03522
0.03522
0.03522
0.03522
0.03522
0.03522
0.03113
0.03031
0.03031
0.03031
0.03359
0.03522
0.03522
0.03522
0.03522
0.03522
0.03522
0.03522
0.03522
0.03522
0.03522
0.03113
0.02621
0.02539
0.02130
0.01638
0.01474
0.01474
0.01474
0.01147
0.00655
0.00491
0.00164
-0.00328
-0.00491
-0.00901
-0.01393
-0.01884
-0.02376
-0.02539
-0.02539
-0.02867
-0.03031
-0.03031
-0.03031
-0.03031
-0.03031
-0.03031
-0.03031
-0.03359
-0.03113
-0.03031
-0.03031
-0.03031
-0.03359
-0.03522
-0.03850
-0.04014
-0.04342
-0.04505
-0.04833
-0.04997
-0.04997
-0.04997
-0.04669
-0.04505
-0.04833
-0.05325
-0.05488
-0.05488
-0.05488
-0.05898
-0.05980
-0.05980
-0.05980
-0.05980
-0.05980
-0.05980
-0.05980
-0.05980
-0.05980
-0.05980
-0.05652
-0.04423
-0.03277
-0.01966
-0.00082
0.01229
0.02212
0.02539
0.02539
0.02539
0.02539
0.02867
0.03031
0.01966
0.00410
-0.01065
-0.02539
-0.03686
-0.05079
-0.06226
-0.07536
-0.08028
-0.08355
-0.08519
-0.08519
-0.08519
-0.08519
-0.08519
-0.08847
-0.09011
-0.09011
-0.09011
-0.09011
-0.09011
-0.09011
-0.09011
-0.09011
-0.09338
-0.09175
-0.09011
-0.09011
-0.09011
-0.09011
-0.08683
-0.08519
-0.08519
-0.08519
-0.08519
-0.08519
-0.08192
-0.08028
-0.08028
-0.07290
-0.05980
-0.03768
-0.00573
0.03277
0.07946
0.14008
0.21544
0.29899
0.35961
0.35387
0.25476
0.08683
-0.10158
-0.27769
-0.41613
-0.51033
-0.56604
-0.60044
-0.60290
-0.56931
-0.49968
-0.40630
-0.30309
-0.21134
-0.14417
-0.09748
-0.06799
-0.04997
-0.03850
-0.03195
-0.02621
-0.02130
-0.01638
-0.01147
-0.00983
-0.00983
-0.00655
-0.00491
-0.00491
-0.00491
-0.00491
-0.00491
-0.00491
-0.00164
0.00000
0.00328
0.00491
0.00819
0.00983
0.00983
0.00983
0.01311
0.01474
0.01474
0.01474
0.01474
0.01474
0.01474
0.01474
0.01802
0.01966
0.01638
0.01474
0.01474
0.01474
0.01474
0.01474
0.01474
0.01474
0.01474
0.01474
0.01474
0.01802
0.01966
0.01966
0.02294
0.02130
0.01966
0.01966
0.01966
0.01966
0.01966
0.02294
0.02539
0.02539
0.02539
0.02867
0.03031
0.03031
0.03359
0.03850
0.04014
0.03686
0.03522
0.03850
0.04014
0.04014
0.04014
0.04014
0.04014
0.04014
0.04014
0.04014
0.04014
0.04014
0.04014
0.04014
0.04014
0.04014
0.04014
0.03686
0.03522
0.03522
0.03522
0.03522
0.03522
0.03522
0.03522
0.03522
0.03522
0.03522
0.03522
0.03522
0.03522
0.03522
0.03195
0.03031
0.03031
0.03031
0.02703
0.02539
0.02785
0.03031
0.02703
0.02539
0.02539
0.02212
0.01966
0.01720
0.01474
0.01474
0.00901
0.00164
-0.00328
-0.00491
-0.00491
-0.00819
-0.01311
-0.01474
-0.01802
-0.01966
-0.01966
-0.02294
-0.02539
-0.02785
-0.03031
-0.03031
-0.03031
-0.03031
-0.03031
-0.03031
-0.03031
-0.03031
-0.03031
-0.03031
-0.03031
-0.02703
-0.02785
-0.03031
-0.03031
-0.03031
-0.03031
-0.03031
-0.03031
-0.03031
-0.03031
-0.03031
-0.03031
-0.03031
-0.03031
-0.03031
-0.03031
-0.03031
-0.03031
-0.03277
-0.03850
-0.04014
-0.04342
-0.04505
-0.04505
-0.04505
-0.04505
-0.04178
-0.04014
-0.04014
-0.04014
-0.04014
-0.04342
-0.04505
-0.04833
-0.04997
-0.04997
-0.04997
-0.04997
-0.04997
-0.04997
-0.04997
-0.04997
-0.04423
-0.03359
-0.03031
-0.02376
-0.01393
-0.00655
-0.00164
0.00901
0.02130
0.03440
0.05488
0.06799
0.06963
0.06717
0.06226
0.05980
0.05406
0.04423
0.03359
0.02130
0.00328
-0.01720
-0.03440
-0.04915
-0.06062
-0.07127
-0.07782
-0.08028
-0.08028
-0.08028
-0.08028
-0.08028
-0.08028
-0.08028
-0.08028
-0.08028
-0.08028
-0.08028
-0.08028
-0.08028
-0.08028
-0.08028
-0.08028
-0.08028
-0.08273
-0.08519
-0.08519
-0.08519
-0.08192
-0.08028
-0.08028
-0.08028
-0.08028
-0.08028
-0.08028
-0.07700
-0.06881
-0.05325
-0.02703
0.00246
0.02949
0.06635
0.12042
0.18922
0.26377
0.30636
0.27360
0.15974
-0.00491
-0.17612
-0.32684
-0.44316
-0.52016
-0.56849
-0.59061
-0.58078
-0.53245
-0.45299
-0.35387
-0.25476
-0.17448
-0.11878
-0.08273
-0.05816
-0.04096
-0.03195
-0.02703
-0.02212
-0.01720
-0.01474
-0.01229
-0.00983
-0.00737
-0.00491
-0.00491
-0.00491
-0.00491
-0.00491
-0.00491
-0.00491
-0.00491
-0.00491
-0.00491
-0.00491
-0.00491
-0.00491
-0.00491
-0.00491
-0.00246
0.00000
0.00000
0.00246
0.00819
0.01311
0.01474
0.01474
0.01474
0.01474
0.01229
0.00983
0.01311
0.01474
0.01474
0.01474
0.01474
0.01474
0.01474
0.01474
0.01229
0.00983
0.01311
0.01474
0.01474
0.01474
0.01474
0.01474
0.01474
0.01474
0.01474
0.01802
0.02294
0.02539
0.02539
0.02539
0.02785
0.03031
0.02703
0.02539
0.02212
0.01966
0.02294
0.02539
0.02539
0.02539
0.02785
0.03031
0.03031
0.03031
0.03031
0.02703
0.02539
0.02539
0.02785
0.03031
0.03031
0.03031
0.03031
0.03031
0.03277
0.03522
0.03195
0.03031
0.03031
0.02703
0.02539
0.02785
0.03031
0.02703
0.02539
0.02212
0.01966
0.01966
0.01966
0.01966
0.01966
0.02294
0.02539
0.02539
0.02539
0.02539
0.02212
0.01720
0.01474
0.01474
0.01474
0.01474
0.01229
0.00737
0.00246
-0.00246
-0.00491
-0.00737
-0.01229
-0.01474
-0.01474
-0.01802
-0.01966
-0.01966
-0.01966
-0.02294
-0.02785
-0.03031
-0.03031
-0.03031
-0.03031
-0.03031
-0.03031
-0.03031
-0.02703
-0.02539
-0.02539
-0.02539
-0.02539
-0.02212
-0.01966
-0.01966
-0.02294
-0.02212
-0.02294
-0.02785
-0.03031
-0.03031
-0.03031
-0.03031
-0.03031
-0.03031
-0.03031
-0.03522
-0.04260
-0.04751
-0.04997
-0.04997
-0.04997
-0.04997
-0.05243
-0.05488
-0.05488
-0.05734
-0.05980
-0.06226
-0.06471
-0.06471
-0.06471
-0.06226
-0.05980
-0.05734
-0.05734
-0.06226
-0.06471
-0.06226
-0.05488
-0.04505
-0.03522
-0.02785
-0.01966
-0.00983
0.00246
0.01720
0.03277
0.04751
0.05980
0.06226
0.05734
0.05243
0.04751
0.04260
0.03522
0.02212
0.00491
-0.01229
-0.02785
-0.04505
-0.06226
-0.07536
-0.08519
-0.09502
-0.09994
-0.09994
-0.09994
-0.09994
-0.09994
-0.09994
-0.09994
-0.09994
-0.09994
-0.09994
-0.09994
-0.09994
-0.09994
-0.09994
-0.09994
-0.09994
-0.09994
-0.09748
-0.09502
-0.09502
-0.09502
-0.09502
-0.09748
-0.09994
-0.09748
-0.09502
-0.09502
-0.09011
-0.08273
-0.08028
-0.07536
-0.06062
-0.03522
-0.00082
0.04178
0.09175
0.15400
0.23346
0.31865
0.36452
0.32439
0.19332
0.01147
-0.17612
-0.34241
-0.46774
-0.54638
-0.59143
-0.61273
-0.59798
-0.54638
-0.46692
-0.37026
-0.26950
-0.18677
-0.12615
-0.08847
-0.06553
-0.04751
-0.03522
-0.03031
-0.03031
-0.02785
-0.02294
-0.01802
-0.01474
-0.01474
-0.01474
-0.01474
-0.01229
-0.00983
-0.00983
-0.00983
-0.01229
-0.01229
-0.00983
-0.00737
-0.00491
-0.00491
-0.00491
-0.00491
-0.00246
0.00000
0.00000
0.00000
0.00000
0.00246
0.00491
0.00491
0.00491
0.00737
0.00983
0.00983
0.01229
0.01311
0.00983
0.00983
0.01229
0.01474
0.01474
0.01474
0.01474
0.01474
0.01474
0.01474
0.01474
0.01474
0.01474
0.01474
0.01474
0.01720
0.01966
0.01966
0.02212
0.02539
0.02539
0.02539
0.02703
0.03031
0.03031
0.03031
0.03195
0.03522
0.03522
0.03522
0.03522
0.03522
0.03522
0.03522
0.03522
0.03522
0.03522
0.03522
0.03522
0.03522
0.03522
0.03277
0.03195
0.03522
0.03277
0.03195
0.03522
0.03522
0.03522
0.03522
0.03277
0.03195
0.03522
0.03522
0.03522
0.03522
0.03522
0.03522
0.03522
0.03522
0.03277
0.03195
0.03522
0.03522
0.03522
0.03522
0.03522
0.03522
0.03522
0.03522
0.03522
0.03522
0.03277
0.02785
0.02539
0.02294
0.01802
0.01474
0.01474
0.01311
0.00819
0.00246
-0.00246
-0.00491
-0.00491
-0.00491
-0.00737
-0.00983
-0.00983
-0.01229
-0.01720
-0.01966
-0.02212
-0.02539
-0.02539
-0.02539
-0.02539
-0.02539
-0.02703
-0.03031
-0.03031
-0.03031
-0.03031
-0.03031
-0.03031
-0.03031
-0.03031
-0.03031
-0.03031
-0.03031
-0.03031
-0.03031
-0.03031
-0.03031
-0.03031
-0.03195
-0.03522
-0.03522
-0.03522
-0.03522
-0.03522
-0.03522
-0.03686
-0.04014
-0.04014
-0.04178
-0.04505
-0.04505
-0.04669
-0.04997
-0.04997
-0.05243
-0.05488
-0.05488
-0.05488
-0.05488
-0.05325
-0.04423
-0.03113
-0.01720
-0.00082
0.01065
0.02621
0.03686
0.04014
0.04014
0.04014
0.04014
0.04014
0.03768
0.02703
0.00901
-0.00573
-0.02130
-0.03768
-0.05161
-0.06062
-0.07209
-0.07700
-0.08028
-0.08028
-0.08192
-0.08519
-0.08519
-0.08519
-0.08519
-0.08519
-0.08519
-0.08683
-0.09011
-0.09011
-0.09011
-0.09011
-0.09011
-0.09011
-0.09011
-0.09011
-0.09011
-0.09011
-0.09011
-0.09011
-0.09011
-0.08847
-0.08519
-0.08273
-0.08028
-0.08028
-0.08028
-0.07618
-0.06389
-0.04505
-0.01884
0.01556
0.05734
0.10567
0.16875
0.24575
0.30800
0.30882
0.22363
0.07536
-0.09666
-0.26377
-0.40384
-0.50378
-0.56686
-0.60290
-0.60781
-0.57423
-0.50624
-0.41040
-0.30718
-0.21708
-0.14909
-0.10158
-0.07045
-0.05161
-0.04096
-0.03277
-0.03031
-0.02785
-0.02539
-0.02294
-0.01966
-0.01802
-0.01474
-0.01474
-0.01474
-0.01311
-0.00819
-0.00491
-0.00491
-0.00491
-0.00491
-0.00328
0.00000
0.00000
0.00000
0.00000
0.00000
0.00000
0.00000
0.00164
0.00491
0.00655
0.00983
0.00983
0.00983
0.00983
0.00983
0.01147
0.01474
0.01474
0.01474
0.01474
0.01474
0.01474
0.01638
0.01966
0.01966
0.01966
0.01966
0.02212
0.02294
0.01966
0.01966
0.01966
0.02212
0.02539
0.02539
0.02294
0.01966
0.02212
0.02294
0.01966
0.02212
0.02539
0.02294
0.01966
0.02212
0.02539
0.02539
0.02703
0.03031
0.03195
0.03522
0.03522
0.03359
0.03031
0.02867
0.02539
0.02703
0.03031
0.02867
0.02539
0.02539
0.02539
0.02539
0.02539
0.02539
0.02539
0.02539
0.02294
0.01966
0.01966
0.01966
0.01966
0.01966
0.01966
0.01802
0.01474
0.01474
0.01474
0.01474
0.01474
0.01638
0.02130
0.02294
0.01802
0.01474
0.01474
0.01311
0.00983
0.00983
0.00819
0.00491
0.00328
-0.00164
-0.00491
-0.00491
-0.00491
-0.00655
-0.00983
-0.01147
-0.01474
-0.01638
-0.01966
-0.02130
-0.02539
-0.02539
-0.02621
-0.03031
-0.03031
-0.03031
-0.03031
-0.03031
-0.03031
-0.03031
-0.03031
-0.03031
-0.03031
-0.03031
-0.02867
-0.02376
-0.01966
-0.01966
-0.01966
-0.02130
-0.02539
-0.02539
-0.02539
-0.02376
-0.01966
-0.02130
-0.02621
-0.03031
-0.03031
-0.03031
-0.03031
-0.03031
-0.03031
-0.03031
-0.03195
-0.03522
-0.03522
-0.03522
-0.03686
-0.04014
-0.04178
-0.04669
-0.04997
-0.05161
-0.05488
-0.05652
-0.05980
-0.05816
-0.05488
-0.05488
-0.05652
-0.05980
-0.05816
-0.05488
-0.05488
-0.05488
-0.05488
-0.05488
-0.05652
-0.05816
-0.05488
-0.05161
-0.04178
-0.03359
-0.02703
-0.01720
-0.00819
-0.00082
0.01474
0.02949
0.04423
0.05980
0.07127
0.07372
0.06963
0.06881
0.06389
0.05406
0.03522
0.01884
0.00082
-0.01556
-0.03440
-0.04751
-0.05898
-0.07127
-0.07618
-0.08110
-0.08683
-0.09175
-0.09502
-0.09502
-0.09502
-0.09502
-0.09666
-0.09994
-0.09994
-0.09994
-0.09994
-0.09994
-0.09994
-0.09994
-0.09994
-0.09994
-0.09994
-0.09994
-0.09994
-0.09994
-0.09994
-0.09830
-0.09666
-0.09994
-0.09994
-0.09994
-0.09994
-0.09830
-0.09256
-0.08192
-0.06799
-0.03932
0.00082
0.04505
0.10321
0.17038
0.25148
0.33913
0.38418
0.33831
0.20397
0.01638
-0.17530
-0.34814
-0.47347
-0.54965
-0.59716
-0.61519
-0.60290
-0.55129
-0.47429
-0.37681
-0.27606
-0.19414
-0.13762
-0.09830
-0.07454
-0.05734
-0.04833
-0.04342
-0.03850
-0.03359
-0.03031
-0.03031
-0.03031
-0.03031
-0.03031
-0.03031
-0.02867
-0.02539
-0.02376
-0.01884
-0.01393
-0.00983
-0.00901
-0.00655
-0.00983
-0.00983
-0.00901
-0.00491
-0.00491
-0.00491
-0.00491
-0.00410
0.00000
0.00164
0.00491
0.00491
0.00491
0.00491
0.00491
0.00655
0.00983
0.00983
0.00983
0.00983
0.00983
0.00983
0.00983
0.00983
0.01147
0.01474
0.01474
0.01474
0.01474
0.01474
0.01474
0.01638
0.01966
0.02130
0.02539
0.02539
0.02539
0.02539
0.02539
0.02539
0.02539
0.02539
0.02539
0.02539
0.02539
0.02539
0.02539
0.02539
0.02539
0.02539
0.02621
0.03031
0.03113
0.03522
0.03359
0.03031
0.03031
0.03031
0.03031
0.03031
0.03031
0.02867
0.02539
0.02621
0.03031
0.03031
0.03031
0.03113
0.03522
0.03522
0.03522
0.03359
0.03113
0.03522
0.03522
0.03522
0.03522
0.03604
0.04014
0.03850
0.03522
0.03604
0.04014
0.03850
0.03522
0.03359
0.03031
0.03113
0.03522
0.03522
0.03359
0.03031
0.02867
0.02539
0.02539
0.02539
0.02376
0.01966
0.01884
0.01393
0.00901
0.00410
-0.00082
-0.00491
-0.00491
-0.00573
-0.01147
-0.01474
-0.01638
-0.01966
-0.01966
-0.01966
-0.02130
-0.02539
-0.02539
-0.02539
-0.02539
-0.02539
-0.02539
-0.02539
-0.02539
-0.02539
-0.02539
-0.02539
-0.02539
-0.02539
-0.02539
-0.02539
-0.02539
-0.02539
-0.02539
-0.02539
-0.02621
-0.03031
-0.03031
-0.03031
-0.03031
-0.03031
-0.03113
-0.03522
-0.03522
-0.03522
-0.03522
-0.03522
-0.03604
-0.04014
-0.04014
-0.04096
-0.04505
-0.04505
-0.04587
-0.04997
-0.04997
-0.04997
-0.04997
-0.04833
-0.03768
-0.02703
-0.01229
0.00328
0.01802
0.03195
0.04014
0.04014
0.04014
0.04014
0.04178
0.04997
0.04833
0.03604
0.01638
-0.00246
-0.01802
-0.03195
-0.04260
-0.05652
-0.06717
-0.07536
-0.07618
-0.08028
-0.08028
-0.08028
-0.08028
-0.08028
-0.08028
-0.08028
-0.08028
-0.08028
-0.08028
-0.08028
-0.08028
-0.08028
-0.08028
-0.08028
-0.08028
-0.08028
-0.07946
-0.07536
-0.07536
-0.07372
-0.06963
-0.06963
-0.06963
-0.06963
-0.06963
-0.06963
-0.06881
-0.06307
-0.05161
-0.02949
0.00000
0.03195
0.07290
0.12123
0.18922
0.26950
0.34241
0.34241
0.25394
0.09748
-0.09093
-0.26459
-0.40220
-0.49641
-0.55703
-0.59143
-0.59634
-0.57013
-0.50378
-0.40712
-0.30309
-0.20725
-0.13680
-0.09011
-0.06144
-0.04260
-0.02867
-0.01884
-0.01393
-0.00901
-0.00491
-0.00491
-0.00491
-0.00491
-0.00491
-0.00491
-0.00410
0.00000
0.00000
0.00082
0.00491
0.00573
0.01065
0.01474
0.01474
0.01474
0.01474
0.01474
0.01474
0.01474
0.01474
0.01474
0.01474
0.01474
0.01474
0.01474
0.01474
0.01474
0.01474
0.01474
0.01474
0.01556
0.01966
0.01966
0.02048
0.02539
0.02539
0.02457
0.01966
0.01966
0.01966
0.02048
0.02539
0.02539
0.02539
0.02539
0.03031
0.03031
0.03031
0.03031
0.03031
0.03031
0.03031
0.03031
0.03031
0.03031
0.03031
0.03522
0.03522
0.03522
0.03522
0.03522
0.03522
0.03522
0.03604
0.04014
0.04014
0.04014
0.04014
0.04014
0.03932
0.03440
0.03031
0.03031
0.03031
0.03031
0.03031
0.02949
0.02539
0.02539
0.02539
0.02539
0.02457
0.01966
0.01966
0.01966
0.01966
0.01474
0.01474
0.01474
0.01474
0.01474
0.01474
0.01474
0.01474
0.01474
0.01474
0.01474
0.01474
0.01474
0.01474
0.01474
0.01474
0.01474
0.00901
0.00491
0.00410
-0.00082
-0.00491
-0.00491
-0.00573
-0.00983
-0.01065
-0.01474
-0.01556
-0.01966
-0.01966
-0.02048
-0.02539
-0.02539
-0.02539
-0.03031
-0.03031
-0.03031
-0.03031
-0.03031
-0.03031
-0.03031
-0.02949
-0.02539
-0.02539
-0.02457
-0.01966
-0.01966
-0.01966
-0.01966
-0.01966
-0.01966
-0.01966
-0.01474
-0.01556
-0.01966
-0.01966
-0.01966
-0.01966
-0.01966
-0.01966
-0.01966
-0.02048
-0.02539
-0.02539
-0.02539
-0.03031
-0.03031
-0.03031
-0.03031
-0.03031
-0.03031
-0.03440
-0.03031
-0.03522
-0.03522
-0.03932
-0.03522
-0.03522
-0.03522
-0.03522
-0.03440
-0.03031
-0.03522
-0.03440
-0.03031
-0.03031
-0.03522
-0.03522
-0.03522
-0.03522
-0.03522
-0.03522
-0.03440
-0.02949
-0.02376
-0.01393
-0.00491
-0.00410
0.00573
0.01638
0.03113
0.04669
0.06553
0.07536
0.08028
0.07946
0.07536
0.07454
0.06471
0.05898
0.04423
0.03359
0.01311
-0.00655
-0.02130
-0.03604
-0.05079
-0.05570
-0.06553
-0.07045
-0.07536
-0.08028
-0.08028
-0.08028
-0.08028
-0.08028
-0.08028
-0.08028
-0.08028
-0.08028
-0.08028
-0.08028
-0.08028
-0.08028
-0.08028
-0.08028
-0.08028
-0.08028
-0.08028
-0.08028
-0.08028
-0.08519
-0.08519
-0.08519
-0.08519
-0.08437
-0.08028
-0.08028
-0.07946
-0.06881
-0.05325
-0.02212
0.01802
0.05816
0.10895
0.16465
0.23510
0.31128
0.32602
0.25558
0.10813
-0.07618
-0.24984
-0.39647
-0.49887
-0.55211
-0.59061
-0.59880
-0.58160
-0.52016
-0.43333
-0.32848
-0.22527
-0.14663
-0.09830
-0.06881
-0.04915
-0.03031
-0.02949
-0.01966
-0.01474
-0.00983
-0.00983
-0.00491
-0.00983
-0.00983
-0.00983
-0.00983
-0.00491
-0.00491
-0.00491
-0.00491
0.00000
0.00000
0.00000
0.00000
0.00000
0.00491
0.00491
0.00000
0.00000
0.00491
0.00983
0.00983
0.00983
0.00983
0.00983
0.00983
0.00983
0.00983
0.01474
0.01474
0.01474
0.01474
0.01556
0.01966
0.02048
0.02539
0.02539
0.02539
0.02539
0.02539
0.02539
0.03031
0.03031
0.03522
0.03522
0.03522
0.03522
0.03522
0.03522
0.03031
0.03522
0.03522
0.03522
0.03031
0.03031
0.03522
0.04014
0.04014
0.04014
0.04014
0.04014
0.04014
0.04014
0.04014
0.04014
0.04014
0.04014
0.04014
0.03522
0.03522
0.04014
0.04014
0.03522
0.03522
0.03522
0.02949
0.02539
0.02539
0.02539
0.03031
0.03031
0.03522
0.03522
0.03031
0.03031
0.03031
0.03031
0.03031
0.03522
0.03031
0.03031
0.03031
0.03031
0.02539
0.02539
0.03031
0.03031
0.03031
0.03031
0.03031
0.03031
0.03031
0.03031
0.03031
0.02539
0.02457
0.01966
0.01966
0.01474
0.01474
0.01474
0.00983
0.00000
-0.00491
-0.00491
-0.00491
-0.00491
-0.00983
-0.00983
-0.01474
-0.01966
-0.02539
-0.02539
-0.02539
-0.02539
-0.02539
-0.02539
-0.02539
-0.03031
-0.03031
-0.03031
-0.03031
-0.03031
-0.03031
-0.03031
-0.03031
-0.03031
-0.03031
-0.03031
-0.03031
-0.03031
-0.03031
-0.03522
-0.03522
-0.03522
-0.03522
-0.03522
-0.04014
-0.04505
-0.04505
-0.04505
-0.04505
-0.04505
-0.04997
-0.04997
-0.04997
-0.04997
-0.04997
-0.05488
-0.05488
-0.05488
-0.05488
-0.05980
-0.05980
-0.05980
-0.05980
-0.06471
-0.05980
-0.05488
-0.03522
-0.02048
-0.00491
0.00983
0.02457
0.03031
0.03031
0.03031
0.03031
0.03031
0.03522
0.03031
0.01556
0.00000
-0.01966
-0.03440
-0.04997
-0.05980
-0.07454
-0.08028
-0.08519
-0.09011
-0.09011
-0.09502
-0.09502
-0.09502
-0.09502
-0.09502
-0.09502
-0.09502
-0.09502
-0.09502
-0.09502
-0.09502
-0.09502
-0.09502
-0.09502
-0.09502
-0.09994
-0.09994
-0.09502
-0.09502
-0.09502
-0.09502
-0.09011
-0.09011
-0.09011
-0.08519
-0.08519
-0.08519
-0.08028
-0.07045
-0.05079
-0.01638
0.01884
0.06307
0.11304
0.18759
0.28179
0.36698
0.37927
0.29817
0.13106
-0.06799
-0.25312
-0.39975
-0.50132
-0.56276
-0.59880
-0.60945
-0.58570
-0.52754
-0.43415
-0.33422
-0.23428
-0.16301
-0.11222
-0.08110
-0.06062
-0.05079
-0.03604
-0.03031
-0.02539
-0.02539
-0.02048
-0.01966
-0.01966
-0.01966
-0.01556
-0.01474
-0.00983
-0.00983
-0.00983
-0.00983
-0.00983
-0.00983
-0.00983
-0.00983
-0.00983
-0.00491
-0.00491
-0.00491
-0.00491
-0.00491
-0.00491
-0.00491
0.00000
0.00000
0.00000
0.00000
0.00000
0.00000
0.00491
0.00491
0.00491
0.00983
0.00983
0.00983
0.01474
0.01474
0.01474
0.01474
0.01474
0.01474
0.01474
0.01474
0.01474
0.01474
0.01474
0.01474
0.01474
0.01966
0.01966
0.02457
0.02539
0.02539
0.02539
0.02539
0.02539
0.02539
0.02539
0.02539
0.02539
0.02539
0.02949
0.03031
0.03440
0.03522
0.03522
0.03522
0.03522
0.03522
0.03932
0.03522
0.03932
0.03522
0.03522
0.03522
0.03522
0.03522
0.03932
0.04014
0.04014
0.04014
0.04014
0.04014
0.04014
0.04014
0.04014
0.04014
0.03522
0.03522
0.03522
0.03932
0.03522
0.03932
0.04014
0.04014
0.04014
0.04014
0.04014
0.04014
0.04014
0.04014
0.04014
0.04014
0.04014
0.03522
0.03522
0.03031
0.03031
0.02539
0.02539
0.02048
0.01556
0.01474
0.00573
0.00082
-0.00491
-0.00491
-0.00491
-0.00491
-0.00491
-0.00491
-0.00983
-0.00983
-0.00983
-0.01474
-0.01966
-0.01966
-0.01966
-0.01966
-0.02457
-0.02539
-0.02539
-0.02539
-0.02539
-0.02539
-0.02539
-0.02539
-0.02539
-0.02539
-0.02539
-0.02539
-0.02539
-0.02539
-0.02539
-0.02539
-0.02949
-0.03031
-0.03031
-0.03031
-0.03031
-0.03031
-0.03031
-0.03031
-0.03031
-0.03031
-0.03440
-0.03522
-0.03932
-0.04014
-0.04014
-0.04014
-0.04014
-0.04014
-0.04014
-0.04014
-0.04014
-0.04014
-0.04014
-0.04423
-0.04505
-0.04505
-0.04505
-0.04505
-0.04505
-0.04915
-0.04587
-0.04505
-0.04505
-0.03604
-0.03031
-0.02130
-0.01147
-0.00573
-0.00082
0.01311
0.02376
0.03850
0.05734
0.06881
0.06963
0.06553
0.06471
0.06471
0.05652
0.04178
0.03113
0.01720
-0.00246
-0.02212
-0.03850
-0.05325
-0.06389
-0.07372
-0.07946
-0.08028
-0.08437
-0.08929
-0.09011
-0.09011
-0.09011
-0.09011
-0.09011
-0.09011
-0.09011
-0.09011
-0.09011
-0.09011
-0.09011
-0.09011
-0.09011
-0.09011
-0.09011
-0.09011
-0.09011
-0.09011
-0.08601
-0.08519
-0.08519
-0.08519
-0.08519
-0.08519
-0.08519
-0.08110
-0.07536
-0.05816
-0.03359
-0.00410
0.03440
0.08273
0.14581
0.22363
0.30391
0.31947
0.25967
0.13025
-0.04423
-0.21544
-0.36862
-0.48002
-0.54638
-0.58897
-0.59962
-0.57423
-0.51033
-0.42350
-0.32439
-0.23346
-0.16055
-0.11141
-0.07946
-0.05816
-0.04260
-0.03113
-0.03031
-0.02539
-0.02048
-0.01966
-0.01556
-0.01474
-0.01065
-0.00983
-0.00983
-0.00573
-0.00491
-0.00491
-0.00082
0.00000
0.00000
0.00410
0.00491
0.00491
0.00901
0.01393
0.01474
0.01474
0.01474
0.01474
0.01474
0.01474
0.01474
0.01474
0.01474
0.01474
0.01474
0.01474
0.01474
0.01474
0.01474
0.01474
0.01474
0.01474
0.01474
0.01474
0.01884
0.01966
0.01966
0.02376
0.02949
0.02621
0.02539
0.02539
0.02539
0.02539
0.02539
0.02539
0.02539
0.02539
0.02048
0.02376
0.02539
0.02949
0.03031
0.02621
0.02539
0.02539
0.02539
0.02539
0.02539
0.02949
0.03031
0.03031
0.03031
0.03031
0.02621
0.02539
0.02539
0.02539
0.02539
0.02539
0.02539
0.02539
0.02949
0.03031
0.03031
0.03031
0.03031
0.03031
0.03031
0.03440
0.03522
0.03113
0.03031
0.02621
0.02539
0.02539
0.02539
0.02130
0.02376
0.02539
0.02867
0.03031
0.02621
0.02130
0.01966
0.01966
0.02376
0.02130
0.01966
0.01966
0.01556
0.01474
0.01474
0.01065
0.00573
0.00082
-0.00410
-0.00491
-0.00491
-0.00901
-0.00983
-0.00983
-0.01393
-0.01884
-0.02376
-0.02539
-0.02539
-0.02539
-0.02867
-0.03031
-0.03031
-0.03031
-0.03031
-0.03031
-0.03031
-0.03031
-0.03031
-0.03031
-0.03031
-0.03031
-0.02621
-0.02130
-0.01966
-0.01638
-0.01884
-0.01966
-0.01966
-0.01966
-0.01966
-0.01966
-0.02376
-0.02867
-0.03031
-0.03031
-0.03031
-0.03031
-0.03359
-0.03522
-0.03932
-0.04014
-0.04014
-0.04014
-0.04423
-0.04505
-0.04915
-0.05406
-0.05488
-0.05488
-0.05488
-0.05488
-0.05488
-0.05488
-0.05488
-0.05488
-0.05898
-0.05980
-0.06389
-0.06471
-0.06471
-0.06144
-0.05570
-0.04751
-0.03686
-0.03113
-0.02212
-0.01638
-0.00737
0.00655
0.02130
0.03686
0.05161
0.06307
0.06471
0.06144
0.05652
0.04751
0.03686
0.02376
0.00491
-0.01147
-0.03031
-0.05079
-0.06307
-0.07618
-0.08355
-0.09256
-0.09912
-0.10403
-0.10895
-0.11386
-0.11468
-0.11468
-0.11468
-0.11141
-0.10977
-0.10977
-0.10977
-0.10649
-0.10485
-0.10485
-0.10485
-0.10895
-0.10977
-0.10649
-0.10485
-0.10485
-0.10158
-0.09994
-0.09994
-0.09994
-0.09994
-0.09994
-0.09994
-0.09994
-0.09584
-0.09502
-0.08765
-0.07782
-0.05243
-0.01884
0.02048
0.07127
0.13762
0.21953
0.31128
0.37681
0.36370
0.25721
0.08192
-0.11550
-0.29653
-0.43743
-0.52999
-0.58733
-0.61846
-0.61764
-0.58160
-0.51771
-0.42514
-0.32111
-0.23182
-0.16547
-0.11632
-0.08601
-0.06471
-0.05652
-0.04751
-0.04096
-0.03604
-0.03113
-0.03031
-0.02621
-0.02130
-0.01966
-0.01638
-0.01474
-0.01474
-0.01884
-0.01638
-0.01474
-0.01147
-0.00983
-0.00983
-0.00983
-0.00655
-0.00491
-0.00491
-0.00491
-0.00491
-0.00164
0.00000
0.00328
0.00491
0.00491
0.00491
0.00491
0.00491
0.00491
0.00901
0.00983
0.00983
0.00983
0.01393
0.01474
0.01474
0.01474
0.01474
0.01474
0.01474
0.01474
0.01884
0.01966
0.01966
0.02376
0.02539
0.02539
0.02539
0.02867
0.03031
0.02621
0.02539
0.02867
0.03031
0.03359
0.03522
0.03522
0.03522
0.03522
0.03522
0.03522
0.03522
0.03522
0.03522
0.03522
0.03522
0.03522
0.03522
0.03522
0.03850
0.04014
0.04014
0.04014
0.04014
0.04014
0.04014
0.04014
0.04014
0.04014
0.04014
0.04014
0.04014
0.04014
0.04014
0.04014
0.04014
0.04014
0.04014
0.04014
0.04014
0.04014
0.04014
0.04014
0.04014
0.04014
0.04014
0.04014
0.04014
0.04342
0.04505
0.04178
0.04014
0.04014
0.04014
0.04014
0.04014
0.04014
0.03686
0.03113
0.03031
0.02621
0.02539
0.02130
0.01638
0.01474
0.01474
0.01147
0.00655
0.00164
-0.00328
-0.00491
-0.00819
-0.00983
-0.01311
-0.01474
-0.01474
-0.01474
-0.01474
-0.01884
-0.01966
-0.01966
-0.01966
-0.02376
-0.02539
-0.02867
-0.03031
-0.03031
-0.03031
-0.03031
-0.03031
-0.03031
-0.03031
-0.03031
-0.03031
-0.03031
-0.03031
-0.03031
-0.03031
-0.03031
-0.03031
-0.03031
-0.03031
-0.03031
-0.03031
-0.03031
-0.03031
-0.03031
-0.03031
-0.03031
-0.03686
-0.04342
-0.04505
-0.04505
-0.04505
-0.04505
-0.04505
-0.04505
-0.04178
-0.03686
-0.02785
-0.01474
0.00000
0.01147
0.02212
0.03522
0.04014
0.04014
0.04014
0.04014
0.04342
0.04833
0.04669
0.03850
0.02130
0.00491
-0.00983
-0.02539
-0.03686
-0.04669
-0.05652
-0.06307
-0.06799
-0.07372
-0.07536
-0.07864
-0.08028
-0.08028
-0.08028
-0.08028
-0.08028
-0.08028
-0.08028
-0.08028
-0.08028
-0.08028
-0.08028
-0.08028
-0.07700
-0.07536
-0.07536
-0.07536
-0.07536
-0.07536
-0.07536
-0.07536
-0.07536
-0.07536
-0.07209
-0.06635
-0.06144
-0.05652
-0.05161
-0.03686
-0.01065
0.02294
0.06144
0.10731
0.16055
0.23510
0.31046
0.33503
0.27606
0.14089
-0.03522
-0.21380
-0.36616
-0.47675
-0.54556
-0.58488
-0.59798
-0.58078
-0.52426
-0.43497
-0.33176
-0.23346
-0.15482
-0.10076
-0.06553
-0.04505
-0.03359
-0.02703
-0.02212
-0.01638
-0.01474
-0.01147
-0.00655
-0.00491
-0.00491
-0.00491
-0.00491
-0.00491
-0.00491
-0.00491
-0.00164
0.00000
0.00328
0.00819
0.00983
0.01311
0.01474
0.01147
0.00983
0.00983
0.00983
0.01311
0.01474
0.01474
0.01474
0.01474
0.01474
0.01474
0.01474
0.01474
0.01474
0.01474
0.01802
0.01966
0.01966
0.01966
0.01966
0.01966
0.01966
0.01966
0.01966
0.01966
0.02294
0.02539
0.02539
0.02539
0.02785
0.03031
0.03031
0.03031
0.03031
0.03031
0.03031
0.03277
0.03522
0.03522
0.03850
0.04014
0.04014
0.04014
0.04014
0.04014
0.04014
0.04014
0.04014
0.04014
0.04014
0.04342
0.04505
0.04505
0.04833
0.04997
0.04997
0.04669
0.04505
0.04505
0.04505
0.04178
0.04014
0.04014
0.04014
0.04014
0.04014
0.04014
0.04014
0.04014
0.04014
0.04014
0.03686
0.03522
0.03195
0.03031
0.03031
0.03277
0.03522
0.03195
0.02703
0.02539
0.02539
0.02539
0.02212
0.01966
0.01966
0.01720
0.01474
0.01474
0.01474
0.01474
0.01229
0.00737
0.00164
-0.00328
-0.00491
-0.00491
-0.00491
-0.00819
-0.01311
-0.01802
-0.01966
-0.02294
-0.02539
-0.02539
-0.02539
-0.02785
-0.03031
-0.03031
-0.03031
-0.03031
-0.02703
-0.02539
-0.02539
-0.02539
-0.02212
-0.01966
-0.02294
-0.02539
-0.02212
-0.01966
-0.01720
-0.01474
-0.01474
-0.01474
-0.01474
-0.01474
-0.01474
-0.01802
-0.01966
-0.02294
-0.02539
-0.02539
-0.02539
-0.02539
-0.02539
-0.02539
-0.02539
-0.02785
-0.03031
-0.03031
-0.03031
-0.03031
-0.03277
-0.03522
-0.03768
-0.04014
-0.04260
-0.04751
-0.04997
-0.04997
-0.04997
-0.04997
-0.04751
-0.04505
-0.04505
-0.04505
-0.04505
-0.04505
-0.04505
-0.04505
-0.04178
-0.03686
-0.03195
-0.02703
-0.01966
-0.01229
-0.00737
-0.00491
0.00655
0.02376
0.03604
0.05161
0.06307
0.06799
0.06717
0.06471
0.06226
0.05406
0.04423
0.03440
0.02130
0.00410
-0.01638
-0.03031
-0.04342
-0.05570
-0.06553
-0.07536
-0.08028
-0.08273
-0.08192
-0.08028
-0.08028
-0.08028
-0.08028
-0.08028
-0.08028
-0.08028
-0.08273
-0.08519
-0.08765
-0.09011
-0.08683
-0.08519
-0.08192
-0.08028
-0.08028
-0.08028
-0.08028
-0.08028
-0.08273
-0.08519
-0.08519
-0.08519
-0.08519
-0.08192
-0.08028
-0.07700
-0.06717
-0.04915
-0.02048
0.01720
0.06226
0.12042
0.19086
0.27687
0.35551
0.37681
0.31865
0.17694
-0.01065
-0.20315
-0.36616
-0.48166
-0.55211
-0.58815
-0.59716
-0.57587
-0.52508
-0.44398
-0.34323
-0.24411
-0.16793
-0.11878
-0.08683
-0.06144
-0.04178
-0.03195
-0.03031
-0.02703
-0.02212
-0.01720
-0.01229
-0.00983
-0.00983
-0.00983
-0.00983
-0.00737
-0.00491
-0.00491
-0.00491
-0.00491
-0.00491
-0.00491
-0.00246
0.00000
0.00246
0.00491
0.00491
0.00491
0.00491
0.00491
0.00491
0.00737
0.00983
0.01229
0.01474
0.01474
0.01474
0.01474
0.01474
0.01474
0.01474
0.01474
0.01474
0.01474
0.01720
0.01966
0.01966
0.01966
0.01966
0.01966
0.01966
0.01966
0.02294
0.02539
0.02785
0.03031
0.03031
0.03031
0.03031
0.03277
0.03768
0.04014
0.04014
0.04014
0.04014
0.04014
0.04014
0.04014
0.04014
0.04014
0.04014
0.04014
0.04260
0.04260
0.04014
0.04014
0.04014
0.04014
0.04014
0.04014
0.04014
0.04014
0.04014
0.04014
0.04014
0.04014
0.04014
0.04014
0.04014
0.04014
0.04014
0.04014
0.04014
0.04014
0.04014
0.04014
0.04014
0.04014
0.04260
0.04260
0.04014
0.04014
0.04014
0.04014
0.04014
0.04260
0.04505
0.04505
0.04505
0.04505
0.04260
0.04014
0.04014
0.04014
0.04014
0.04014
0.03768
0.03522
0.03277
0.03031
0.02785
0.02539
0.02294
0.01720
0.01474
0.01474
0.01474
0.01229
0.00737
0.00246
-0.00246
-0.00491
-0.00491
-0.00737
-0.00983
-0.01229
-0.01229
-0.00983
-0.00983
-0.00983
-0.00983
-0.00983
-0.01229
-0.01474
-0.01720
-0.01966
-0.01966
-0.01966
-0.01720
-0.01720
-0.01966
-0.01966
-0.02212
-0.02294
-0.02212
-0.02539
-0.02539
-0.02539
-0.02539
-0.02539
-0.02539
-0.02539
-0.02703
-0.03031
-0.03031
-0.03277
-0.03522
-0.03768
-0.04014
-0.04014
-0.04014
-0.04014
-0.04014
-0.04260
-0.04505
-0.04505
-0.04505
-0.04505
-0.04260
-0.03522
-0.02294
-0.01065
0.00164
0.01720
0.03195
0.04260
0.04505
0.04505
0.04505
0.04751
0.05243
0.05243
0.04505
0.03113
0.01311
-0.00164
-0.01884
-0.03440
-0.04669
-0.05488
-0.05734
-0.06226
-0.06471
-0.06471
-0.06717
-0.06963
-0.07209
-0.07536
-0.07700
-0.08028
-0.08028
-0.08028
-0.07782
-0.07536
-0.07700
-0.08028
-0.07782
-0.07536
-0.07536
-0.07536
-0.07536
-0.07290
-0.06963
-0.06963
-0.06963
-0.06799
-0.06471
-0.06471
-0.06471
-0.06471
-0.06307
-0.05816
-0.04423
-0.01884
0.01065
0.04587
0.08519
0.14089
0.21544
0.29326
0.33913
0.31210
0.19905
0.02785
-0.15236
-0.31619
-0.44398
-0.52180
-0.56767
-0.59471
-0.58651
-0.54146
-0.46364
-0.36616
-0.26623
-0.17939
-0.11796
-0.07700
-0.05161
-0.03604
-0.02785
-0.02048
-0.01311
-0.00983
-0.00819
-0.00491
-0.00491
-0.00491
-0.00491
-0.00491
-0.00491
-0.00491
-0.00246
0.00000
0.00000
0.00000
0.00246
0.00737
0.00983
0.01229
0.01474
0.01474
0.01474
0.01474
0.01474
0.01474
0.01474
0.01474
0.01474
0.01474
0.01474
0.01474
0.01474
0.01474
0.01720
0.01966
0.02212
0.02539
0.02539
0.02539
0.02539
0.02539
0.02539
0.02539
0.02539
0.02539
0.02539
0.02703
0.03031
0.03031
0.03031
0.03195
0.03522
0.03522
0.03686
0.04014
0.04014
0.04014
0.04014
0.04014
0.04014
0.04014
0.04014
0.04178
0.04505
0.04260
0.04014
0.04014
0.04014
0.04014
0.04014
0.04014
0.03768
0.03522
0.03522
0.03686
0.03768
0.03522
0.03522
0.03277
0.03195
0.03522
0.03522
0.03522
0.03522
0.03522
0.03522
0.03277
0.02621
0.01966
0.01802
0.01720
0.01966
0.01966
0.01802
0.01474
0.01474
0.01474
0.01720
0.01966
0.02212
0.02539
0.02539
0.02539
0.02294
0.01966
0.01802
0.01474
0.01474
0.01474
0.01311
0.00819
0.00328
0.00000
-0.00164
-0.00491
-0.00655
-0.01229
-0.01474
-0.01720
-0.01966
-0.01966
-0.02212
-0.02703
-0.03031
-0.03031
-0.03031
-0.03031
-0.03031
-0.03031
-0.03031
-0.03031
-0.03031
-0.03031
-0.03031
-0.03031
-0.03031
-0.03031
-0.03031
-0.03031
-0.03031
-0.03031
-0.03031
-0.03031
-0.02785
-0.02539
-0.02539
-0.02539
-0.02539
-0.02539
-0.02294
-0.01966
-0.02212
-0.02539
-0.02703
-0.03195
-0.03686
-0.04014
-0.04178
-0.04342
-0.04014
-0.04178
-0.04669
-0.05161
-0.05488
-0.05488
-0.05488
-0.05488
-0.05488
-0.05652
-0.05980
-0.05980
-0.05980
-0.05980
-0.05980
-0.05816
-0.05488
-0.05488
-0.05488
-0.05488
-0.05488
-0.04915
-0.03604
-0.03031
-0.02621
-0.01802
-0.01147
-0.00164
0.01065
0.02703
0.04342
0.05570
0.06471
0.06307
0.05816
0.05325
0.04833
0.04342
0.03277
0.01474
0.00000
-0.01720
-0.03686
-0.05325
-0.06553
-0.07700
-0.08192
-0.08683
-0.09175
-0.09502
-0.09502
-0.09666
-0.09830
-0.09502
-0.09502
-0.09338
-0.08847
-0.08519
-0.08683
-0.09175
-0.09666
-0.09994
-0.09994
-0.09994
-0.09830
-0.09502
-0.09502
-0.09502
-0.09502
-0.09666
-0.09994
-0.09994
-0.09994
-0.09994
-0.09994
-0.09830
-0.09502
-0.09011
-0.07127
-0.04342
-0.00655
0.03850
0.09666
0.16711
0.25230
0.33340
0.36289
0.31456
0.18595
0.00491
-0.18677
-0.35715
-0.48002
-0.55703
-0.59798
-0.61355
-0.59471
-0.54146
-0.46528
-0.37026
-0.27032
-0.19004
-0.13352
-0.09338
-0.07372
-0.05816
-0.05325
-0.04833
-0.04342
-0.03850
-0.03522
-0.03359
-0.03031
-0.03031
-0.03031
-0.03031
-0.03031
-0.02867
-0.02539
-0.02539
-0.02376
-0.01966
-0.01802
-0.01474
-0.01474
-0.01474
-0.01474
-0.01311
-0.00819
-0.00491
-0.00491
-0.00491
-0.00491
-0.00491
-0.00328
0.00000
0.00000
0.00000
0.00000
0.00000
0.00164
0.00491
0.00655
0.00983
0.00983
0.01147
0.01474
0.01474
0.01474
0.01474
0.01474
0.01474
0.01474
0.01474
0.01474
0.01638
0.01966
0.01966
0.02130
0.02539
0.02539
0.02539
0.02539
0.02539
0.02621
0.03031
0.02867
0.02539
0.02621
0.03031
0.03031
0.03113
0.03522
0.03359
0.03113
0.03522
0.03522
0.03522
0.03686
0.04014
0.04014
0.04014
0.04014
0.04014
0.03850
0.03522
0.03522
0.03522
0.03522
0.03686
0.04014
0.04014
0.04014
0.04014
0.04014
0.04014
0.03850
0.03522
0.03522
0.03522
0.03686
0.04014
0.04014
0.04014
0.04014
0.04014
0.04014
0.04014
0.04014
0.04014
0.04014
0.04014
0.04014
0.04014
0.04014
0.04014
0.04014
0.03850
0.03359
0.02867
0.02376
0.01884
0.01474
0.01474
0.01474
0.01393
0.00983
0.00819
0.00491
0.00328
-0.00164
-0.00491
-0.00491
-0.00655
-0.01147
-0.01474
-0.01638
-0.01966
-0.01966
-0.02130
-0.02539
-0.02539
-0.02539
-0.02376
-0.01966
-0.01966
-0.02130
-0.02539
-0.02539
-0.02539
-0.02539
-0.02621
-0.03031
-0.03031
-0.03031
-0.03031
-0.03031
-0.03031
-0.03031
-0.03031
-0.03113
-0.03522
-0.03522
-0.03522
-0.03522
-0.03604
-0.04014
-0.04014
-0.04014
-0.04014
-0.04014
-0.04096
-0.04505
-0.04505
-0.04669
-0.04997
-0.04997
-0.04833
-0.04505
-0.04260
-0.03113
-0.01638
-0.00246
0.00901
0.02376
0.03604
0.04014
0.03850
0.03522
0.03604
0.04014
0.04014
0.03604
0.02130
0.00655
-0.00901
-0.02376
-0.03850
-0.05243
-0.06226
-0.07127
-0.07618
-0.08028
-0.08028
-0.08028
-0.08028
-0.08028
-0.08028
-0.08028
-0.08028
-0.08028
-0.08028
-0.08028
-0.08028
-0.08028
-0.08028
-0.08028
-0.08028
-0.08028
-0.08028
-0.08028
-0.07864
-0.07536
-0.07536
-0.07618
-0.08028
-0.07864
-0.07536
-0.07372
-0.06963
-0.06881
-0.06226
-0.04997
-0.02785
0.00328
0.03932
0.08273
0.13762
0.19987
0.28179
0.33503
0.31374
0.20643
0.03686
-0.14581
-0.31292
-0.44071
-0.52180
-0.56849
-0.59634
-0.59307
-0.55375
-0.47839
-0.38091
-0.27851
-0.18922
-0.12451
-0.08355
-0.05570
-0.03768
-0.02867
-0.02376
-0.01884
-0.01393
-0.00983
-0.00901
-0.00491
-0.00491
-0.00491
-0.00491
-0.00491
-0.00491
-0.00491
-0.00491
-0.00491
-0.00410
0.00000
0.00000
0.00000
0.00082
0.00491
0.00573
0.00983
0.00983
0.00983
0.00983
0.01147
0.01474
0.01474
0.01474
0.01474
0.01474
0.01474
0.01474
0.01474
0.01474
0.01474
0.01474
0.01638
0.01966
0.02130
0.02539
0.02621
0.03031
0.03031
0.03031
0.02867
0.02539
0.02539
0.02539
0.02539
0.02539
0.02621
0.03031
0.03031
0.03031
0.03031
0.03113
0.03522
0.03522
0.03522
0.03522
0.03522
0.03522
0.03522
0.03522
0.03522
0.03440
0.03031
0.03113
0.03522
0.03522
0.03522
0.03522
0.03522
0.03522
0.03522
0.03522
0.03522
0.03604
0.03932
0.03522
0.03440
0.03031
0.02867
0.02539
0.02539
0.02539
0.02621
0.03031
0.03113
0.03522
0.03522
0.03522
0.03522
0.03522
0.03522
0.03522
0.03440
0.02867
0.02539
0.02539
0.02621
0.03031
0.02867
0.02539
0.02376
0.01966
0.01884
0.01474
0.01474
0.01474
0.01393
0.00901
0.00491
0.00410
-0.00082
-0.00491
-0.00573
-0.00983
-0.01065
-0.01474
-0.01556
-0.02130
-0.02539
-0.02376
-0.01966
-0.01884
-0.01474
-0.01393
-0.00983
-0.00983
-0.00983
-0.01065
-0.01393
-0.00983
-0.00983
-0.00983
-0.00983
-0.00983
-0.00983
-0.00983
-0.00983
-0.00983
-0.00983
-0.00983
-0.00983
-0.00983
-0.01065
-0.01474
-0.01556
-0.02048
-0.02539
-0.02539
-0.02539
-0.02539
-0.02457
-0.02048
-0.02539
-0.02621
-0.03031
-0.03031
-0.03113
-0.03604
-0.04096
-0.04505
-0.04505
-0.04505
-0.04505
-0.04505
-0.04505
-0.04587
-0.04997
-0.04997
-0.04997
-0.04915
-0.04505
-0.04423
-0.04014
-0.04014
-0.03932
-0.03522
-0.03522
-0.03440
-0.02949
-0.02376
-0.01311
-0.00491
-0.00491
-0.00328
0.00655
0.01802
0.03686
0.05243
0.06799
0.08519
0.08519
0.08437
0.07864
0.06881
0.05816
0.04260
0.02785
0.01229
-0.00819
-0.02703
-0.04178
-0.05570
-0.06062
-0.06553
-0.06963
-0.06963
-0.06963
-0.07045
-0.07536
-0.08028
-0.08110
-0.08519
-0.08437
-0.08028
-0.08028
-0.08028
-0.08110
-0.08519
-0.08601
-0.09011
-0.09011
-0.08929
-0.08519
-0.08601
-0.08929
-0.08437
-0.08028
-0.08028
-0.08028
-0.08028
-0.08028
-0.07946
-0.07536
-0.07372
-0.06307
-0.04587
-0.01556
0.02048
0.06635
0.11878
0.19250
0.28588
0.36370
0.38336
0.31619
0.16055
-0.02867
-0.21544
-0.37435
-0.48412
-0.54965
-0.58651
-0.59716
-0.57341
-0.51607
-0.44234
-0.34241
-0.24493
-0.16383
-0.11550
-0.07700
-0.05406
-0.04342
-0.03440
-0.02949
-0.02539
-0.02539
-0.02457
-0.01966
-0.01966
-0.01966
-0.01966
-0.01966
-0.01474
-0.01474
-0.00983
-0.00983
-0.00983
-0.00983
-0.00983
-0.00983
-0.00491
-0.00491
-0.00491
-0.00491
-0.00491
-0.00491
-0.00491
-0.00491
-0.00491
-0.00491
-0.00491
-0.00491
-0.00491
-0.00410
0.00000
0.00082
0.00491
0.00491
0.00573
0.01065
0.01474
0.01474
0.01474
0.01474
0.01474
0.01474
0.01474
0.01474
0.01474
0.01474
0.01474
0.01474
0.01474
0.01474
0.01474
0.01556
0.01966
0.02048
0.02539
0.03031
0.02949
0.02457
0.01966
0.02048
0.02539
0.02539
0.03031
0.03031
0.03031
0.03031
0.03031
0.03031
0.03522
0.03522
0.03440
0.03031
0.03031
0.03031
0.03031
0.03031
0.03522
0.03522
0.03522
0.03522
0.03522
0.03522
0.04014
0.04014
0.04014
0.04014
0.04014
0.04014
0.04014
0.04014
0.03932
0.03522
0.03522
0.03522
0.03522
0.04014
0.03932
0.03522
0.03522
0.04014
0.04014
0.04014
0.04014
0.04014
0.04014
0.04014
0.04014
0.04014
0.03932
0.03522
0.03522
0.03440
0.03031
0.02949
0.02539
0.02457
0.01966
0.01474
0.01474
0.01474
0.00983
0.00491
0.00000
-0.00491
-0.00491
-0.00573
-0.00983
-0.00983
-0.01065
-0.01474
-0.01556
-0.01966
-0.01966
-0.02048
-0.02539
-0.02539
-0.02539
-0.02539
-0.02539
-0.02539
-0.02539
-0.02539
-0.02539
-0.02539
-0.02539
-0.02539
-0.02539
-0.02539
-0.02539
-0.03031
-0.03031
-0.03031
-0.03031
-0.03031
-0.03522
-0.04014
-0.04014
-0.04505
-0.04505
-0.04505
-0.04505
-0.04505
-0.04505
-0.04997
-0.04997
-0.04997
-0.04505
-0.04505
-0.04997
-0.04997
-0.05488
-0.04997
-0.04423
-0.02949
-0.01474
-0.00410
0.01556
0.03031
0.04014
0.04014
0.04014
0.04014
0.04014
0.04505
0.04997
0.04423
0.02949
0.01393
-0.00573
-0.01556
-0.03031
-0.04014
-0.04997
-0.05488
-0.05980
-0.05980
-0.06471
-0.06553
-0.06963
-0.07045
-0.07536
-0.07536
-0.07536
-0.07536
-0.07536
-0.07454
-0.06963
-0.06963
-0.06963
-0.06963
-0.06963
-0.06963
-0.06963
-0.06963
-0.06471
-0.06553
-0.06963
-0.06963
-0.06963
-0.06963
-0.06963
-0.06471
-0.06471
-0.05980
-0.05406
-0.03440
-0.00410
0.02621
0.06635
0.11141
0.17202
0.25230
0.34159
0.38910
0.35142
0.22035
0.03031
-0.16383
-0.33258
-0.45709
-0.53081
-0.57095
-0.59471
-0.59389
-0.54310
-0.46282
-0.35797
-0.25312
-0.16875
-0.10403
-0.06963
-0.04505
-0.02949
-0.01966
-0.00983
-0.00491
-0.00491
-0.00491
-0.00491
-0.00491
-0.00491
-0.00491
0.00000
0.00000
0.00000
0.00000
0.00000
0.00000
0.00000
0.00491
0.00983
0.00983
0.01474
0.01474
0.01474
0.01474
0.01474
0.01474
0.01474
0.01474
0.01474
0.01474
0.01474
0.01474
0.01474
0.01474
0.01474
0.01474
0.01966
0.01966
0.01966
0.02539
0.02539
0.02539
0.02539
0.02539
0.02539
0.02539
0.02539
0.03031
0.03031
0.03031
0.03031
0.03522
0.03522
0.03522
0.03522
0.04014
0.03522
0.03522
0.03522
0.03522
0.04014
0.04014
0.04014
0.04014
0.04014
0.04014
0.04014
0.03522
0.04014
0.04014
0.04014
0.04014
0.04014
0.04014
0.04014
0.04014
0.04014
0.04014
0.04014
0.04014
0.04014
0.04014
0.04014
0.04014
0.04014
0.04014
0.04014
0.03522
0.04014
0.04014
0.04014
0.04014
0.03522
0.03522
0.03522
0.03522
0.03522
0.03031
0.03031
0.03031
0.03031
0.03031
0.03031
0.03031
0.03031
0.03031
0.03031
0.02539
0.02539
0.02539
0.01556
0.01474
0.01474
0.00983
0.00491
0.00000
-0.00491
-0.00491
-0.00983
-0.01474
-0.01474
-0.01966
-0.02457
-0.02539
-0.02949
-0.03031
-0.03031
-0.03031
-0.03031
-0.03031
-0.03031
-0.03031
-0.03031
-0.03031
-0.03031
-0.03031
-0.02539
-0.02048
-0.01966
-0.01556
-0.01474
-0.01474
-0.01474
-0.01474
-0.01474
-0.01474
-0.01474
-0.01474
-0.01474
-0.01474
-0.01474
-0.01474
-0.01474
-0.01474
-0.01474
-0.01474
-0.01474
-0.01474
-0.01966
-0.01966
-0.02457
-0.02949
-0.03031
-0.03031
-0.03031
-0.03440
-0.03522
-0.03522
-0.03522
-0.03522
-0.03522
-0.04014
-0.04505
-0.04505
-0.04014
-0.04014
-0.04014
-0.04505
-0.04505
-0.04014
-0.04014
-0.04505
-0.04505
-0.04505
-0.04505
-0.04014
-0.03522
-0.03031
-0.01556
-0.00573
0.00000
0.00901
0.01474
0.02949
0.03932
0.05898
0.06963
0.07946
0.08028
0.07536
0.07045
0.06553
0.06062
0.04587
0.03522
0.01638
-0.00410
-0.01474
-0.02867
-0.04423
-0.05406
-0.06471
-0.06963
-0.07454
-0.07536
-0.07946
-0.08028
-0.08028
-0.08028
-0.08028
-0.08028
-0.08028
-0.08028
-0.08028
-0.07536
-0.07536
-0.07536
-0.07536
-0.07946
-0.08028
-0.08028
-0.08028
-0.08028
-0.08028
-0.08028
-0.08028
-0.08028
-0.07536
-0.07536
-0.07045
-0.06963
-0.06062
-0.05079
-0.02212
0.00737
0.03768
0.08110
0.13106
0.19004
0.26868
0.31619
0.28752
0.17530
0.00410
-0.17530
-0.33176
-0.45054
-0.52426
-0.56686
-0.59307
-0.59061
-0.54392
-0.46692
-0.36862
-0.26868
-0.17776
-0.11960
-0.08273
-0.05734
-0.04096
-0.03113
-0.02130
-0.01556
-0.01065
-0.00573
-0.00491
-0.00491
-0.00491
-0.00491
-0.00491
-0.00491
-0.00491
-0.00491
-0.00491
-0.00491
-0.00491
-0.00491
-0.00082
0.00000
0.00000
0.00000
0.00000
0.00491
0.00983
0.00983
0.01474
0.01474
0.01474
0.01474
0.01474
0.01474
0.01474
0.01474
0.01474
0.01474
0.01474
0.01474
0.01474
0.01474
0.01474
0.01065
0.00983
0.00983
0.01474
0.01474
0.01474
0.01474
0.01474
0.01474
0.01474
0.01474
0.01474
0.01474
0.01966
0.01966
0.02457
0.02539
0.02539
0.02539
0.02949
0.03031
0.03031
0.03031
0.03031
0.03031
0.03031
0.03031
0.03031
0.03440
0.03522
0.03522
0.03522
0.03031
0.02539
0.02539
0.02949
0.03031
0.02539
0.02539
0.02539
0.02949
0.03031
0.03031
0.03031
0.03031
0.03031
0.03031
0.03440
0.03031
0.03031
0.02539
0.02539
0.02539
0.02539
0.02539
0.02949
0.03031
0.02539
0.02539
0.02949
0.03031
0.03031
0.03031
0.02539
0.02539
0.02048
0.01556
0.01474
0.01474
0.01474
0.01474
0.01474
0.01065
0.00983
0.00573
0.00082
-0.00410
-0.00491
-0.00491
-0.00491
-0.00901
-0.00983
-0.01393
-0.01966
-0.01966
-0.01966
-0.02457
-0.02539
-0.02048
-0.01966
-0.01966
-0.01556
-0.01474
-0.01474
-0.01474
-0.01474
-0.01966
-0.01966
-0.02457
-0.02539
-0.02539
-0.02048
-0.01966
-0.01966
-0.02457
-0.02949
-0.03031
-0.03031
-0.03031
-0.03031
-0.03031
-0.03440
-0.03522
-0.03522
-0.03522
-0.03522
-0.03932
-0.04014
-0.04014
-0.04014
-0.04423
-0.04915
-0.05406
-0.05488
-0.05488
-0.05488
-0.05898
-0.05980
-0.06389
-0.06471
-0.06881
-0.06963
-0.06963
-0.06553
-0.06471
-0.06471
-0.06471
-0.06471
-0.06881
-0.06963
-0.06144
-0.05570
-0.05079
-0.03768
-0.03113
-0.02130
-0.01556
-0.00655
0.00328
0.01720
0.03686
0.05243
0.05898
0.05570
0.05079
0.04587
0.04096
0.03195
0.01720
0.00246
-0.01229
-0.02785
-0.04669
-0.06226
-0.07782
-0.08437
-0.09338
-0.09912
-0.10403
-0.10485
-0.10485
-0.10485
-0.10485
-0.10485
-0.10485
-0.10076
-0.09994
-0.09994
-0.09994
-0.09994
-0.09994
-0.09994
-0.09994
-0.09994
-0.09994
-0.09994
-0.09994
-0.09994
-0.09994
-0.09994
-0.09584
-0.09502
-0.09093
-0.09011
-0.09011
-0.08601
-0.08519
-0.08110
-0.06389
-0.03522
-0.00573
0.03277
0.08437
0.15154
0.23837
0.32848
0.36944
0.32602
0.18513
0.00901
-0.16711
-0.32930
-0.45299
-0.53163
-0.58160
-0.60208
-0.58897
-0.54064
-0.46118
-0.36043
-0.26377
-0.18431
-0.12943
-0.09175
-0.06471
-0.04833
-0.03686
-0.03113
-0.03031
-0.02621
-0.02130
-0.01966
-0.01966
-0.01966
-0.01966
-0.01638
-0.01474
-0.01065
-0.00983
-0.00983
-0.00983
-0.00573
-0.00491
-0.00491
-0.00491
-0.00082
0.00000
0.00410
0.00491
0.00901
0.00983
0.00573
0.00491
0.00491
0.00901
0.00983
0.00983
0.00983
0.01393
0.01474
0.01474
0.01474
0.01474
0.01474
0.01474
0.01474
0.01474
0.01884
0.01966
0.01966
0.01966
0.01966
0.01966
0.02376
0.02539
0.02539
0.02867
0.03031
0.03031
0.02621
0.02539
0.02867
0.03031
0.03359
0.03522
0.03522
0.03522
0.03850
0.04014
0.04014
0.04014
0.04014
0.04014
0.04014
0.04014
0.04014
0.04014
0.03604
0.03522
0.03522
0.03522
0.03522
0.03522
0.03522
0.03850
0.03604
0.03522
0.03850
0.04014
0.04014
0.04014
0.04014
0.03604
0.03522
0.03522
0.03522
0.03522
0.03522
0.03522
0.03522
0.03522
0.03850
0.04014
0.04014
0.04014
0.04014
0.04014
0.04014
0.04014
0.03604
0.03522
0.03522
0.03522
0.03522
0.03522
0.03113
0.03031
0.03031
0.02621
0.02539
0.02130
0.01966
0.01638
0.01474
0.00737
0.00082
-0.00410
-0.00491
-0.00491
-0.00901
-0.00983
-0.01393
-0.01884
-0.01966
-0.02376
-0.02130
-0.02376
-0.02539
-0.02539
-0.02539
-0.02539
-0.02539
-0.02867
-0.03031
-0.03031
-0.03031
-0.03031
-0.03031
-0.03031
-0.03031
-0.03031
-0.03031
-0.03031
-0.03031
-0.03031
-0.03031
-0.03031
-0.03359
-0.03522
-0.03522
-0.03522
-0.03850
-0.04014
-0.04014
-0.04014
-0.04014
-0.04014
-0.04014
-0.04014
-0.04342
-0.04833
-0.04997
-0.04997
-0.05406
-0.05488
-0.05488
-0.05488
-0.05488
-0.05161
-0.04669
-0.03768
-0.02785
-0.01065
0.00246
0.01229
0.02621
0.03359
0.03522
0.03522
0.03522
0.03850
0.04014
0.04014
0.02867
0.01393
-0.00082
-0.01556
-0.03113
-0.04587
-0.05734
-0.06717
-0.07372
-0.07864
-0.08028
-0.08355
-0.08519
-0.08519
-0.08110
-0.08028
-0.08355
-0.08110
-0.08028
-0.08028
-0.08028
-0.08028
-0.08028
-0.08028
-0.07618
-0.07536
-0.07536
-0.07536
-0.07864
-0.08028
-0.08028
-0.07618
-0.07536
-0.07127
-0.06963
-0.06963
-0.06963
-0.06963
-0.06635
-0.06144
-0.04915
-0.02376
0.00983
0.04833
0.09584
0.15646
0.22854
0.29981
0.33422
0.28670
0.15892
-0.01966
-0.19905
-0.35633
-0.47101
-0.54638
-0.58651
-0.60536
-0.59225
-0.54228
-0.46528
-0.36616
-0.26786
-0.18759
-0.12943
-0.09011
-0.06226
-0.04423
-0.03277
-0.02621
-0.02130
-0.01966
-0.01966
-0.01638
-0.01474
-0.01147
-0.00983
-0.00983
-0.00983
-0.00655
-0.00491
-0.00491
-0.00491
-0.00491
-0.00491
-0.00491
-0.00491
-0.00491
-0.00491
-0.00164
0.00000
0.00328
0.00491
0.00491
0.00491
0.00819
0.01311
0.01474
0.01474
0.01474
0.01147
0.00983
0.00655
0.00491
0.00819
0.00983
0.00983
0.01311
0.01474
0.01474
0.01474
0.01474
0.01474
0.01474
0.01474
0.01474
0.01474
0.01474
0.01474
0.01474
0.01474
0.01474
0.01474
0.01474
0.01474
0.01474
0.01474
0.01802
0.01966
0.01966
0.01966
0.01966
0.01966
0.01966
0.01966
0.01966
0.01966
0.01966
0.01966
0.01966
0.01966
0.01966
0.01966
0.01966
0.01966
0.02376
0.02539
0.02130
0.02376
0.02130
0.02376
0.02539
0.02867
0.03031
0.02703
0.02539
0.02130
0.01966
0.01966
0.01638
0.01474
0.01474
0.01474
0.01474
0.01474
0.01474
0.01474
0.01474
0.01474
0.01474
0.01474
0.01474
0.01474
0.01474
0.01474
0.01147
0.00983
0.00983
0.00983
0.00655
0.00164
0.00000
-0.00328
-0.00491
-0.00819
-0.00983
-0.01311
-0.01802
-0.02294
-0.02867
-0.03031
-0.03031
-0.03031
-0.03031
-0.03359
-0.03850
-0.04014
-0.04342
-0.04505
-0.04178
-0.04014
-0.04014
-0.04342
-0.04505
-0.04505
-0.04178
-0.04014
-0.04014
-0.04014
-0.04014
-0.04014
-0.04342
-0.04505
-0.04505
-0.04505
-0.04505
-0.04505
-0.04833
-0.05325
-0.05488
-0.05488
-0.05488
-0.05488
-0.05488
-0.05488
-0.05488
-0.05816
-0.05980
-0.06307
-0.06471
-0.06471
-0.06471
-0.06471
-0.06471
-0.06471
-0.06471
-0.06471
-0.06471
-0.06799
-0.06963
-0.06963
-0.06963
-0.06963
-0.06963
-0.06963
-0.06963
-0.06963
-0.06963
-0.06717
-0.06471
-0.06226
-0.05980
-0.05652
-0.05161
-0.04669
-0.04178
-0.03359
-0.02703
-0.01884
-0.00573
0.00901
0.02457
0.03604
0.04342
0.04505
0.04178
0.04014
0.03359
0.02703
0.01884
0.00246
-0.01393
-0.02949
-0.04751
-0.06389
-0.07618
-0.08601
-0.09584
-0.09994
-0.10321
-0.10485
-0.10485
-0.10158
-0.09994
-0.09994
-0.10321
-0.10485
-0.10485
-0.10485
-0.10485
-0.10485
-0.10485
-0.10485
-0.10485
-0.10485
-0.10485
-0.10485
-0.10485
-0.10485
-0.10485
-0.10485
-0.10485
-0.10485
-0.10485
-0.10485
-0.10158
-0.09994
-0.09666
-0.08601
-0.07127
-0.04342
-0.01147
0.03031
0.08601
0.15564
0.24575
0.33585
0.37026
0.32193
0.19660
0.02048
-0.16957
-0.34077
-0.46774
-0.54638
-0.59061
-0.60781
-0.58897
-0.53327
-0.45381
-0.36289
-0.26868
-0.18513
-0.12779
-0.09175
-0.06799
-0.05406
-0.04423
-0.03686
-0.03195
-0.03031
-0.03031
-0.03031
-0.02703
-0.02539
-0.02212
-0.01966
-0.01966
-0.01966
-0.01966
-0.01720
-0.01474
-0.01474
-0.01474
-0.01229
-0.00737
-0.00491
-0.00246
-0.00328
-0.00491
-0.00491
-0.00491
-0.00246
-0.00328
-0.00491
-0.00491
-0.00246
0.00000
0.00000
0.00000
0.00328
0.00491
0.00491
0.00491
0.00819
0.00983
0.00983
0.01311
0.01474
0.01474
0.01474
0.01474
0.01474
0.01474
0.01474
0.01474
0.01474
0.01474
0.01474
0.01474
0.01474
0.01474
0.01474
0.01474
0.01474
0.01802
0.02294
0.02539
0.02539
0.02539
0.02539
0.02785
0.03031
0.03031
0.02703
0.02539
0.02539
0.02539
0.02539
0.02539
0.02539
0.02785
0.03031
0.03031
0.03031
0.03277
0.03522
0.03522
0.03522
0.03522
0.03522
0.03522
0.03522
0.03522
0.03522
0.03522
0.03522
0.03522
0.03522
0.03522
0.03522
0.03522
0.03522
0.03522
0.03768
0.04014
0.04014
0.03686
0.03522
0.03768
0.04014
0.03686
0.03522
0.03522
0.03522
0.03522
0.03522
0.03195
0.03031
0.03031
0.02703
0.02212
0.01720
0.01474
0.01229
0.00737
0.00246
-0.00246
-0.00491
-0.00491
-0.00491
-0.00491
-0.00737
-0.01311
-0.01474
-0.01802
-0.01966
-0.01966
-0.02294
-0.02539
-0.02539
-0.02539
-0.02539
-0.02539
-0.02785
-0.02703
-0.02539
-0.02539
-0.02539
-0.02539
-0.02539
-0.02539
-0.02539
-0.02539
-0.02539
-0.02539
-0.02785
-0.03031
-0.03031
-0.03031
-0.03031
-0.03031
-0.03031
-0.03277
-0.03522
-0.03768
-0.04014
-0.04260
-0.04505
-0.04751
-0.04997
-0.04997
-0.04997
-0.04997
-0.05243
-0.05488
-0.05488
-0.05488
-0.05243
-0.04997
-0.04505
-0.03195
-0.01474
0.00000
0.00983
0.02294
0.03522
0.04014
0.04014
0.04014
0.04014
0.04014
0.04014
0.03440
0.02212
0.00491
-0.01311
-0.02539
-0.03768
-0.04997
-0.05980
-0.06799
-0.07290
-0.07782
-0.08273
-0.08519
-0.08765
-0.09011
-0.09011
-0.09011
-0.09256
-0.09256
-0.09011
-0.09256
-0.09502
-0.09502
-0.09502
-0.09502
-0.09502
-0.09502
-0.09502
-0.09502
-0.09502
-0.09256
-0.09011
-0.08765
-0.08519
-0.08519
-0.08519
-0.08519
-0.08273
-0.08028
-0.07536
-0.06226
-0.04260
-0.01229
0.02294
0.06553
0.12042
0.18513
0.25721
0.31537
0.31210
0.22281
0.06226
-0.12205
-0.29490
-0.43497
-0.52754
-0.57996
-0.61027
-0.61273
-0.57750
-0.50788
-0.41285
-0.31046
-0.22035
-0.15318
-0.10731
-0.07782
-0.05980
-0.04997
-0.04260
-0.03768
-0.03277
-0.03031
-0.02785
-0.02294
-0.01966
-0.01966
-0.01966
-0.01720
-0.01229
-0.00983
-0.00737
-0.00737
-0.00983
-0.00983
-0.00983
-0.00983
-0.00737
-0.00491
-0.00246
0.00000
0.00000
0.00000
0.00246
0.00491
0.00737
0.00983
0.00737
0.00491
0.00491
0.00491
0.00491
0.00491
0.00491
0.00491
0.00491
0.00491
0.00246
0.00000
0.00000
0.00246
0.00491
0.00737
0.00983
0.00983
0.01229
0.01474
0.01229
0.00983
0.00983
0.01229
0.01474
0.01474
0.01474
0.01474
0.01474
0.01474
0.01474
0.01720
0.01966
0.01966
0.01966
0.01966
0.01966
0.01966
0.01966
0.01966
0.01966
0.01802
0.01474
0.01474
0.01720
0.01966
0.01966
0.01802
0.01474
0.01474
0.01474
0.01474
0.01474
0.01311
0.01229
0.01474
0.01474
0.01474
0.01474
0.01474
0.01474
0.01474
0.01474
0.01474
0.01474
0.01474
0.01474
0.01474
0.01474
0.01474
0.01474
0.01474
0.01474
0.01474
0.01474
0.01474
0.01474
0.01311
0.01229
0.01474
0.01474
0.01474
0.01311
0.00737
0.00246
-0.00246
-0.00491
-0.00737
-0.00983
-0.01229
-0.01474
-0.01720
-0.02212
-0.02703
-0.03031
-0.03031
-0.03031
-0.03031
-0.03031
-0.03031
-0.03031
-0.03195
-0.03522
-0.03522
-0.03277
-0.03031
-0.03031
-0.03031
-0.03031
-0.03031
-0.03031
-0.03031
-0.03031
-0.03031
-0.03031
-0.03031
-0.03031
-0.03031
-0.03031
-0.03031
-0.03031
-0.03031
-0.03195
-0.03686
-0.04014
-0.04014
-0.04014
-0.04014
-0.04014
-0.04014
-0.04014
-0.04178
-0.04505
-0.04751
-0.05243
-0.05488
-0.05488
-0.05488
-0.05488
-0.05488
-0.05488
-0.05488
-0.05488
-0.05488
-0.05488
-0.05488
-0.05488
-0.05488
-0.05488
-0.05488
-0.05734
-0.06226
-0.06307
-0.05980
-0.05816
-0.05325
-0.04587
-0.03768
-0.03277
-0.02621
-0.01556
-0.00410
0.01147
0.02867
0.04587
0.05898
0.06717
0.06799
0.06471
0.06307
0.05406
0.04096
0.02703
0.00901
-0.00819
-0.02785
-0.04587
-0.06144
-0.07372
-0.08192
-0.08929
-0.09666
-0.09994
-0.09994
-0.09994
-0.09994
-0.10239
-0.10731
-0.10977
-0.10813
-0.10485
-0.10485
-0.10485
-0.10485
-0.10485
-0.10485
-0.10485
-0.10485
-0.10731
-0.10977
-0.10977
-0.10813
-0.10321
-0.09994
-0.09994
-0.09994
-0.09994
-0.09994
-0.09830
-0.09338
-0.08601
-0.07209
-0.04833
-0.01638
0.02294
0.07372
0.13926
0.22035
0.31046
0.37517
0.36207
0.26459
0.10158
-0.09666
-0.27933
-0.42514
-0.52262
-0.57832
-0.60617
-0.60699
-0.56767
-0.49231
-0.40302
-0.30800
-0.22117
-0.15564
-0.11304
-0.08519
-0.06389
-0.05079
-0.04096
-0.03277
-0.03031
-0.03031
-0.03031
-0.03031
-0.03031
-0.02785
-0.02539
-0.02539
-0.02294
-0.01966
-0.01802
-0.01474
-0.01474
-0.01474
-0.01311
-0.00819
-0.00491
-0.00491
-0.00491
-0.00491
-0.00491
-0.00328
0.00000
0.00000
0.00000
0.00164
0.00491
0.00328
0.00000
0.00164
0.00491
0.00491
0.00491
0.00491
0.00655
0.00983
0.01147
0.01474
0.01474
0.01474
0.01474
0.01474
0.01474
0.01474
0.01474
0.01474
0.01474
0.01474
0.01474
0.01474
0.01474
0.01474
0.01474
0.01720
0.01966
0.01966
0.02212
0.02539
0.02539
0.02539
0.02539
0.02539
0.02703
0.03031
0.03195
0.03359
0.03031
0.02785
0.02294
0.01966
0.01966
0.02212
0.02539
0.02539
0.02294
0.01966
0.01966
0.02212
0.02539
0.02703
0.03031
0.03031
0.03031
0.02785
0.02539
0.02539
0.02539
0.02539
0.02539
0.02539
0.02539
0.02539
0.02539
0.02539
0.02539
0.02703
0.03031
0.03031
0.03031
0.02867
0.02539
0.02294
0.01966
0.01966
0.01966
0.01966
0.01966
0.01966
0.01966
0.01966
0.01966
0.01802
0.01474
0.01474
0.01311
0.00983
0.00819
0.00328
-0.00164
-0.00491
-0.00655
-0.00983
-0.01147
-0.01474
-0.01638
-0.01966
-0.01966
-0.02130
-0.02703
-0.03031
-0.03031
-0.03031
-0.03031
-0.03031
-0.03031
-0.03031
-0.03031
-0.03031
-0.03031
-0.03031
-0.03031
-0.03031
-0.03195
-0.03522
-0.03686
-0.04014
-0.04014
-0.04014
-0.04014
-0.04014
-0.04178
-0.04669
-0.04997
-0.05161
-0.05488
-0.05488
-0.05488
-0.05652
-0.05980
-0.06144
-0.06471
-0.06471
-0.06471
-0.06471
-0.06471
-0.06471
-0.06471
-0.06471
-0.06471
-0.06307
-0.05488
-0.04014
-0.02539
-0.01147
0.00164
0.01638
0.01966
0.01966
0.01966
0.02130
0.02539
0.02539
0.02212
0.00901
-0.00983
-0.02294
-0.03440
-0.04833
-0.05980
-0.07290
-0.08192
-0.08683
-0.09175
-0.09666
-0.09994
-0.09994
-0.09994
-0.09994
-0.09994
-0.09994
-0.09994
-0.09994
-0.09994
-0.09994
-0.09994
-0.09994
-0.09994
-0.09994
-0.09994
-0.09994
-0.09830
-0.09502
-0.09502
-0.09338
-0.09011
-0.09011
-0.08847
-0.08519
-0.08355
-0.08028
-0.08028
-0.07700
-0.06389
-0.04096
-0.00983
0.02703
0.07127
0.13025
0.20315
0.28343
0.34896
0.34978
0.25803
0.09994
-0.09011
-0.27278
-0.42350
-0.52426
-0.58160
-0.61437
-0.62092
-0.59307
-0.52590
-0.43497
-0.33094
-0.23674
-0.16465
-0.11386
-0.07946
-0.06062
-0.04751
-0.03850
-0.03359
-0.03031
-0.03031
-0.02867
-0.02539
-0.02539
-0.02539
-0.02376
-0.01966
-0.01966
-0.01966
-0.01966
-0.01884
-0.01474
-0.01393
-0.00983
-0.00983
-0.00983
-0.00901
-0.00491
-0.00491
-0.00491
-0.00328
0.00000
0.00000
0.00164
0.00491
0.00491
0.00491
0.00491
0.00655
0.00983
0.00983
0.01147
0.01393
0.00983
0.01147
0.01474
0.01474
0.01474
0.01474
0.01474
0.01474
0.01474
0.01474
0.01474
0.01474
0.01474
0.01474
0.01474
0.01474
0.01638
0.01966
0.02130
0.02539
0.02539
0.02376
0.01966
0.01966
0.01966
0.02130
0.02539
0.02539
0.02539
0.02539
0.02621
0.03031
0.03031
0.03031
0.03031
0.03031
0.03031
0.02867
0.02539
0.02539
0.02539
0.02539
0.02539
0.02539
0.02376
0.01966
0.02130
0.02539
0.02539
0.02539
0.02539
0.02539
0.02539
0.02376
0.01966
0.01966
0.01966
0.01966
0.01966
0.01966
0.01966
0.01966
0.01966
0.01966
0.01966
0.01966
0.01966
0.01966
0.01966
0.01966
0.01884
0.01474
0.01393
0.00983
0.00901
0.00491
0.00410
0.00000
-0.00082
-0.00491
-0.00655
-0.00983
-0.01147
-0.01638
-0.02130
-0.02539
-0.02539
-0.02621
-0.03031
-0.03031
-0.03031
-0.03031
-0.03031
-0.03031
-0.03031
-0.03031
-0.03031
-0.03031
-0.03031
-0.03031
-0.03031
-0.03031
-0.03031
-0.03031
-0.03031
-0.03031
-0.02867
-0.02539
-0.02539
-0.02539
-0.02376
-0.01966
-0.01966
-0.02130
-0.02539
-0.02621
-0.03031
-0.03031
-0.03031
-0.03113
-0.03604
-0.04014
-0.04014
-0.04014
-0.04096
-0.04505
-0.04505
-0.04505
-0.04587
-0.04997
-0.04997
-0.04997
-0.04997
-0.05079
-0.05488
-0.05488
-0.05488
-0.05488
-0.05488
-0.05488
-0.05488
-0.05488
-0.05488
-0.05488
-0.05488
-0.05488
-0.05325
-0.04178
-0.02867
-0.02376
-0.01802
-0.00901
-0.00328
0.00819
0.02457
0.04342
0.05734
0.06635
0.06881
0.06471
0.06389
0.05816
0.04833
0.03768
0.02621
0.00655
-0.00983
-0.03277
-0.04669
-0.05816
-0.07209
-0.08110
-0.08601
-0.09093
-0.09502
-0.09502
-0.09502
-0.09502
-0.09502
-0.09420
-0.09093
-0.09502
-0.09502
-0.09502
-0.09502
-0.09502
-0.09502
-0.09420
-0.09011
-0.08929
-0.08519
-0.08519
-0.08519
-0.08519
-0.08519
-0.08519
-0.08519
-0.08519
-0.08437
-0.08028
-0.08028
-0.07782
-0.06717
-0.04997
-0.02539
0.00246
0.04423
0.09584
0.15892
0.23510
0.30800
0.33585
0.27196
0.13844
-0.03359
-0.21134
-0.37272
-0.48904
-0.55784
-0.59880
-0.61355
-0.59389
-0.52999
-0.44316
-0.34732
-0.25066
-0.17448
-0.11796
-0.08028
-0.05816
-0.04751
-0.03440
-0.02949
-0.02376
-0.01884
-0.01474
-0.01474
-0.01474
-0.01474
-0.01393
-0.00983
-0.00983
-0.00983
-0.00983
-0.00983
-0.00901
-0.00491
-0.00410
0.00000
0.00000
0.00000
0.00000
0.00000
0.00082
0.00573
0.01065
0.01474
0.01474
0.01474
0.01474
0.01474
0.01474
0.01393
0.00983
0.00983
0.01065
0.01474
0.01474
0.01474
0.01474
0.01556
0.01966
0.01966
0.02048
0.02539
0.02539
0.02539
0.02539
0.02539
0.02539
0.02457
0.01966
0.01966
0.02048
0.02539
0.02539
0.02539
0.02539
0.02539
0.02539
0.03031
0.03031
0.03031
0.03031
0.03031
0.03031
0.03031
0.03031
0.03031
0.03031
0.03113
0.03604
0.03932
0.03522
0.03604
0.03932
0.03522
0.03522
0.03522
0.03522
0.03522
0.03522
0.03522
0.03440
0.03031
0.03031
0.03113
0.03522
0.03604
0.04014
0.04014
0.04014
0.04014
0.03932
0.03522
0.03522
0.03440
0.03031
0.03031
0.03031
0.03031
0.03031
0.03031
0.03522
0.03522
0.03522
0.03522
0.03522
0.03522
0.03522
0.03440
0.03031
0.02949
0.02539
0.02457
0.01966
0.01474
0.01474
0.01474
0.00901
0.00410
-0.00082
-0.00491
-0.00573
-0.01065
-0.01474
-0.01556
-0.01966
-0.01474
-0.01474
-0.01556
-0.01966
-0.02048
-0.02539
-0.02539
-0.02539
-0.02539
-0.02539
-0.02539
-0.02539
-0.02539
-0.02539
-0.02539
-0.02539
-0.02539
-0.02539
-0.03031
-0.03031
-0.03031
-0.03031
-0.03031
-0.03031
-0.03440
-0.03031
-0.03031
-0.03031
-0.03522
-0.03522
-0.04014
-0.04014
-0.04014
-0.04096
-0.04587
-0.04997
-0.04997
-0.05079
-0.05488
-0.05488
-0.05488
-0.05570
-0.05980
-0.05980
-0.05980
-0.05488
-0.05488
-0.05488
-0.05488
-0.05488
-0.05488
-0.05406
-0.04423
-0.03440
-0.02949
-0.02376
-0.00983
-0.00328
0.01065
0.02212
0.04178
0.05570
0.06471
0.06471
0.06471
0.05980
0.05406
0.04423
0.03359
0.01802
-0.00164
-0.01720
-0.03686
-0.05079
-0.06144
-0.07536
-0.08028
-0.08519
-0.09011
-0.09502
-0.09420
-0.09011
-0.09011
-0.09502
-0.09420
-0.09011
-0.09011
-0.09011
-0.09011
-0.09011
-0.09011
-0.09420
-0.09011
-0.09011
-0.09011
-0.09011
-0.09011
-0.09011
-0.09011
-0.08929
-0.08519
-0.08519
-0.08519
-0.08437
-0.08028
-0.08028
-0.08028
-0.07946
-0.06799
-0.04669
-0.01229
0.02376
0.07536
0.14089
0.21790
0.31128
0.38582
0.39319
0.30718
0.14008
-0.04997
-0.23264
-0.38828
-0.48985
-0.55293
-0.59061
-0.59307
-0.56522
-0.50296
-0.41285
-0.31210
-0.21462
-0.14663
-0.10239
-0.07372
-0.05325
-0.03440
-0.02949
-0.02457
-0.01966
-0.01966
-0.01966
-0.01966
-0.01474
-0.01474
-0.01474
-0.00983
-0.00491
-0.00491
-0.00491
0.00000
0.00491
0.00491
0.00573
0.00983
0.00983
0.00983
0.00983
0.01065
0.01474
0.01474
0.01474
0.01474
0.01474
0.01474
0.01474
0.01474
0.01474
0.01474
0.01474
0.01556
0.02048
0.02539
0.02539
0.03031
0.03031
0.03031
0.02949
0.02539
0.02539
0.02539
0.02539
0.02539
0.02539
0.02539
0.02539
0.02539
0.03031
0.03031
0.03522
0.03522
0.03522
0.03522
0.03522
0.03522
0.03522
0.03522
0.04014
0.04014
0.04014
0.04014
0.04014
0.04014
0.04014
0.04014
