0.00128
0.00038
-0.00106
-0.00200
-0.00136
0.00008
0.00056
-0.00025
-0.00109
-0.00108
-0.00065
-0.00059
-0.00120
-0.00245
-0.00380
-0.00383
-0.00148
0.00203
0.00428
0.00469
0.00452
0.00416
0.00285
0.00115
0.00054
0.00068
-0.00028
-0.00239
-0.00365
-0.00305
-0.00188
-0.00167
-0.00223
-0.00254
-0.00230
-0.00178
-0.00073
0.00117
0.00296
0.00322
0.00210
0.00135
0.00200
0.00331
0.00383
0.00268
-0.00001
-0.00283
-0.00393
-0.00325
-0.00293
-0.00418
-0.00516
-0.00350
0.00020
0.00337
0.00468
0.00453
0.00353
0.00223
0.00168
0.00251
0.00366
0.00334
0.00137
-0.00075
-0.00190
-0.00265
-0.00404
-0.00584
-0.00679
-0.00630
-0.00522
-0.00476
-0.00469
-0.00333
0.00007
0.00347
0.00432
0.00333
0.00381
0.00710
0.01097
0.01285
0.01266
0.01161
0.01009
0.00784
0.00452
-0.00055
-0.00801
-0.01681
-0.02410
-0.02738
-0.02642
-0.02250
-0.01640
-0.00800
0.00202
0.01078
0.01511
0.01480
0.01275
0.01203
0.01402
0.01861
0.02378
0.02553
0.02092
0.01130
0.00105
-0.00657
-0.01117
-0.01405
-0.01659
-0.01913
-0.02086
-0.02090
-0.01950
-0.01753
-0.01547
-0.01330
-0.01098
-0.00839
-0.00520
-0.00122
0.00349
0.00887
0.01492
0.02128
0.02730
0.03265
0.03724
0.04013
0.03993
0.03693
0.03337
0.02993
0.02366
0.01126
-0.00703
-0.02893
-0.05360
-0.08086
-0.10807
-0.13048
-0.14358
-0.14354
-0.12709
-0.09278
-0.03929
0.03891
0.14592
0.26591
0.35607
0.37199
0.30319
0.17806
0.03703
-0.09046
-0.18841
-0.25102
-0.28213
-0.28830
-0.26802
-0.21367
-0.12696
-0.02674
0.06218
0.12502
0.16005
0.17069
0.16061
0.13572
0.10471
0.07428
0.04587
0.01866
-0.00646
-0.02736
-0.04297
-0.05342
-0.05890
-0.05961
-0.05625
-0.04980
-0.04112
-0.03095
-0.02013
-0.00944
0.00046
0.00903
0.01590
0.02092
0.02393
0.02478
0.02362
0.02122
0.01850
0.01589
0.01311
0.00935
0.00405
-0.00223
-0.00767
-0.01078
-0.01180
-0.01189
-0.01135
-0.00982
-0.00769
-0.00610
-0.00510
-0.00340
-0.00054
0.00190
0.00260
0.00275
0.00434
0.00669
0.00713
0.00483
0.00183
-0.00007
-0.00136
-0.00291
-0.00371
-0.00218
0.00099
0.00318
0.00298
0.00140
-0.00028
-0.00186
-0.00294
-0.00248
-0.00095
-0.00057
-0.00195
-0.00251
-0.00012
0.00347
0.00499
0.00391
0.00207
0.00053
-0.00087
-0.00183
-0.00181
-0.00120
-0.00090
-0.00099
-0.00104
-0.00102
-0.00116
-0.00146
-0.00178
-0.00187
-0.00104
0.00143
0.00459
0.00592
0.00428
0.00153
-0.00010
-0.00082
-0.00173
-0.00240
-0.00201
-0.00117
-0.00089
-0.00115
-0.00163
-0.00219
-0.00194
0.00022
0.00340
0.00508
0.00401
0.00133
-0.00106
-0.00177
-0.00037
0.00190
0.00258
0.00059
-0.00240
-0.00435
-0.00522
-0.00574
-0.00512
-0.00238
0.00117
0.00330
0.00409
0.00518
0.00620
0.00527
0.00296
0.00189
0.00223
0.00129
-0.00162
-0.00391
-0.00435
-0.00474
-0.00590
-0.00571
-0.00297
0.00015
0.00142
0.00149
0.00181
0.00199
0.00134
0.00085
0.00157
0.00267
0.00286
0.00264
0.00320
0.00364
0.00170
-0.00258
-0.00589
-0.00547
-0.00236
0.00009
-0.00006
-0.00193
-0.00335
-0.00322
-0.00238
-0.00176
-0.00045
0.00274
0.00622
0.00681
0.00407
0.00105
0.00051
0.00217
0.00388
0.00376
0.00173
-0.00040
-0.00112
-0.00145
-0.00312
-0.00531
-0.00612
-0.00627
-0.00772
-0.00933
-0.00819
-0.00476
-0.00215
-0.00065
0.00229
0.00681
0.00999
0.01106
0.01273
0.01588
0.01717
0.01403
0.00858
0.00443
0.00176
-0.00205
-0.00854
-0.01633
-0.02254
-0.02538
-0.02530
-0.02345
-0.01935
-0.01160
-0.00103
0.00852
0.01346
0.01349
0.01142
0.01090
0.01407
0.02025
0.02643
0.02907
0.02601
0.01763
0.00660
-0.00387
-0.01171
-0.01649
-0.01907
-0.02101
-0.02304
-0.02404
-0.02247
-0.01890
-0.01560
-0.01355
-0.01148
-0.00835
-0.00516
-0.00317
-0.00135
0.00286
0.01036
0.01943
0.02814
0.03615
0.04348
0.04892
0.05082
0.04874
0.04323
0.03443
0.02182
0.00522
-0.01492
-0.03804
-0.06372
-0.09054
-0.11527
-0.13346
-0.14146
-0.13751
-0.12102
-0.09073
-0.04288
0.02985
0.13319
0.25615
0.35997
0.39378
0.33216
0.19679
0.03868
-0.09765
-0.19359
-0.25185
-0.28198
-0.28908
-0.27071
-0.22163
-0.14186
-0.04269
0.05423
0.12642
0.16352
0.17105
0.16090
0.14050
0.11246
0.08005
0.04815
0.01983
-0.00445
-0.02454
-0.03975
-0.04982
-0.05526
-0.05686
-0.05531
-0.05120
-0.04497
-0.03708
-0.02763
-0.01607
-0.00272
0.00933
0.01633
0.01856
0.02037
0.02418
0.02712
0.02578
0.02149
0.01790
0.01514
0.01041
0.00356
-0.00176
-0.00341
-0.00390
-0.00674
-0.01157
-0.01483
-0.01434
-0.01160
-0.00922
-0.00778
-0.00621
-0.00406
-0.00169
0.00089
0.00353
0.00529
0.00573
0.00579
0.00607
0.00568
0.00408
0.00256
0.00238
0.00281
0.00230
0.00059
-0.00123
-0.00208
-0.00175
-0.00099
-0.00101
-0.00243
-0.00461
-0.00603
-0.00545
-0.00306
-0.00029
0.00140
0.00169
0.00159
0.00220
0.00335
0.00381
0.00306
0.00188
0.00115
0.00078
0.00031
-0.00021
-0.00055
-0.00076
-0.00102
-0.00125
-0.00135
-0.00147
-0.00171
-0.00184
-0.00172
-0.00180
-0.00228
-0.00234
-0.00089
0.00159
0.00332
0.00336
0.00273
0.00288
0.00370
0.00359
0.00170
-0.00067
-0.00165
-0.00144
-0.00163
-0.00221
-0.00186
-0.00088
-0.00103
-0.00199
-0.00159
0.00002
0.00020
-0.00170
-0.00316
-0.00264
-0.00113
0.00042
0.00219
0.00388
0.00471
0.00467
0.00407
0.00274
0.00115
0.00031
-0.00014
-0.00148
-0.00312
-0.00310
-0.00164
-0.00119
-0.00252
-0.00362
-0.00281
-0.00084
0.00079
0.00167
0.00193
0.00140
0.00020
-0.00063
-0.00028
0.00066
0.00106
0.00082
0.00095
0.00184
0.00223
0.00084
-0.00139
-0.00230
-0.00158
-0.00097
-0.00095
0.00001
0.00226
0.00351
0.00242
0.00094
0.00114
0.00180
0.00061
-0.00206
-0.00372
-0.00333
-0.00213
-0.00166
-0.00227
-0.00355
-0.00491
-0.00566
-0.00501
-0.00258
0.00085
0.00356
0.00462
0.00504
0.00630
0.00832
0.01013
0.01141
0.01191
0.01052
0.00708
0.00343
0.00044
-0.00432
-0.01301
-0.02294
-0.02844
-0.02690
-0.02056
-0.01285
-0.00523
0.00206
0.00810
0.01130
0.01098
0.00880
0.00856
0.01324
0.02099
0.02559
0.02283
0.01549
0.00961
0.00674
0.00293
-0.00464
-0.01317
-0.01796
-0.01852
-0.01819
-0.01880
-0.01891
-0.01759
-0.01639
-0.01632
-0.01587
-0.01344
-0.00954
-0.00528
-0.00056
0.00523
0.01203
0.01928
0.02640
0.03294
0.03870
0.04389
0.04825
0.05032
0.04808
0.04068
0.02851
0.01180
-0.00939
-0.03361
-0.05848
-0.08333
-0.10895
-0.13350
-0.15061
-0.15282
-0.13624
-0.10201
-0.05242
0.01642
0.11451
0.23974
0.35705
0.40935
0.36159
0.23107
0.06960
-0.07641
-0.18455
-0.25111
-0.28356
-0.29342
-0.28394
-0.24535
-0.16901
-0.06529
0.03848
0.11740
0.16272
0.17849
0.17209
0.15085
0.12209
0.09100
0.05899
0.02679
-0.00228
-0.02414
-0.03817
-0.04761
-0.05560
-0.06177
-0.06349
-0.05939
-0.05072
-0.03959
-0.02743
-0.01529
-0.00385
0.00677
0.01621
0.02318
0.02679
0.02786
0.02763
0.02589
0.02199
0.01711
0.01327
0.01029
0.00587
-0.00058
-0.00637
-0.00938
-0.01101
-0.01329
-0.01489
-0.01308
-0.00843
-0.00459
-0.00343
-0.00343
-0.00269
-0.00138
-0.00025
0.00079
0.00199
0.00286
0.00334
0.00417
0.00519
0.00494
0.00330
0.00255
0.00387
0.00507
0.00387
0.00131
-0.00060
-0.00205
-0.00395
-0.00557
-0.00591
-0.00559
-0.00539
-0.00461
-0.00232
0.00087
0.00333
0.00413
0.00377
0.00328
0.00307
0.00266
0.00183
0.00120
0.00098
0.00021
-0.00147
-0.00225
-0.00082
0.00064
-0.00075
-0.00380
-0.00493
-0.00362
-0.00212
-0.00105
0.00067
0.00248
0.00286
0.00249
0.00304
0.00380
0.00278
0.00059
-0.00032
0.00026
0.00009
-0.00162
-0.00291
-0.00238
-0.00112
-0.00086
-0.00153
-0.00160
-0.00018
0.00186
0.00290
0.00235
0.00110
0.00042
0.00049
0.00023
-0.00137
-0.00369
-0.00488
-0.00417
-0.00264
-0.00116
0.00097
0.00414
0.00649
0.00593
0.00331
0.00145
0.00105
0.00019
-0.00175
-0.00241
-0.00032
0.00196
0.00110
-0.00224
-0.00458
-0.00448
-0.00331
-0.00223
-0.00105
0.00029
0.00128
0.00165
0.00140
0.00064
0.00011
0.00074
0.00218
0.00286
0.00195
0.00035
-0.00064
-0.00088
-0.00138
-0.00261
-0.00338
-0.00197
0.00153
0.00508
0.00696
0.00679
0.00458
0.00072
-0.00315
-0.00515
-0.00510
-0.00446
-0.00452
-0.00529
-0.00544
-0.00343
0.00009
0.00215
0.00115
-0.00061
-0.00034
0.00101
0.00089
-0.00021
0.00029
0.00300
0.00648
0.01006
0.01355
0.01545
0.01405
0.00957
0.00365
-0.00258
-0.00912
-0.01640
-0.02387
-0.02860
-0.02700
-0.01923
-0.01011
-0.00361
0.00144
0.00779
0.01409
0.01608
0.01278
0.00897
0.01038
0.01741
0.02415
0.02420
0.01711
0.00799
0.00135
-0.00277
-0.00670
-0.01143
-0.01597
-0.01896
-0.01980
-0.01883
-0.01721
-0.01623
-0.01612
-0.01578
-0.01398
-0.01047
-0.00570
-0.00033
0.00459
0.00791
0.00994
0.01311
0.01981
0.02925
0.03790
0.04356
0.04716
0.04916
0.04698
0.03843
0.02546
0.01097
-0.00654
-0.03044
-0.05930
-0.08746
-0.11169
-0.13207
-0.14597
-0.14667
-0.12948
-0.09509
-0.04460
0.02633
0.12358
0.23991
0.34319
0.38670
0.34133
0.21978
0.06676
-0.07348
-0.17884
-0.24695
-0.28288
-0.29167
-0.27550
-0.23233
-0.15950
-0.06329
0.03642
0.11543
0.16063
0.17493
0.16879
0.15018
0.12269
0.08948
0.05529
0.02418
-0.00256
-0.02468
-0.04098
-0.05081
-0.05606
-0.05904
-0.05938
-0.05530
-0.04692
-0.03634
-0.02532
-0.01475
-0.00510
0.00387
0.01261
0.02012
0.02455
0.02597
0.02629
0.02596
0.02356
0.01895
0.01401
0.00978
0.00555
0.00107
-0.00271
-0.00566
-0.00898
-0.01297
-0.01582
-0.01565
-0.01286
-0.00918
-0.00544
-0.00189
0.00023
-0.00010
-0.00126
-0.00049
0.00249
0.00541
0.00647
0.00564
0.00411
0.00348
0.00433
0.00497
0.00337
0.00018
-0.00213
-0.00283
-0.00321
-0.00356
-0.00266
-0.00039
0.00153
0.00167
0.00020
-0.00191
-0.00356
-0.00360
-0.00166
0.00101
0.00253
0.00243
0.00181
0.00158
0.00148
0.00094
0.00012
-0.00047
-0.00089
-0.00172
-0.00294
-0.00346
-0.00257
-0.00103
0.00012
0.00113
0.00296
0.00529
0.00637
0.00468
0.00081
-0.00279
-0.00408
-0.00336
-0.00241
-0.00201
-0.00163
-0.00098
-0.00067
-0.00088
-0.00074
0.00043
0.00216
0.00357
0.00426
0.00403
0.00257
0.00006
-0.00247
-0.00356
-0.00265
-0.00102
-0.00054
-0.00112
-0.00121
-0.00109
-0.00265
-0.00507
-0.00446
0.00032
0.00502
0.00597
0.00502
0.00512
0.00489
0.00206
-0.00108
-0.00096
0.00080
-0.00030
-0.00406
-0.00586
-0.00399
-0.00165
-0.00108
-0.00052
0.00153
0.00292
0.00150
-0.00089
-0.00111
0.00036
0.00057
-0.00111
-0.00242
-0.00199
-0.00088
-0.00028
0.00002
0.00060
0.00143
0.00218
0.00279
0.00336
0.00405
0.00481
0.00520
0.00451
0.00244
-0.00057
-0.00353
-0.00546
-0.00608
-0.00631
-0.00733
-0.00864
-0.00804
-0.00464
-0.00064
0.00137
0.00178
0.00280
0.00473
0.00564
0.00466
0.00314
0.00258
0.00311
0.00433
0.00600
0.00760
0.00845
0.00827
0.00701
0.00444
0.00062
-0.00401
-0.00923
-0.01478
-0.01932
-0.02101
-0.01963
-0.01646
-0.01195
-0.00555
0.00200
0.00806
0.01056
0.00996
0.00883
0.01022
0.01551
0.02263
0.02700
0.02518
0.01752
0.00733
-0.00181
-0.00794
-0.01141
-0.01391
-0.01617
-0.01726
-0.01674
-0.01587
-0.01548
-0.01468
-0.01322
-0.01277
-0.01394
-0.01405
-0.01040
-0.00416
0.00168
0.00680
0.01291
0.01969
0.02492
0.02859
0.03333
0.04010
0.04618
0.04836
0.04573
0.03875
0.02737
0.01127
-0.00905
-0.03210
-0.05634
-0.08127
-0.10667
-0.12995
-0.14483
-0.14480
-0.12851
-0.09865
-0.05313
0.01908
0.12504
0.24776
0.34540
0.37670
0.32784
0.21561
0.07267
-0.06668
-0.17622
-0.24613
-0.28237
-0.29291
-0.27599
-0.22575
-0.14579
-0.05158
0.03834
0.10947
0.15333
0.16923
0.16389
0.14548
0.11862
0.08644
0.05382
0.02464
-0.00101
-0.02348
-0.04028
-0.04984
-0.05506
-0.05908
-0.06046
-0.05614
-0.04659
-0.03483
-0.02280
-0.01112
-0.00059
0.00812
0.01509
0.02057
0.02421
0.02560
0.02494
0.02276
0.01927
0.01432
0.00829
0.00284
-0.00021
-0.00099
-0.00162
-0.00351
-0.00550
-0.00577
-0.00476
-0.00455
-0.00586
-0.00729
-0.00762
-0.00720
-0.00691
-0.00678
-0.00614
-0.00470
-0.00260
0.00028
0.00407
0.00778
0.00971
0.00945
0.00848
0.00808
0.00762
0.00580
0.00278
-0.00037
-0.00339
-0.00662
-0.00941
-0.01040
-0.00909
-0.00610
-0.00235
0.00115
0.00337
0.00401
0.00374
0.00344
0.00356
0.00399
0.00394
0.00244
-0.00013
-0.00206
-0.00249
-0.00252
-0.00321
-0.00380
-0.00313
-0.00168
-0.00042
0.00097
0.00296
0.00437
0.00356
0.00099
-0.00109
-0.00115
0.00018
0.00080
-0.00063
-0.00281
-0.00281
0.00001
0.00265
0.00236
0.00011
-0.00144
-0.00161
-0.00125
-0.00041
0.00119
0.00267
0.00279
0.00177
0.00073
0.00012
-0.00052
-0.00143
-0.00228
-0.00268
-0.00280
-0.00300
-0.00301
-0.00213
-0.00055
0.00055
0.00106
0.00255
0.00541
0.00707
0.00530
0.00170
-0.00060
-0.00111
-0.00126
-0.00130
-0.00079
-0.00052
-0.00135
-0.00232
-0.00237
-0.00222
-0.00272
-0.00288
-0.00139
0.00119
0.00288
0.00249
0.00073
-0.00063
-0.00078
-0.00059
-0.00104
-0.00144
-0.00048
0.00158
0.00308
0.00319
0.00268
0.00250
0.00274
0.00312
0.00328
0.00276
0.00126
-0.00092
-0.00305
-0.00463
-0.00589
-0.00741
-0.00908
-0.00940
-0.00688
-0.00233
0.00132
0.00214
0.00132
0.00138
0.00322
0.00583
0.00844
0.01116
0.01339
0.01334
0.01033
0.00596
0.00223
-0.00051
-0.00295
-0.00566
-0.00934
-0.01423
-0.01871
-0.01996
-0.01696
-0.01180
-0.00724
-0.00369
0.00027
0.00469
0.00709
0.00571
0.00319
0.00506
0.01360
0.02453
0.03061
0.02813
0.01930
0.00910
0.00089
-0.00514
-0.01035
-0.01497
-0.01755
-0.01722
-0.01553
-0.01492
-0.01589
-0.01672
-0.01571
-0.01287
-0.00941
-0.00660
-0.00528
-0.00526
-0.00475
-0.00154
0.00470
0.01221
0.01944
0.02655
0.03406
0.04119
0.04636
0.04841
0.04697
0.04204
0.03351
0.02061
0.00273
-0.01915
-0.04323
-0.06922
-0.09727
-0.12434
-0.14436
-0.15212
-0.14464
-0.11952
-0.07494
-0.00965
0.07869
0.18872
0.30146
0.37627
0.37340
0.28515
0.14217
-0.00953
-0.13481
-0.21960
-0.26718
-0.28753
-0.28584
-0.25815
-0.19849
-0.11024
-0.01018
0.07869
0.13950
0.16861
0.17250
0.15970
0.13626
0.10642
0.07388
0.04153
0.01150
-0.01419
-0.03379
-0.04699
-0.05489
-0.05860
-0.05870
-0.05593
-0.05114
-0.04424
-0.03435
-0.02163
-0.00820
0.00345
0.01227
0.01852
0.02254
0.02474
0.02592
0.02633
0.02489
0.02052
0.01416
0.00836
0.00468
0.00229
-0.00064
-0.00461
-0.00824
-0.01030
-0.01152
-0.01282
-0.01281
-0.00966
-0.00522
-0.00339
-0.00415
-0.00340
0.00026
0.00343
0.00374
0.00327
0.00415
0.00499
0.00403
0.00241
0.00204
0.00260
0.00259
0.00182
0.00111
0.00061
-0.00019
-0.00128
-0.00207
-0.00262
-0.00362
-0.00486
-0.00466
-0.00206
0.00142
0.00333
0.00310
0.00220
0.00181
0.00172
0.00130
0.00061
0.00009
-0.00022
-0.00081
-0.00190
-0.00275
-0.00244
-0.00128
-0.00045
-0.00004
0.00106
0.00293
0.00347
0.00105
-0.00263
-0.00397
-0.00199
0.00059
0.00130
0.00097
0.00144
0.00231
0.00180
-0.00010
-0.00165
-0.00206
-0.00168
-0.00028
0.00251
0.00500
0.00464
0.00155
-0.00138
-0.00252
-0.00311
-0.00414
-0.00437
-0.00283
-0.00113
-0.00125
-0.00242
-0.00213
0.00033
0.00301
0.00396
0.00316
0.00189
0.00148
0.00264
0.00476
0.00577
0.00411
0.00077
-0.00183
-0.00268
-0.00291
-0.00367
-0.00470
-0.00525
-0.00511
-0.00441
-0.00313
-0.00126
0.00096
0.00311
0.00447
0.00437
0.00302
0.00161
0.00108
0.00128
0.00138
0.00081
-0.00028
-0.00096
-0.00056
0.00042
0.00099
0.00141
0.00246
0.00342
0.00236
-0.00084
-0.00387
-0.00495
-0.00489
-0.00506
-0.00510
-0.00409
-0.00285
-0.00287
-0.00337
-0.00202
0.00128
0.00392
0.00433
0.00395
0.00460
0.00624
0.00806
0.00990
0.01166
0.01252
0.01149
0.00796
0.00186
-0.00580
-0.01334
-0.01965
-0.02398
-0.02505
-0.02200
-0.01613
-0.00987
-0.00413
0.00171
0.00772
0.01238
0.01411
0.01354
0.01392
0.01798
0.02381
0.02559
0.01990
0.00977
0.00083
-0.00490
-0.00905
-0.01270
-0.01494
-0.01491
-0.01319
-0.01100
-0.00936
-0.00908
-0.01053
-0.01296
-0.01457
-0.01368
-0.01043
-0.00703
-0.00537
-0.00467
-0.00240
0.00269
0.00981
0.01799
0.02696
0.03612
0.04410
0.04945
0.05086
0.04745
0.03945
0.02816
0.01431
-0.00266
-0.02324
-0.04667
-0.07155
-0.09648
-0.11931
-0.13608
-0.14139
-0.13079
-0.10379
-0.06304
-0.00716
0.07254
0.17928
0.29112
0.36278
0.35586
0.26761
0.12974
-0.01526
-0.13481
-0.21437
-0.25694
-0.27428
-0.27278
-0.24707
-0.18939
-0.10314
-0.00537
0.08156
0.14052
0.16633
0.16587
0.15053
0.12750
0.09860
0.06576
0.03383
0.00709
-0.01388
-0.03032
-0.04206
-0.04872
-0.05206
-0.05424
-0.05443
-0.04994
-0.04056
-0.02944
-0.01951
-0.01107
-0.00328
0.00423
0.01171
0.01923
0.02567
0.02907
0.02873
0.02572
0.02142
0.01665
0.01212
0.00825
0.00458
0.00027
-0.00469
-0.00937
-0.01271
-0.01425
-0.01431
-0.01350
-0.01213
-0.01016
-0.00775
-0.00499
-0.00158
0.00253
0.00626
0.00790
0.00689
0.00478
0.00406
0.00523
0.00577
0.00324
-0.00077
-0.00219
-0.00022
0.00156
0.00050
-0.00180
-0.00277
-0.00253
-0.00229
-0.00183
-0.00035
0.00160
0.00262
0.00201
0.00019
-0.00154
-0.00197
-0.00146
-0.00166
-0.00303
-0.00376
-0.00227
0.00064
0.00304
0.00411
0.00416
0.00350
0.00237
0.00119
0.00030
-0.00035
-0.00095
-0.00145
-0.00175
-0.00188
-0.00189
-0.00178
-0.00155
-0.00122
-0.00082
-0.00037
0.00011
0.00057
0.00101
0.00143
0.00175
0.00191
0.00196
0.00197
0.00179
0.00126
0.00063
0.00018
-0.00054
-0.00197
-0.00324
-0.00299
-0.00174
-0.00140
-0.00201
-0.00153
0.00045
0.00161
0.00062
-0.00101
-0.00167
-0.00161
-0.00100
0.00087
0.00356
0.00506
0.00440
0.00300
0.00244
0.00242
0.00172
0.00031
-0.00060
-0.00051
-0.00057
-0.00219
-0.00503
-0.00717
-0.00698
-0.00468
-0.00214
-0.00102
-0.00092
-0.00005
0.00208
0.00393
0.00441
0.00434
0.00443
0.00384
0.00205
0.00050
0.00051
0.00122
0.00135
0.00128
0.00144
0.00076
-0.00141
-0.00354
-0.00391
-0.00303
-0.00239
-0.00230
-0.00225
-0.00211
-0.00186
-0.00128
-0.00071
-0.00093
-0.00180
-0.00228
-0.00226
-0.00253
-0.00261
-0.00071
0.00346
0.00773
0.01016
0.01104
0.01153
0.01174
0.01096
0.00891
0.00584
0.00185
-0.00333
-0.00983
-0.01688
-0.02281
-0.02588
-0.02532
-0.02128
-0.01430
-0.00540
0.00350
0.01023
0.01362
0.01414
0.01355
0.01439
0.01844
0.02404
0.02626
0.02161
0.01194
0.00234
-0.00416
-0.00830
-0.01202
-0.01566
-0.01765
-0.01662
-0.01356
-0.01123
-0.01127
-0.01264
-0.01332
-0.01272
-0.01158
-0.01024
-0.00816
-0.00500
-0.00118
0.00302
0.00791
0.01353
0.01939
0.02550
0.03246
0.03976
0.04514
0.04674
0.04466
0.03965
0.03107
0.01742
-0.00151
-0.02391
-0.04767
-0.07219
-0.09753
-0.12155
-0.13876
-0.14348
-0.13372
-0.10995
-0.06937
-0.00376
0.09258
0.20946
0.31553
0.37015
0.34661
0.24896
0.10907
-0.03294
-0.14850
-0.22730
-0.27106
-0.28426
-0.26957
-0.22865
-0.16430
-0.08223
0.00687
0.08700
0.14212
0.16512
0.16129
0.14242
0.11772
0.09068
0.06231
0.03450
0.00930
-0.01261
-0.03095
-0.04448
-0.05243
-0.05600
-0.05675
-0.05425
-0.04725
-0.03674
-0.02580
-0.01640
-0.00794
0.00087
0.00958
0.01642
0.02036
0.02221
0.02338
0.02389
0.02240
0.01842
0.01339
0.00909
0.00569
0.00235
-0.00112
-0.00402
-0.00581
-0.00678
-0.00780
-0.00924
-0.01047
-0.01075
-0.01039
-0.00997
-0.00866
-0.00477
0.00148
0.00699
0.00882
0.00717
0.00460
0.00303
0.00245
0.00210
0.00144
0.00030
-0.00112
-0.00201
-0.00159
-0.00020
0.00085
0.00095
0.00095
0.00162
0.00237
0.00218
0.00117
0.00019
-0.00051
-0.00113
-0.00164
-0.00216
-0.00306
-0.00400
-0.00381
-0.00239
-0.00136
-0.00168
-0.00197
-0.00073
0.00134
0.00306
0.00496
0.00743
0.00852
0.00624
0.00200
-0.00098
-0.00211
-0.00348
-0.00592
-0.00748
-0.00624
-0.00305
-0.00050
0.00020
0.00056
0.00253
0.00539
0.00620
0.00334
-0.00131
-0.00450
-0.00466
-0.00244
0.00078
0.00355
0.00455
0.00350
0.00163
0.00008
-0.00148
-0.00359
-0.00495
-0.00353
0.00023
0.00291
0.00190
-0.00135
-0.00332
-0.00260
-0.00035
0.00209
0.00395
0.00416
0.00223
-0.00026
-0.00095
0.00018
0.00102
0.00050
-0.00011
0.00018
0.00014
-0.00151
-0.00353
-0.00374
-0.00234
-0.00136
-0.00142
-0.00098
0.00093
0.00309
0.00367
0.00248
0.00104
0.00060
0.00094
0.00114
0.00087
0.00042
-0.00010
-0.00084
-0.00165
-0.00196
-0.00119
0.00081
0.00326
0.00429
0.00230
-0.00190
-0.00526
-0.00542
-0.00332
-0.00202
-0.00305
-0.00475
-0.00491
-0.00368
-0.00254
-0.00137
0.00128
0.00563
0.01031
0.01420
0.01651
0.01612
0.01270
0.00785
0.00366
0.00029
-0.00399
-0.01071
-0.01901
-0.02551
-0.02727
-0.02468
-0.01980
-0.01262
-0.00220
0.00877
0.01470
0.01347
0.00939
0.00862
0.01340
0.02096
0.02626
0.02557
0.01884
0.00920
0.00030
-0.00584
-0.00908
-0.01065
-0.01217
-0.01392
-0.01468
-0.01389
-0.01293
-0.01321
-0.01418
-0.01431
-0.01325
-0.01183
-0.01050
-0.00860
-0.00515
-0.00030
0.00460
0.00873
0.01334
0.02016
0.02879
0.03701
0.04336
0.04756
0.04886
0.04602
0.03869
0.02724
0.01162
-0.00784
-0.02957
-0.05260
-0.07781
-0.10495
-0.12935
-0.14427
-0.14573
-0.13275
-0.10382
-0.05512
0.01804
0.11718
0.23196
0.33253
0.37763
0.34021
0.22873
0.08175
-0.05803
-0.16584
-0.23746
-0.27786
-0.29032
-0.27434
-0.22977
-0.15947
-0.07053
0.02329
0.10269
0.15246
0.17110
0.16763
0.15045
0.12335
0.09009
0.05649
0.02673
0.00138
-0.02004
-0.03712
-0.04930
-0.05665
-0.05947
-0.05800
-0.05281
-0.04475
-0.03499
-0.02493
-0.01576
-0.00777
-0.00028
0.00770
0.01627
0.02393
0.02853
0.02910
0.02649
0.02257
0.01889
0.01575
0.01199
0.00647
0.00010
-0.00471
-0.00712
-0.00887
-0.01148
-0.01388
-0.01423
-0.01257
-0.01022
-0.00764
-0.00459
-0.00157
0.00043
0.00136
0.00213
0.00324
0.00430
0.00484
0.00507
0.00550
0.00593
0.00532
0.00324
0.00076
-0.00067
-0.00091
-0.00097
-0.00149
-0.00210
-0.00229
-0.00231
-0.00273
-0.00326
-0.00286
-0.00112
0.00088
0.00179
0.00154
0.00100
0.00076
0.00071
0.00048
-0.00018
-0.00092
-0.00086
0.00037
0.00186
0.00230
0.00153
0.00048
-0.00018
-0.00053
-0.00103
-0.00188
-0.00257
-0.00227
-0.00084
0.00089
0.00205
0.00232
0.00151
-0.00017
-0.00168
-0.00216
-0.00196
-0.00155
-0.00026
0.00211
0.00398
0.00390
0.00238
0.00055
-0.00123
-0.00237
-0.00182
0.00001
0.00114
0.00061
-0.00044
-0.00082
-0.00086
-0.00130
-0.00187
-0.00168
-0.00091
-0.00085
-0.00196
-0.00270
-0.00158
0.00051
0.00168
0.00198
0.00307
0.00495
0.00572
0.00454
0.00278
0.00148
0.00002
-0.00173
-0.00235
-0.00129
-0.00059
-0.00212
-0.00463
-0.00566
-0.00503
-0.00416
-0.00318
-0.00131
0.00049
0.00054
-0.00027
0.00080
0.00397
0.00633
0.00614
0.00491
0.00438
0.00381
0.00190
-0.00054
-0.00156
-0.00079
0.00028
0.00026
-0.00079
-0.00186
-0.00231
-0.00241
-0.00311
-0.00508
-0.00769
-0.00916
-0.00826
-0.00571
-0.00304
-0.00072
0.00186
0.00476
0.00734
0.00951
0.01188
0.01407
0.01451
0.01276
0.01037
0.00826
0.00495
-0.00071
-0.00718
-0.01273
-0.01779
-0.02255
-0.02473
-0.02260
-0.01780
-0.01247
-0.00610
0.00212
0.01001
0.01417
0.01387
0.01173
0.01143
0.01492
0.02052
0.02383
0.02171
0.01477
0.00592
-0.00219
-0.00801
-0.01155
-0.01418
-0.01651
-0.01708
-0.01459
-0.01042
-0.00731
-0.00647
-0.00740
-0.00933
-0.01152
-0.01278
-0.01219
-0.00984
-0.00640
-0.00217
0.00298
0.00911
0.01590
0.02275
0.02908
0.03478
0.04023
0.04508
0.04711
0.04389
0.03539
0.02347
0.00877
-0.00965
-0.03145
-0.05458
-0.07818
-0.10266
-0.12564
-0.14040
-0.14014
-0.12258
-0.08976
-0.04263
0.02413
0.11808
0.23222
0.33234
0.37148
0.32444
0.20705
0.06117
-0.07370
-0.17571
-0.24031
-0.27353
-0.28266
-0.26806
-0.22377
-0.14761
-0.05019
0.04650
0.12022
0.16018
0.16995
0.15987
0.13813
0.10931
0.07759
0.04716
0.01993
-0.00406
-0.02418
-0.03913
-0.04869
-0.05377
-0.05512
-0.05323
-0.04872
-0.04218
-0.03388
-0.02419
-0.01358
-0.00258
0.00770
0.01525
0.01863
0.01901
0.01943
0.02136
0.02302
0.02200
0.01831
0.01369
0.00909
0.00444
-0.00004
-0.00368
-0.00621
-0.00781
-0.00890
-0.00981
-0.01025
-0.00954
-0.00780
-0.00617
-0.00525
-0.00441
-0.00301
-0.00130
0.00029
0.00176
0.00313
0.00425
0.00520
0.00619
0.00687
0.00662
0.00542
0.00344
0.00016
-0.00422
-0.00723
-0.00622
-0.00204
0.00169
0.00293
0.00261
0.00185
0.00045
-0.00150
-0.00282
-0.00283
-0.00226
-0.00234
-0.00325
-0.00366
-0.00201
0.00147
0.00447
0.00510
0.00388
0.00268
0.00227
0.00180
0.00058
-0.00064
-0.00065
0.00011
-0.00007
-0.00172
-0.00349
-0.00427
-0.00446
-0.00442
-0.00344
-0.00105
0.00190
0.00420
0.00540
0.00534
0.00379
0.00135
-0.00018
0.00049
0.00225
0.00263
0.00094
-0.00097
-0.00157
-0.00174
-0.00307
-0.00537
-0.00715
-0.00733
-0.00536
-0.00108
0.00390
0.00647
0.00557
0.00378
0.00337
0.00317
0.00161
0.00004
0.00041
0.00153
0.00072
-0.00203
-0.00424
-0.00441
-0.00304
-0.00087
0.00174
0.00361
0.00320
0.00068
-0.00187
-0.00264
-0.00151
0.00029
0.00127
0.00080
-0.00030
-0.00074
-0.00047
-0.00032
-0.00048
-0.00063
-0.00107
-0.00185
-0.00167
0.00031
0.00233
0.00207
0.00032
-0.00008
0.00143
0.00260
0.00216
0.00142
0.00156
0.00170
0.00063
-0.00118
-0.00229
-0.00210
-0.00126
-0.00057
-0.00029
-0.00023
-0.00023
-0.00028
-0.00044
-0.00058
-0.00068
-0.00143
-0.00369
-0.00663
-0.00744
-0.00471
-0.00096
0.00051
0.00050
0.00254
0.00734
0.01170
0.01300
0.01189
0.01031
0.00902
0.00770
0.00585
0.00272
-0.00248
-0.00951
-0.01670
-0.02219
-0.02480
-0.02395
-0.01972
-0.01303
-0.00500
0.00341
0.01049
0.01383
0.01274
0.01005
0.01021
0.01506
0.02181
0.02523
0.02221
0.01419
0.00515
-0.00200
-0.00717
-0.01158
-0.01529
-0.01686
-0.01529
-0.01175
-0.00888
-0.00850
-0.01038
-0.01276
-0.01421
-0.01490
-0.01536
-0.01463
-0.01115
-0.00526
0.00135
0.00819
0.01623
0.02546
0.03414
0.04050
0.04408
0.04550
0.04538
0.04338
0.03822
0.02867
0.01427
-0.00493
-0.02813
-0.05318
-0.07777
-0.10137
-0.12368
-0.14038
-0.14322
-0.12735
-0.09611
-0.05393
0.00504
0.09318
0.20816
0.31788
0.37421
0.34596
0.24001
0.09370
-0.04939
-0.15983
-0.22948
-0.26576
-0.27869
-0.27030
-0.23497
-0.16843
-0.07677
0.02147
0.10275
0.15153
0.16781
0.16162
0.14252
0.11606
0.08645
0.05731
0.03012
0.00499
-0.01705
-0.03435
-0.04654
-0.05436
-0.05788
-0.05656
-0.05101
-0.04339
-0.03544
-0.02699
-0.01717
-0.00643
0.00356
0.01159
0.01763
0.02194
0.02434
0.02454
0.02271
0.01974
0.01669
0.01397
0.01099
0.00692
0.00184
-0.00287
-0.00579
-0.00708
-0.00832
-0.01050
-0.01273
-0.01343
-0.01190
-0.00851
-0.00431
-0.00071
0.00126
0.00191
0.00240
0.00318
0.00385
0.00412
0.00414
0.00393
0.00336
0.00263
0.00187
0.00068
-0.00104
-0.00223
-0.00195
-0.00093
-0.00024
0.00078
0.00274
0.00353
0.00089
-0.00287
-0.00316
-0.00025
0.00092
-0.00160
-0.00411
-0.00368
-0.00196
-0.00112
-0.00058
0.00045
0.00099
0.00074
0.00133
0.00354
0.00546
0.00489
0.00208
-0.00078
-0.00205
-0.00189
-0.00151
-0.00150
-0.00147
-0.00110
-0.00079
-0.00086
-0.00077
-0.00010
0.00010
-0.00132
-0.00289
-0.00166
0.00222
0.00468
0.00330
0.00074
0.00043
0.00130
0.00035
-0.00204
-0.00279
-0.00078
0.00203
0.00353
0.00297
0.00064
-0.00212
-0.00332
-0.00247
-0.00154
-0.00233
-0.00391
-0.00408
-0.00246
-0.00025
0.00205
0.00463
0.00642
0.00571
0.00283
0.00065
0.00125
0.00309
0.00274
-0.00078
-0.00471
-0.00617
-0.00535
-0.00412
-0.00296
-0.00086
0.00217
0.00443
0.00439
0.00223
-0.00075
-0.00330
-0.00428
-0.00284
0.00027
0.00256
0.00247
0.00138
0.00135
0.00200
0.00138
-0.00059
-0.00209
-0.00228
-0.00181
-0.00068
0.00175
0.00440
0.00498
0.00318
0.00135
0.00137
0.00254
0.00261
0.00015
-0.00395
-0.00718
-0.00830
-0.00885
-0.01059
-0.01192
-0.00931
-0.00261
0.00341
0.00473
0.00368
0.00600
0.01300
0.01974
0.02133
0.01797
0.01266
0.00727
0.00227
-0.00180
-0.00508
-0.00942
-0.01639
-0.02404
-0.02784
-0.02562
-0.01987
-0.01396
-0.00769
0.00110
0.01107
0.01683
0.01498
0.00914
0.00670
0.01113
0.01903
0.02422
0.02325
0.01691
0.00836
0.00081
-0.00413
-0.00707
-0.00971
-0.01274
-0.01474
-0.01412
-0.01176
-0.01045
-0.01138
-0.01269
-0.01245
-0.01154
-0.01190
-0.01307
-0.01262
-0.00947
-0.00478
0.00046
0.00647
0.01349
0.02088
0.02810
0.03548
0.04334
0.05037
0.05342
0.04999
0.04087
0.02893
0.01500
-0.00299
-0.02586
-0.05079
-0.07515
-0.09988
-0.12515
-0.14481
-0.14988
-0.13693
-0.10852
-0.06555
-0.00240
0.08846
0.20396
0.31807
0.38521
0.36744
0.26419
0.11279
-0.03892
-0.15783
-0.23250
-0.26917
-0.28147
-0.27579
-0.24552
-0.18252
-0.09202
0.00662
0.09118
0.14711
0.17134
0.16982
0.15165
0.12429
0.09298
0.06208
0.03438
0.01004
-0.01197
-0.03130
-0.04617
-0.05538
-0.05903
-0.05796
-0.05358
-0.04759
-0.04071
-0.03207
-0.02087
-0.00823
0.00345
0.01253
0.01885
0.02265
0.02426
0.02467
0.02471
0.02354
0.01979
0.01422
0.00925
0.00569
0.00208
-0.00220
-0.00543
-0.00634
-0.00652
-0.00832
-0.01153
-0.01367
-0.01318
-0.01080
-0.00796
-0.00507
-0.00177
0.00184
0.00471
0.00568
0.00476
0.00336
0.00281
0.00317
0.00388
0.00469
0.00494
0.00353
0.00088
-0.00064
0.00002
0.00053
-0.00145
-0.00418
-0.00421
-0.00157
0.00043
0.00013
-0.00078
-0.00074
-0.00064
-0.00155
-0.00238
-0.00147
0.00054
0.00129
0.00002
-0.00143
-0.00114
0.00067
0.00254
0.00379
0.00448
0.00404
0.00154
-0.00209
-0.00403
-0.00277
-0.00019
0.00098
0.00068
0.00053
0.00070
-0.00027
-0.00263
-0.00460
-0.00436
-0.00206
0.00057
0.00201
0.00217
0.00195
0.00198
0.00210
0.00201
0.00175
0.00149
0.00120
0.00079
0.00028
-0.00025
-0.00079
-0.00135
-0.00191
-0.00237
-0.00270
-0.00291
-0.00295
-0.00269
-0.00207
-0.00122
-0.00009
0.00167
0.00400
0.00561
0.00489
0.00222
0.00042
0.00154
0.00364
0.00297
-0.00081
-0.00383
-0.00321
-0.00071
0.00003
-0.00196
-0.00444
-0.00506
-0.00360
-0.00139
0.00036
0.00141
0.00210
0.00255
0.00265
0.00241
0.00199
0.00147
0.00080
-0.00000
-0.00073
-0.00130
-0.00198
-0.00281
-0.00321
-0.00241
-0.00028
0.00259
0.00528
0.00665
0.00576
0.00300
0.00027
-0.00100
-0.00155
-0.00285
-0.00435
-0.00442
-0.00352
-0.00367
-0.00473
-0.00454
-0.00285
-0.00185
-0.00225
-0.00208
0.00009
0.00304
0.00499
0.00594
0.00722
0.00953
0.01198
0.01288
0.01121
0.00753
0.00357
0.00047
-0.00289
-0.00873
-0.01710
-0.02442
-0.02647
-0.02236
-0.01482
-0.00697
0.00011
0.00662
0.01160
0.01262
0.00875
0.00348
0.00319
0.01079
0.02145
0.02681
0.02334
0.01467
0.00597
-0.00074
-0.00583
-0.00996
-0.01357
-0.01641
-0.01703
-0.01443
-0.01022
-0.00777
-0.00864
-0.01066
-0.01081
-0.00938
-0.00932
-0.01138
-0.01254
-0.01010
-0.00466
0.00235
0.01120
0.02184
0.03162
0.03783
0.04086
0.04252
0.04305
0.04170
0.03812
0.03124
0.01922
0.00233
-0.01678
-0.03723
-0.06107
-0.08834
-0.11415
-0.13240
-0.13958
-0.13400
-0.11449
-0.08007
-0.02674
0.05360
0.16220
0.27790
0.35894
0.36707
0.29262
0.15948
0.00965
-0.11916
-0.20897
-0.26172
-0.28608
-0.28460
-0.25352
-0.19178
-0.10686
-0.01316
0.07213
0.13418
0.16596
0.17007
0.15480
0.12921
0.10020
0.07115
0.04224
0.01337
-0.01319
-0.03397
-0.04743
-0.05479
-0.05798
-0.05791
-0.05479
-0.04884
-0.04014
-0.02903
-0.01675
-0.00508
0.00482
0.01238
0.01699
0.01884
0.01956
0.02080
0.02237
0.02273
0.02097
0.01736
0.01222
0.00572
-0.00072
-0.00449
-0.00502
-0.00527
-0.00779
-0.01083
-0.01117
-0.00936
-0.00838
-0.00821
-0.00613
-0.00216
0.00014
-0.00084
-0.00214
-0.00053
0.00310
0.00538
0.00503
0.00380
0.00350
0.00392
0.00394
0.00331
0.00255
0.00208
0.00171
0.00089
-0.00085
-0.00350
-0.00622
-0.00747
-0.00592
-0.00214
0.00135
0.00261
0.00214
0.00155
0.00141
0.00136
0.00125
0.00091
0.00008
-0.00052
0.00042
0.00254
0.00335
0.00129
-0.00224
-0.00500
-0.00629
-0.00597
-0.00321
0.00172
0.00558
0.00504
0.00116
-0.00123
0.00043
0.00331
0.00338
0.00082
-0.00086
-0.00009
0.00098
-0.00002
-0.00265
-0.00466
-0.00451
-0.00239
0.00033
0.00210
0.00222
0.00126
0.00058
0.00113
0.00276
0.00407
0.00341
0.00058
-0.00269
-0.00464
-0.00531
-0.00552
-0.00483
-0.00217
0.00152
0.00373
0.00363
0.00296
0.00294
0.00266
0.00163
0.00131
0.00233
0.00256
0.00041
-0.00218
-0.00268
-0.00193
-0.00252
-0.00455
-0.00547
-0.00360
-0.00006
0.00270
0.00357
0.00334
0.00329
0.00349
0.00282
0.00072
-0.00170
-0.00257
-0.00165
-0.00105
-0.00243
-0.00439
-0.00426
-0.00180
0.00087
0.00241
0.00296
0.00256
0.00148
0.00108
0.00224
0.00364
0.00357
0.00245
0.00154
0.00073
-0.00068
-0.00210
-0.00254
-0.00229
-0.00233
-0.00282
-0.00328
-0.00353
-0.00365
-0.00359
-0.00334
-0.00293
-0.00201
-0.00037
0.00127
0.00191
0.00179
0.00233
0.00424
0.00676
0.00877
0.00982
0.01015
0.01010
0.00936
0.00690
0.00265
-0.00178
-0.00560
-0.01071
-0.01819
-0.02450
-0.02539
-0.02168
-0.01683
-0.01079
-0.00171
0.00820
0.01406
0.01454
0.01254
0.01155
0.01391
0.01976
0.02504
0.02410
0.01620
0.00662
-0.00018
-0.00467
-0.00880
-0.01232
-0.01432
-0.01550
-0.01670
-0.01709
-0.01541
-0.01238
-0.01029
-0.01038
-0.01148
-0.01151
-0.00970
-0.00670
-0.00305
0.00130
0.00644
0.01229
0.01868
0.02499
0.03017
0.03412
0.03803
0.04222
0.04469
0.04286
0.03596
0.02451
0.00863
-0.01163
-0.03535
-0.06124
-0.08821
-0.11428
-0.13519
-0.14524
-0.14027
-0.11970
-0.08411
-0.02975
0.05140
0.16008
0.27601
0.35904
0.37028
0.29759
0.16424
0.01411
-0.11401
-0.20289
-0.25526
-0.28017
-0.28112
-0.25498
-0.19907
-0.11754
-0.02287
0.06657
0.13255
0.16556
0.16905
0.15426
0.13082
0.10289
0.07218
0.04127
0.01308
-0.01091
-0.03027
-0.04431
-0.05262
-0.05615
-0.05633
-0.05352
-0.04748
-0.03881
-0.02893
-0.01889
-0.00893
0.00057
0.00850
0.01412
0.01819
0.02181
0.02435
0.02412
0.02109
0.01724
0.01394
0.01073
0.00693
0.00295
-0.00057
-0.00349
-0.00565
-0.00675
-0.00711
-0.00761
-0.00848
-0.00901
-0.00870
-0.00779
-0.00652
-0.00492
-0.00337
-0.00219
-0.00085
0.00153
0.00458
0.00680
0.00732
0.00667
0.00581
0.00520
0.00456
0.00300
0.00010
-0.00286
-0.00391
-0.00292
-0.00174
-0.00165
-0.00199
-0.00189
-0.00158
-0.00142
-0.00092
0.00042
0.00191
0.00230
0.00112
-0.00072
-0.00174
-0.00146
-0.00067
-0.00015
0.00033
0.00114
0.00180
0.00153
0.00029
-0.00106
-0.00149
-0.00063
0.00088
0.00215
0.00276
0.00243
0.00095
-0.00099
-0.00198
-0.00183
-0.00203
-0.00348
-0.00491
-0.00450
-0.00197
0.00139
0.00404
0.00511
0.00462
0.00328
0.00204
0.00144
0.00130
0.00094
0.00007
-0.00092
-0.00152
-0.00179
-0.00197
-0.00217
-0.00265
-0.00352
-0.00382
-0.00242
-0.00004
0.00098
-0.00022
-0.00166
-0.00074
0.00260
0.00552
0.00535
0.00279
0.00107
0.00175
0.00301
0.00273
0.00121
-0.00010
-0.00099
-0.00201
-0.00282
-0.00238
-0.00107
-0.00109
-0.00365
-0.00647
-0.00621
-0.00309
-0.00056
-0.00016
0.00018
0.00206
0.00399
0.00417
0.00349
0.00362
0.00406
0.00321
0.00121
-0.00008
0.00041
0.00186
0.00280
0.00242
0.00078
-0.00151
-0.00356
-0.00460
-0.00459
-0.00410
-0.00376
-0.00366
-0.00349
-0.00303
-0.00244
-0.00189
-0.00109
0.00043
0.00229
0.00318
0.00234
0.00067
0.00009
0.00200
0.00616
0.01040
0.01213
0.01082
0.00843
0.00669
0.00504
0.00188
-0.00303
-0.00861
-0.01398
-0.01873
-0.02190
-0.02214
-0.01885
-0.01248
-0.00430
0.00360
0.00870
0.00971
0.00770
0.00574
0.00732
0.01394
0.02283
0.02806
0.02563
0.01705
0.00723
-0.00040
-0.00582
-0.01028
-0.01392
-0.01585
-0.01559
-0.01393
-0.01239
-0.01202
-0.01260
-0.01300
-0.01277
-0.01269
-0.01303
-0.01250
-0.00969
-0.00485
0.00085
0.00699
0.01391
0.02157
0.02908
0.03559
0.04097
0.04497
0.04635
0.04384
0.03804
0.03044
0.02010
0.00379
-0.01936
-0.04561
-0.07090
-0.09445
-0.11600
-0.13179
-0.13670
-0.12903
-0.10987
-0.07756
-0.02460
0.05794
0.16885
0.28503
0.36344
0.36441
0.28061
0.14352
-0.00005
-0.11742
-0.19996
-0.25265
-0.28023
-0.28209
-0.25468
-0.19622
-0.11144
-0.01467
0.07319
0.13459
0.16418
0.16791
0.15489
0.13149
0.10153
0.06875
0.03729
0.01027
-0.01142
-0.02870
-0.04251
-0.05253
-0.05776
-0.05798
-0.05410
-0.04721
-0.03805
-0.02734
-0.01615
-0.00592
0.00202
0.00738
0.01154
0.01621
0.02104
0.02368
0.02288
0.02021
0.01785
0.01572
0.01220
0.00699
0.00187
-0.00145
-0.00303
-0.00406
-0.00537
-0.00704
-0.00870
-0.00983
-0.01006
-0.00941
-0.00817
-0.00656
-0.00467
-0.00258
-0.00046
0.00152
0.00326
0.00472
0.00592
0.00680
0.00717
0.00666
0.00465
0.00096
-0.00297
-0.00455
-0.00270
0.00046
0.00174
0.00030
-0.00192
-0.00284
-0.00226
-0.00142
-0.00096
-0.00022
0.00124
0.00250
0.00250
0.00147
0.00046
-0.00008
-0.00055
-0.00140
-0.00253
-0.00332
-0.00320
-0.00217
-0.00055
0.00149
0.00343
0.00415
0.00308
0.00116
-0.00010
-0.00031
-0.00015
-0.00022
-0.00051
-0.00053
0.00013
0.00077
-0.00014
-0.00257
-0.00398
-0.00241
0.00042
0.00141
0.00061
0.00074
0.00241
0.00315
0.00160
-0.00031
-0.00042
0.00063
0.00086
-0.00010
-0.00109
-0.00147
-0.00169
-0.00225
-0.00280
-0.00255
-0.00127
0.00035
0.00135
0.00133
0.00085
0.00095
0.00212
0.00323
0.00271
0.00084
-0.00026
0.00040
0.00114
0.00003
-0.00236
-0.00361
-0.00235
0.00029
0.00213
0.00205
0.00064
-0.00074
-0.00132
-0.00129
-0.00116
-0.00111
-0.00132
-0.00218
-0.00335
-0.00325
-0.00091
0.00229
0.00392
0.00348
0.00247
0.00204
0.00197
0.00174
0.00145
0.00134
0.00130
0.00115
0.00089
0.00058
0.00019
-0.00034
-0.00099
-0.00171
-0.00247
-0.00324
-0.00394
-0.00450
-0.00488
-0.00500
-0.00475
-0.00412
-0.00316
-0.00182
0.00004
0.00222
0.00441
0.00669
0.00939
0.01189
0.01276
0.01166
0.01024
0.00978
0.00888
0.00526
-0.00087
-0.00745
-0.01390
-0.02081
-0.02653
-0.02754
-0.02331
-0.01698
-0.01045
-0.00249
0.00671
0.01333
0.01455
0.01251
0.01164
0.01420
0.01935
0.02420
0.02527
0.02073
0.01212
0.00290
-0.00439
-0.00917
-0.01220
-0.01472
-0.01706
-0.01798
-0.01652
-0.01420
-0.01343
-0.01412
-0.01417
-0.01297
-0.01178
-0.01054
-0.00731
-0.00180
0.00357
0.00753
0.01196
0.01821
0.02457
0.02922
0.03312
0.03761
0.04151
0.04244
0.03946
0.03310
0.02370
0.01069
-0.00666
-0.02786
-0.05107
-0.07461
-0.09795
-0.11982
-0.13586
-0.13945
-0.12606
-0.09626
-0.05180
0.01203
0.10395
0.21881
0.32352
0.37092
0.33375
0.22398
0.08033
-0.05735
-0.16389
-0.23176
-0.26698
-0.27919
-0.27051
-0.23411
-0.16473
-0.07002
0.02911
0.10909
0.15607
0.17090
0.16360
0.14399
0.11759
0.08772
0.05748
0.02885
0.00233
-0.02111
-0.03933
-0.05125
-0.05811
-0.06129
-0.06030
-0.05431
-0.04462
-0.03379
-0.02313
-0.01253
-0.00217
0.00699
0.01432
0.01971
0.02304
0.02412
0.02327
0.02130
0.01890
0.01631
0.01343
0.01002
0.00608
0.00181
-0.00252
-0.00630
-0.00861
-0.00955
-0.01085
-0.01334
-0.01453
-0.01130
-0.00488
-0.00013
0.00027
-0.00179
-0.00311
-0.00236
0.00015
0.00374
0.00752
0.01037
0.01102
0.00873
0.00445
0.00069
-0.00114
-0.00231
-0.00429
-0.00583
-0.00490
-0.00229
-0.00084
-0.00138
-0.00180
-0.00044
0.00166
0.00266
0.00225
0.00122
0.00008
-0.00091
-0.00109
-0.00009
0.00118
0.00126
-0.00005
-0.00134
-0.00121
0.00016
0.00136
0.00140
0.00060
-0.00021
-0.00068
-0.00097
-0.00132
-0.00181
-0.00217
-0.00166
0.00020
0.00255
0.00365
0.00257
0.00039
-0.00104
-0.00105
-0.00052
-0.00026
-0.00008
0.00025
0.00030
-0.00008
-0.00009
0.00065
0.00100
0.00007
-0.00098
-0.00058
0.00067
0.00084
-0.00054
-0.00199
-0.00212
-0.00081
0.00094
0.00165
0.00050
-0.00149
-0.00225
-0.00144
-0.00082
-0.00099
-0.00008
0.00287
0.00527
0.00432
0.00122
-0.00045
0.00035
0.00144
0.00101
-0.00053
-0.00204
-0.00305
-0.00325
-0.00246
-0.00133
-0.00095
-0.00137
-0.00147
-0.00053
0.00090
0.00196
0.00241
0.00245
0.00243
0.00258
0.00256
0.00152
-0.00069
-0.00283
-0.00363
-0.00327
-0.00274
-0.00237
-0.00179
-0.00083
0.00020
0.00126
0.00256
0.00397
0.00471
0.00413
0.00241
0.00057
-0.00047
-0.00052
-0.00016
-0.00003
-0.00031
-0.00080
-0.00136
-0.00202
-0.00276
-0.00346
-0.00402
-0.00437
-0.00447
-0.00425
-0.00365
-0.00266
-0.00129
0.00040
0.00238
0.00456
0.00680
0.00888
0.01071
0.01227
0.01320
0.01276
0.01022
0.00558
-0.00020
-0.00599
-0.01158
-0.01734
-0.02257
-0.02507
-0.02344
-0.01859
-0.01205
-0.00419
0.00425
0.01058
0.01253
0.01115
0.00982
0.01115
0.01562
0.02162
0.02559
0.02363
0.01532
0.00512
-0.00208
-0.00614
-0.01025
-0.01516
-0.01816
-0.01772
-0.01575
-0.01443
-0.01354
-0.01215
-0.01067
-0.00957
-0.00833
-0.00675
-0.00584
-0.00567
-0.00439
-0.00066
0.00455
0.01000
0.01652
0.02507
0.03417
0.04111
0.04498
0.04647
0.04537
0.04023
0.03012
0.01546
-0.00287
-0.02403
-0.04694
-0.07064
-0.09444
-0.11667
-0.13327
-0.13861
-0.12871
-0.10356
-0.06402
-0.00532
0.08165
0.19418
0.30245
0.35999
0.33725
0.24300
0.11208
-0.02075
-0.13316
-0.21407
-0.26184
-0.28133
-0.27554
-0.24059
-0.17315
-0.08163
0.01361
0.09172
0.14162
0.16309
0.16188
0.14524
0.11990
0.09100
0.06147
0.03262
0.00569
-0.01741
-0.03485
-0.04610
-0.05213
-0.05440
-0.05371
-0.05027
-0.04464
-0.03780
-0.02977
-0.01960
-0.00764
0.00344
0.01121
0.01607
0.02013
0.02402
0.02630
0.02546
0.02165
0.01646
0.01189
0.00903
0.00717
0.00442
-0.00010
-0.00523
-0.00911
-0.01092
-0.01113
-0.01030
-0.00881
-0.00732
-0.00654
-0.00627
-0.00548
-0.00369
-0.00155
0.00021
0.00161
0.00288
0.00396
0.00464
0.00494
0.00497
0.00476
0.00430
0.00363
0.00281
0.00193
0.00101
0.00005
-0.00093
-0.00183
-0.00260
-0.00335
-0.00420
-0.00490
-0.00489
-0.00375
-0.00154
0.00094
0.00242
0.00219
0.00135
0.00175
0.00348
0.00439
0.00286
-0.00008
-0.00194
-0.00137
0.00079
0.00233
0.00165
-0.00076
-0.00307
-0.00422
-0.00436
-0.00352
-0.00156
0.00063
0.00166
0.00163
0.00207
0.00325
0.00339
0.00133
-0.00165
-0.00359
-0.00386
-0.00230
0.00143
0.00610
0.00851
0.00680
0.00265
-0.00127
-0.00420
-0.00635
-0.00730
-0.00660
-0.00483
-0.00264
-0.00008
0.00243
0.00362
0.00280
0.00100
0.00009
0.00083
0.00233
0.00309
0.00234
0.00078
-0.00002
0.00094
0.00275
0.00301
0.00038
-0.00322
-0.00427
-0.00202
0.00033
-0.00011
-0.00238
-0.00370
-0.00326
-0.00199
-0.00033
0.00150
0.00242
0.00167
0.00029
-0.00013
0.00053
0.00105
0.00068
0.00009
0.00060
0.00257
0.00460
0.00457
0.00171
-0.00262
-0.00592
-0.00612
-0.00295
0.00152
0.00408
0.00314
0.00008
-0.00249
-0.00340
-0.00348
-0.00343
-0.00245
0.00035
0.00355
0.00452
0.00308
0.00193
0.00270
0.00362
0.00244
-0.00042
-0.00291
-0.00412
-0.00439
-0.00398
-0.00292
-0.00157
-0.00042
0.00039
0.00086
0.00126
0.00222
0.00417
0.00629
0.00703
0.00569
0.00318
0.00077
-0.00136
-0.00376
-0.00623
-0.00781
-0.00807
-0.00759
-0.00718
-0.00690
-0.00607
-0.00387
-0.00026
0.00365
0.00659
0.00840
0.00999
0.01200
0.01376
0.01388
0.01188
0.00880
0.00583
0.00276
-0.00140
-0.00695
-0.01328
-0.01909
-0.02240
-0.02175
-0.01831
-0.01536
-0.01401
-0.01139
-0.00456
0.00512
0.01381
0.01943
0.02233
0.02315
0.02243
0.02106
0.01903
0.01479
0.00777
0.00041
-0.00444
-0.00685
-0.00908
-0.01212
-0.01454
-0.01476
-0.01335
-0.01232
-0.01268
-0.01385
-0.01502
-0.01561
-0.01480
-0.01218
-0.00880
-0.00579
-0.00222
0.00372
0.01171
0.01955
0.02610
0.03208
0.03788
0.04252
0.04476
0.04429
0.04102
0.03435
0.02351
0.00872
-0.00884
-0.02832
-0.05004
-0.07443
-0.10041
-0.12446
-0.14081
-0.14350
-0.12960
-0.09958
-0.05265
0.01687
0.11372
0.22810
0.32849
0.37310
0.33556
0.22432
0.07755
-0.06206
-0.16957
-0.24041
-0.27883
-0.28802
-0.26877
-0.22187
-0.15008
-0.06060
0.03198
0.10830
0.15405
0.16830
0.16079
0.14175
0.11612
0.08615
0.05515
0.02647
0.00116
-0.02093
-0.03892
-0.05136
-0.05802
-0.05989
-0.05787
-0.05241
-0.04421
-0.03428
-0.02358
-0.01277
-0.00245
0.00676
0.01434
0.02006
0.02389
0.02578
0.02562
0.02367
0.02050
0.01634
0.01098
0.00485
-0.00045
-0.00374
-0.00554
-0.00672
-0.00707
-0.00638
-0.00581
-0.00635
-0.00724
-0.00725
-0.00645
-0.00535
-0.00371
-0.00172
-0.00073
-0.00117
-0.00116
0.00096
0.00400
0.00563
0.00550
0.00495
0.00461
0.00403
0.00295
0.00164
0.00017
-0.00139
-0.00247
-0.00241
-0.00129
0.00003
0.00062
0.00002
-0.00168
-0.00369
-0.00469
-0.00376
-0.00136
0.00111
0.00261
0.00308
0.00285
0.00200
0.00062
-0.00071
-0.00103
-0.00004
0.00122
0.00149
0.00070
-0.00026
-0.00079
-0.00105
-0.00137
-0.00186
-0.00224
-0.00190
-0.00032
0.00201
0.00354
0.00296
0.00079
-0.00101
-0.00141
-0.00131
-0.00147
-0.00086
0.00130
0.00305
0.00194
-0.00098
-0.00222
-0.00064
0.00134
0.00154
0.00040
-0.00074
-0.00157
-0.00203
-0.00139
0.00063
0.00268
0.00278
0.00054
-0.00237
-0.00397
-0.00386
-0.00282
-0.00125
0.00096
0.00302
0.00340
0.00224
0.00180
0.00327
0.00458
0.00311
-0.00032
-0.00246
-0.00211
-0.00124
-0.00169
-0.00282
-0.00319
-0.00270
-0.00208
-0.00125
0.00040
0.00240
0.00299
0.00141
-0.00058
-0.00053
0.00137
0.00234
0.00070
-0.00210
-0.00387
-0.00416
-0.00357
-0.00200
0.00072
0.00383
0.00641
0.00824
0.00882
0.00720
0.00371
0.00023
-0.00217
-0.00435
-0.00686
-0.00869
-0.00899
-0.00802
-0.00580
-0.00235
0.00070
0.00128
-0.00027
-0.00187
-0.00257
-0.00225
0.00013
0.00503
0.01018
0.01246
0.01155
0.00966
0.00856
0.00818
0.00734
0.00521
0.00201
-0.00179
-0.00693
-0.01428
-0.02178
-0.02509
-0.02265
-0.01746
-0.01204
-0.00523
0.00356
0.01082
0.01276
0.01025
0.00719
0.00667
0.00993
0.01605
0.02113
0.02070
0.01448
0.00656
0.00063
-0.00285
-0.00488
-0.00606
-0.00684
-0.00794
-0.00989
-0.01238
-0.01433
-0.01472
-0.01390
-0.01366
-0.01493
-0.01600
-0.01431
-0.00972
-0.00476
-0.00150
0.00101
0.00582
0.01429
0.02394
0.03100
0.03471
0.03756
0.04117
0.04398
0.04347
0.03872
0.02997
0.01736
0.00099
-0.01888
-0.04214
-0.06795
-0.09365
-0.11581
-0.13195
-0.13975
-0.13540
-0.11507
-0.07672
-0.01717
0.06959
0.18186
0.29477
0.36399
0.35474
0.26810
0.13665
-0.00135
-0.11964
-0.20528
-0.25637
-0.27954
-0.28064
-0.25561
-0.19643
-0.10691
-0.00745
0.07756
0.13439
0.16241
0.16696
0.15403
0.13001
0.10139
0.07196
0.04239
0.01376
-0.01078
-0.02935
-0.04339
-0.05443
-0.06123
-0.06197
-0.05733
-0.04966
-0.04043
-0.03000
-0.01881
-0.00773
0.00222
0.01038
0.01691
0.02239
0.02647
0.02756
0.02503
0.02071
0.01705
0.01423
0.01058
0.00538
-0.00016
-0.00457
-0.00723
-0.00803
-0.00753
-0.00734
-0.00840
-0.00922
-0.00770
-0.00450
-0.00253
-0.00306
-0.00415
-0.00361
-0.00163
0.00026
0.00143
0.00235
0.00327
0.00390
0.00403
0.00390
0.00376
0.00345
0.00277
0.00201
0.00162
0.00126
0.00012
-0.00160
-0.00251
-0.00195
-0.00107
-0.00111
-0.00172
-0.00187
-0.00169
-0.00203
-0.00265
-0.00237
-0.00092
0.00052
0.00129
0.00228
0.00405
0.00507
0.00337
-0.00040
-0.00331
-0.00353
-0.00208
-0.00088
-0.00047
-0.00007
0.00114
0.00289
0.00372
0.00262
0.00066
-0.00036
-0.00064
-0.00170
-0.00344
-0.00416
-0.00331
-0.00207
-0.00134
-0.00072
0.00029
0.00140
0.00224
0.00295
0.00391
0.00490
0.00511
0.00392
0.00154
-0.00111
-0.00302
-0.00378
-0.00371
-0.00349
-0.00341
-0.00337
-0.00320
-0.00284
-0.00221
-0.00132
-0.00029
0.00104
0.00312
0.00552
0.00661
0.00538
0.00316
0.00215
0.00242
0.00186
-0.00053
-0.00313
-0.00403
-0.00338
-0.00245
-0.00170
-0.00118
-0.00149
-0.00275
-0.00335
-0.00177
0.00103
0.00266
0.00241
0.00145
0.00062
-0.00010
-0.00044
0.00015
0.00150
0.00251
0.00192
-0.00054
-0.00320
-0.00343
-0.00070
0.00222
0.00251
0.00089
0.00023
0.00165
0.00361
0.00431
0.00348
0.00189
0.00016
-0.00177
-0.00398
-0.00583
-0.00652
-0.00606
-0.00529
-0.00475
-0.00417
-0.00307
-0.00161
-0.00019
0.00136
0.00359
0.00616
0.00785
0.00830
0.00837
0.00836
0.00735
0.00549
0.00449
0.00475
0.00427
0.00196
-0.00101
-0.00457
-0.01072
-0.01892
-0.02408
-0.02255
-0.01686
-0.01143
-0.00665
-0.00041
0.00684
0.01207
0.01335
0.01145
0.00937
0.01091
0.01713
0.02344
0.02333
0.01583
0.00642
-0.00007
-0.00397
-0.00760
-0.01104
-0.01309
-0.01394
-0.01488
-0.01605
-0.01632
-0.01508
-0.01321
-0.01189
-0.01108
-0.00989
-0.00795
-0.00572
-0.00316
0.00096
0.00740
0.01463
0.02042
0.02495
0.03076
0.03850
0.04489
0.04638
0.04315
0.03730
0.02856
0.01504
-0.00273
-0.02220
-0.04298
-0.06676
-0.09252
-0.11510
-0.12961
-0.13405
-0.12689
-0.10545
-0.06744
-0.00977
0.07384
0.18347
0.29446
0.35888
0.34004
0.24481
0.11389
-0.01461
-0.12322
-0.20589
-0.25864
-0.28106
-0.27547
-0.24095
-0.17511
-0.08466
0.01083
0.08944
0.13934
0.16069
0.15949
0.14300
0.11831
0.09054
0.06167
0.03270
0.00639
-0.01399
-0.02834
-0.03963
-0.04969
-0.05675
-0.05819
-0.05419
-0.04737
-0.03957
-0.03050
-0.01932
-0.00650
0.00582
0.01488
0.01931
0.02057
0.02164
0.02368
0.02485
0.02277
0.01768
0.01206
0.00774
0.00430
0.00061
-0.00309
-0.00545
-0.00610
-0.00632
-0.00758
-0.00993
-0.01186
-0.01162
-0.00906
-0.00603
-0.00412
-0.00227
0.00128
0.00549
0.00726
0.00564
0.00296
0.00164
0.00183
0.00226
0.00220
0.00194
0.00193
0.00175
0.00058
-0.00130
-0.00246
-0.00210
-0.00105
-0.00069
-0.00139
-0.00219
-0.00155
0.00084
0.00301
0.00279
0.00078
-0.00053
-0.00030
0.00023
0.00019
-0.00009
-0.00056
-0.00141
-0.00189
-0.00113
0.00001
-0.00011
-0.00128
-0.00163
-0.00030
0.00162
0.00263
0.00234
0.00131
0.00025
-0.00049
-0.00094
-0.00118
-0.00122
-0.00108
-0.00078
-0.00026
0.00044
0.00107
0.00156
0.00231
0.00327
0.00345
0.00206
-0.00011
-0.00152
-0.00179
-0.00186
-0.00253
-0.00369
-0.00472
-0.00468
-0.00298
-0.00048
0.00096
0.00110
0.00182
0.00378
0.00476
0.00327
0.00142
0.00124
0.00129
-0.00006
-0.00093
0.00049
0.00188
0.00040
-0.00202
-0.00145
0.00167
0.00274
-0.00057
-0.00518
-0.00650
-0.00383
-0.00065
0.00007
-0.00088
-0.00103
0.00018
0.00138
0.00181
0.00197
0.00225
0.00240
0.00248
0.00285
0.00317
0.00241
0.00020
-0.00247
-0.00412
-0.00410
-0.00298
-0.00185
-0.00111
-0.00019
0.00119
0.00198
0.00092
-0.00118
-0.00182
0.00010
0.00285
0.00410
0.00346
0.00239
0.00211
0.00225
0.00132
-0.00115
-0.00365
-0.00459
-0.00465
-0.00554
-0.00705
-0.00732
-0.00568
-0.00334
-0.00122
0.00097
0.00350
0.00602
0.00832
0.01042
0.01194
0.01253
0.01255
0.01218
0.01006
0.00487
-0.00209
-0.00832
-0.01366
-0.01957
-0.02500
-0.02677
-0.02393
-0.01788
-0.00898
0.00250
0.01265
0.01646
0.01390
0.00976
0.00804
0.00982
0.01468
0.02026
0.02196
0.01697
0.00787
0.00013
-0.00342
-0.00422
-0.00536
-0.00850
-0.01252
-0.01477
-0.01418
-0.01263
-0.01277
-0.01472
-0.01625
-0.01586
-0.01395
-0.01114
-0.00755
-0.00402
-0.00132
0.00207
0.00853
0.01735
0.02534
0.03158
0.03779
0.04392
0.04692
0.04498
0.03991
0.03368
0.02488
0.01061
-0.00939
-0.03231
-0.05560
-0.07914
-0.10334
-0.12587
-0.14071
-0.14135
-0.12531
-0.09438
-0.04748
0.02453
0.12828
0.24757
0.34071
0.36669
0.31349
0.20039
0.06074
-0.07299
-0.17750
-0.24464
-0.27935
-0.28716
-0.26572
-0.21165
-0.13135
-0.04032
0.04506
0.11172
0.15113
0.16274
0.15459
0.13600
0.11097
0.08083
0.04943
0.02131
-0.00252
-0.02272
-0.03793
-0.04681
-0.05137
-0.05423
-0.05450
-0.04990
-0.04157
-0.03309
-0.02583
-0.01791
-0.00780
0.00322
0.01234
0.01816
0.02133
0.02307
0.02404
0.02478
0.02530
0.02403
0.01895
0.01055
0.00222
-0.00303
-0.00543
-0.00738
-0.01012
-0.01246
-0.01294
-0.01194
-0.01053
-0.00864
-0.00592
-0.00324
-0.00162
-0.00069
0.00049
0.00194
0.00307
0.00368
0.00405
0.00429
0.00430
0.00392
0.00320
0.00248
0.00188
0.00097
-0.00048
-0.00149
-0.00087
0.00078
0.00146
0.00051
-0.00069
-0.00115
-0.00166
-0.00292
-0.00374
-0.00287
-0.00133
-0.00097
-0.00167
-0.00178
-0.00084
0.00003
0.00014
0.00042
0.00227
0.00544
0.00752
0.00626
0.00241
-0.00078
-0.00117
0.00013
0.00051
-0.00132
-0.00459
-0.00778
-0.00925
-0.00756
-0.00299
0.00160
0.00331
0.00292
0.00372
0.00652
0.00836
0.00694
0.00361
0.00074
-0.00114
-0.00243
-0.00332
-0.00421
-0.00523
-0.00518
-0.00305
-0.00033
0.00084
0.00097
0.00201
0.00342
0.00272
-0.00024
-0.00265
-0.00285
-0.00190
-0.00109
-0.00028
0.00090
0.00198
0.00224
0.00162
0.00098
0.00135
0.00259
0.00325
0.00245
0.00118
0.00056
-0.00010
-0.00209
-0.00463
-0.00550
-0.00421
-0.00230
-0.00067
0.00089
0.00142
-0.00055
-0.00350
-0.00371
-0.00039
0.00326
0.00519
0.00644
0.00726
0.00550
0.00063
-0.00413
-0.00574
-0.00478
-0.00355
-0.00282
-0.00201
-0.00070
0.00102
0.00280
0.00395
0.00401
0.00339
0.00270
0.00198
0.00113
0.00013
-0.00144
-0.00369
-0.00539
-0.00488
-0.00220
0.00069
0.00168
0.00014
-0.00271
-0.00476
-0.00482
-0.00346
-0.00162
0.00076
0.00369
0.00556
0.00468
0.00213
0.00106
0.00284
0.00558
0.00706
0.00754
0.00849
0.00981
0.00946
0.00559
-0.00154
-0.00991
-0.01731
-0.02229
-0.02403
-0.02232
-0.01778
-0.01102
-0.00233
0.00658
0.01212
0.01235
0.00954
0.00761
0.00866
0.01280
0.01845
0.02194
0.02023
0.01459
0.00857
0.00317
-0.00284
-0.00888
-0.01305
-0.01540
-0.01722
-0.01806
-0.01671
-0.01417
-0.01250
-0.01164
-0.01040
-0.00925
-0.00935
-0.00949
-0.00734
-0.00306
0.00131
0.00549
0.01095
0.01806
0.02595
0.03421
0.04210
0.04720
0.04766
0.04476
0.04049
0.03347
0.02004
-0.00061
-0.02482
-0.04833
-0.07025
-0.09243
-0.11543
-0.13561
-0.14571
-0.13891
-0.11326
-0.07135
-0.01337
0.06795
0.17698
0.29453
0.37455
0.37310
0.28341
0.13956
-0.01072
-0.13314
-0.21518
-0.26131
-0.28259
-0.28420
-0.26013
-0.20187
-0.11229
-0.00975
0.08105
0.14251
0.17124
0.17456
0.16139
0.13711
0.10516
0.07008
0.03691
0.00830
-0.01558
-0.03443
-0.04721
-0.05443
-0.05834
-0.05981
-0.05728
-0.05004
-0.04000
-0.02934
-0.01859
-0.00799
0.00143
0.00923
0.01629
0.02278
0.02674
0.02638
0.02319
0.02071
0.01995
0.01813
0.01292
0.00586
0.00010
-0.00360
-0.00629
-0.00838
-0.00968
-0.01053
-0.01097
-0.01018
-0.00815
-0.00621
-0.00477
-0.00298
-0.00104
-0.00029
-0.00039
0.00044
0.00199
0.00216
0.00111
0.00160
0.00464
0.00760
0.00772
0.00523
0.00232
0.00061
0.00004
-0.00038
-0.00129
-0.00230
-0.00281
-0.00324
-0.00440
-0.00554
-0.00458
-0.00108
0.00243
0.00349
0.00258
0.00172
0.00156
0.00135
0.00081
0.00035
0.00005
-0.00039
-0.00085
-0.00104
-0.00132
-0.00208
-0.00246
-0.00122
0.00118
0.00265
0.00231
0.00171
0.00220
0.00270
0.00145
-0.00098
-0.00225
-0.00182
-0.00152
-0.00239
-0.00307
-0.00218
-0.00048
0.00039
0.00005
-0.00052
-0.00013
0.00152
0.00355
0.00479
0.00493
0.00419
0.00248
-0.00012
-0.00249
-0.00347
-0.00345
-0.00381
-0.00492
-0.00538
-0.00392
-0.00131
0.00052
0.00097
0.00138
0.00292
0.00498
0.00601
0.00522
0.00302
0.00048
-0.00120
-0.00137
-0.00058
-0.00011
-0.00085
-0.00268
-0.00456
-0.00492
-0.00301
-0.00022
0.00121
0.00092
0.00063
0.00145
0.00263
0.00303
0.00260
0.00195
0.00138
0.00059
-0.00082
-0.00257
-0.00362
-0.00343
-0.00266
-0.00203
-0.00127
-0.00005
0.00123
0.00192
0.00181
0.00098
-0.00007
-0.00050
0.00020
0.00181
0.00382
0.00534
0.00525
0.00329
0.00044
-0.00219
-0.00427
-0.00543
-0.00499
-0.00293
-0.00050
0.00087
0.00075
-0.00030
-0.00160
-0.00270
-0.00338
-0.00364
-0.00382
-0.00402
-0.00340
-0.00099
0.00267
0.00581
0.00735
0.00808
0.00933
0.01100
0.01141
0.00936
0.00595
0.00344
0.00238
0.00069
-0.00431
-0.01290
-0.02182
-0.02636
-0.02455
-0.01887
-0.01273
-0.00642
0.00160
0.01023
0.01509
0.01320
0.00742
0.00472
0.00948
0.01886
0.02554
0.02467
0.01732
0.00788
-0.00007
-0.00543
-0.00869
-0.01057
-0.01133
-0.01151
-0.01248
-0.01469
-0.01615
-0.01500
-0.01290
-0.01266
-0.01393
-0.01425
-0.01294
-0.01027
-0.00486
0.00387
0.01231
0.01647
0.01800
0.02207
0.02997
0.03793
0.04279
0.04486
0.04484
0.04139
0.03305
0.02001
0.00322
-0.01654
-0.03813
-0.06054
-0.08386
-0.10784
-0.12883
-0.14016
-0.13677
-0.11851
-0.08624
-0.03459
0.04700
0.15873
0.27504
0.35201
0.35621
0.28595
0.16564
0.02786
-0.09783
-0.19122
-0.24802
-0.27685
-0.28370
-0.26266
-0.20577
-0.11835
-0.02007
0.06674
0.12751
0.15837
0.16397
0.15261
0.13112
0.10342
0.07261
0.04206
0.01448
-0.00856
-0.02622
-0.03841
-0.04605
-0.05058
-0.05293
-0.05282
-0.04972
-0.04425
-0.03750
-0.02899
-0.01730
-0.00351
0.00856
0.01659
0.02205
0.02654
0.02888
0.02758
0.02409
0.02090
0.01817
0.01421
0.00843
0.00187
-0.00416
-0.00893
-0.01219
-0.01404
-0.01430
-0.01230
-0.00832
-0.00446
-0.00257
-0.00192
-0.00076
0.00075
0.00106
0.00010
-0.00049
0.00016
0.00129
0.00193
0.00182
0.00120
0.00080
0.00145
0.00289
0.00372
0.00311
0.00184
0.00099
0.00057
0.00006
-0.00048
-0.00060
-0.00047
-0.00056
-0.00064
-0.00007
0.00055
-0.00046
-0.00317
-0.00493
-0.00371
-0.00115
-0.00023
-0.00081
-0.00044
0.00119
0.00186
0.00096
0.00064
0.00208
0.00356
0.00315
0.00150
0.00049
0.00051
0.00008
-0.00184
-0.00397
-0.00379
-0.00079
0.00234
0.00275
0.00076
-0.00095
-0.00099
-0.00039
-0.00034
-0.00056
-0.00055
-0.00065
-0.00121
-0.00166
-0.00125
-0.00010
0.00117
0.00220
0.00299
0.00361
0.00386
0.00287
0.00013
-0.00277
-0.00326
-0.00148
-0.00065
-0.00243
-0.00446
-0.00397
-0.00164
-0.00013
-0.00008
0.00023
0.00172
0.00308
0.00325
0.00305
0.00338
0.00362
0.00320
0.00255
0.00158
-0.00072
-0.00401
-0.00622
-0.00626
-0.00516
-0.00390
-0.00223
-0.00011
0.00167
0.00281
0.00385
0.00469
0.00426
0.00229
0.00026
-0.00026
0.00038
0.00041
-0.00107
-0.00320
-0.00470
-0.00505
-0.00424
-0.00232
0.00021
0.00260
0.00430
0.00491
0.00417
0.00286
0.00240
0.00279
0.00235
0.00050
-0.00121
-0.00152
-0.00126
-0.00157
-0.00223
-0.00265
-0.00309
-0.00372
-0.00391
-0.00349
-0.00351
-0.00439
-0.00451
-0.00240
0.00074
0.00239
0.00208
0.00183
0.00388
0.00832
0.01270
0.01416
0.01260
0.01062
0.00962
0.00784
0.00326
-0.00346
-0.01073
-0.01820
-0.02504
-0.02832
-0.02589
-0.01948
-0.01240
-0.00540
0.00256
0.01064
0.01567
0.01584
0.01311
0.01169
0.01449
0.02024
0.02391
0.02124
0.01328
0.00509
-0.00007
-0.00349
-0.00753
-0.01207
-0.01570
-0.01812
-0.01943
-0.01902
-0.01665
-0.01375
-0.01191
-0.01098
-0.00960
-0.00729
-0.00484
-0.00280
-0.00048
0.00300
0.00743
0.01226
0.01760
0.02365
0.02991
0.03583
0.04114
0.04472
0.04446
0.03950
0.03112
0.02006
0.00445
-0.01733
-0.04330
-0.06965
-0.09453
-0.11733
-0.13493
-0.14186
-0.13419
-0.11099
-0.07132
-0.01092
0.07569
0.18528
0.29436
0.36189
0.35281
0.26406
0.12714
-0.01431
-0.12928
-0.20812
-0.25585
-0.27957
-0.27969
-0.25035
-0.18795
-0.09929
-0.00196
0.08306
0.14065
0.16685
0.16759
0.15241
0.12823
0.09842
0.06613
0.03555
0.00922
-0.01318
-0.03230
-0.04701
-0.05596
-0.05946
-0.05883
-0.05490
-0.04799
-0.03876
-0.02851
-0.01838
-0.00844
0.00175
0.01170
0.01963
0.02418
0.02587
0.02602
0.02485
0.02165
0.01682
0.01242
0.00987
0.00797
0.00441
-0.00120
-0.00691
-0.01065
-0.01205
-0.01204
-0.01174
-0.01151
-0.01079
-0.00871
-0.00528
-0.00174
0.00065
0.00198
0.00321
0.00448
0.00477
0.00351
0.00176
0.00134
0.00293
0.00519
0.00612
0.00518
0.00373
0.00283
0.00157
-0.00135
-0.00521
-0.00782
-0.00820
-0.00703
-0.00504
-0.00239
0.00032
0.00205
0.00250
0.00251
0.00294
0.00376
0.00439
0.00450
0.00382
0.00204
-0.00050
-0.00250
-0.00319
-0.00323
-0.00340
-0.00333
-0.00256
-0.00155
-0.00074
0.00018
0.00133
0.00208
0.00223
0.00248
0.00294
0.00265
0.00099
-0.00136
-0.00347
-0.00476
-0.00435
-0.00181
0.00120
0.00209
0.00096
0.00070
0.00285
0.00573
0.00714
0.00624
0.00276
-0.00267
-0.00730
-0.00820
-0.00599
-0.00401
-0.00372
-0.00343
-0.00162
0.00091
0.00254
0.00271
0.00221
0.00224
0.00307
0.00361
0.00324
0.00295
0.00334
0.00298
0.00067
-0.00233
-0.00398
-0.00387
-0.00265
-0.00104
-0.00019
-0.00103
-0.00236
-0.00196
-0.00017
0.00035
-0.00095
-0.00146
0.00035
0.00254
0.00287
0.00177
0.00089
0.00054
0.00003
-0.00070
-0.00117
-0.00124
-0.00118
-0.00108
-0.00066
0.00016
0.00104
0.00183
0.00295
0.00455
0.00530
0.00340
-0.00073
-0.00425
-0.00516
-0.00464
-0.00443
-0.00353
0.00001
0.00470
0.00634
0.00344
-0.00073
-0.00264
-0.00267
-0.00335
-0.00536
-0.00691
-0.00650
-0.00464
-0.00265
-0.00055
0.00273
0.00721
0.01113
0.01302
0.01352
0.01395
0.01379
0.01119
0.00605
0.00043
-0.00452
-0.01025
-0.01777
-0.02493
-0.02860
-0.02794
-0.02340
-0.01439
-0.00156
0.01034
0.01591
0.01507
0.01232
0.01125
0.01272
0.01664
0.02141
0.02293
0.01831
0.01007
0.00308
-0.00134
-0.00519
-0.00917
-0.01211
-0.01381
-0.01521
-0.01625
-0.01600
-0.01459
-0.01308
-0.01200
-0.01134
-0.01137
-0.01190
-0.01152
-0.00879
-0.00390
0.00187
0.00795
0.01498
0.02355
0.03298
0.04154
0.04743
0.04954
0.04775
0.04283
0.03554
0.02536
0.01083
-0.00828
-0.03027
-0.05369
-0.07868
-0.10445
-0.12673
-0.14005
-0.14137
-0.12935
-0.10168
-0.05509
0.01392
0.10799
0.22050
0.32390
0.37487
0.34265
0.23400
0.08790
-0.05223
-0.16036
-0.23092
-0.26997
-0.28444
-0.27527
-0.23777
-0.16900
-0.07613
0.02192
0.10276
0.15275
0.17175
0.16761
0.14848
0.12055
0.08904
0.05785
0.02888
0.00295
-0.01885
-0.03565
-0.04762
-0.05544
-0.05909
-0.05829
-0.05373
-0.04677
-0.03799
-0.02724
-0.01516
-0.00353
0.00605
0.01304
0.01769
0.02084
0.02344
0.02516
0.02437
0.02077
0.01660
0.01392
0.01188
0.00833
0.00277
-0.00345
-0.00866
-0.01149
-0.01143
-0.00973
-0.00859
-0.00872
-0.00889
-0.00800
-0.00634
-0.00457
-0.00280
-0.00083
0.00120
0.00300
0.00445
0.00567
0.00675
0.00747
0.00728
0.00560
0.00242
-0.00119
-0.00352
-0.00354
-0.00197
-0.00068
-0.00091
-0.00222
-0.00307
-0.00237
-0.00056
0.00091
0.00122
0.00085
0.00064
0.00076
0.00086
0.00079
0.00067
0.00062
0.00057
0.00032
-0.00015
-0.00054
-0.00078
-0.00133
-0.00238
-0.00303
-0.00242
-0.00115
-0.00029
0.00065
0.00268
0.00467
0.00434
0.00173
-0.00069
-0.00127
-0.00059
0.00029
0.00080
0.00044
-0.00089
-0.00221
-0.00250
-0.00209
-0.00166
-0.00076
0.00123
0.00332
0.00358
0.00173
-0.00026
-0.00061
-0.00007
-0.00062
-0.00221
-0.00248
-0.00041
0.00153
0.00045
-0.00271
-0.00423
-0.00226
0.00138
0.00389
0.00405
0.00256
0.00107
0.00080
0.00108
0.00014
-0.00211
-0.00319
-0.00131
0.00183
0.00305
0.00164
-0.00037
-0.00137
-0.00165
-0.00173
-0.00119
0.00001
0.00069
-0.00000
-0.00140
-0.00229
-0.00213
-0.00100
0.00065
0.00188
0.00197
0.00124
0.00055
0.00026
0.00012
-0.00005
-0.00015
-0.00000
0.00040
0.00085
0.00120
0.00168
0.00258
0.00345
0.00331
0.00197
0.00027
-0.00155
-0.00397
-0.00624
-0.00628
-0.00395
-0.00204
-0.00258
-0.00409
-0.00413
-0.00260
-0.00097
0.00017
0.00126
0.00252
0.00379
0.00517
0.00703
0.00982
0.01331
0.01580
0.01495
0.01009
0.00327
-0.00298
-0.00843
-0.01460
-0.02154
-0.02634
-0.02602
-0.02105
-0.01440
-0.00731
0.00109
0.00973
0.01458
0.01344
0.00951
0.00817
0.01171
0.01832
0.02416
0.02505
0.01879
0.00777
-0.00237
-0.00813
-0.01055
-0.01200
-0.01304
-0.01344
-0.01367
-0.01381
-0.01286
-0.01056
-0.00863
-0.00882
-0.01040
-0.01109
-0.01004
-0.00819
-0.00604
-0.00268
0.00246
0.00858
0.01451
0.02009
0.02615
0.03347
0.04142
0.04753
0.04901
0.04482
0.03589
0.02360
0.00863
-0.00895
-0.02942
-0.05311
-0.07963
-0.10646
-0.12846
-0.13979
-0.13708
-0.12049
-0.09069
-0.04424
0.02654
0.12467
0.23584
0.32638
0.35893
0.31508
0.20633
0.06648
-0.06697
-0.16980
-0.23680
-0.27395
-0.28539
-0.26829
-0.21930
-0.14256
-0.05064
0.03985
0.11270
0.15673
0.16998
0.15967
0.13677
0.10960
0.08137
0.05240
0.02372
-0.00220
-0.02351
-0.03989
-0.05112
-0.05658
-0.05687
-0.05424
-0.05022
-0.04400
-0.03448
-0.02279
-0.01139
-0.00159
0.00683
0.01401
0.01950
0.02295
0.02432
0.02364
0.02135
0.01844
0.01550
0.01202
0.00742
0.00249
-0.00111
-0.00285
-0.00413
-0.00621
-0.00835
-0.00910
-0.00885
-0.00914
-0.00983
-0.00905
-0.00617
-0.00295
-0.00097
0.00014
0.00137
0.00269
0.00379
0.00484
0.00571
0.00547
0.00375
0.00179
0.00090
0.00094
0.00090
0.00043
-0.00005
-0.00031
-0.00053
-0.00080
-0.00103
-0.00113
-0.00115
-0.00116
-0.00120
-0.00121
-0.00111
-0.00106
-0.00125
-0.00150
-0.00104
0.00058
0.00260
0.00331
0.00173
-0.00110
-0.00289
-0.00231
-0.00002
0.00250
0.00429
0.00479
0.00352
0.00077
-0.00200
-0.00336
-0.00326
-0.00292
-0.00329
-0.00383
-0.00304
-0.00051
0.00212
0.00303
0.00267
0.00285
0.00352
0.00261
-0.00016
-0.00201
-0.00097
0.00121
0.00185
0.00094
-0.00010
-0.00108
-0.00227
-0.00270
-0.00181
-0.00100
-0.00122
-0.00111
0.00030
0.00121
0.00001
-0.00165
-0.00163
-0.00079
-0.00085
-0.00082
0.00119
0.00420
0.00549
0.00446
0.00283
0.00184
0.00136
0.00116
0.00086
-0.00068
-0.00391
-0.00689
-0.00717
-0.00482
-0.00189
0.00040
0.00207
0.00278
0.00200
0.00050
-0.00027
0.00000
0.00050
0.00064
0.00050
0.00052
0.00112
0.00213
0.00228
0.00049
-0.00226
-0.00363
-0.00271
-0.00065
0.00128
0.00283
0.00383
0.00367
0.00219
0.00037
-0.00065
-0.00068
-0.00038
-0.00039
-0.00080
-0.00139
-0.00202
-0.00272
-0.00342
-0.00399
-0.00431
-0.00434
-0.00405
-0.00335
-0.00218
-0.00059
0.00129
0.00348
0.00603
0.00866
0.01055
0.01094
0.00987
0.00819
0.00675
0.00556
0.00391
0.00119
-0.00281
-0.00812
-0.01431
-0.01986
-0.02257
-0.02127
-0.01677
-0.01071
-0.00403
0.00272
0.00804
0.00981
0.00757
0.00438
0.00529
0.01254
0.02240
0.02816
0.02637
0.01913
0.01044
0.00267
-0.00364
-0.00885
-0.01359
-0.01757
-0.01913
-0.01759
-0.01502
-0.01396
-0.01431
-0.01419
-0.01306
-0.01167
-0.01009
-0.00781
-0.00518
-0.00276
0.00023
0.00527
0.01242
0.02021
0.02745
0.03403
0.03982
0.04388
0.04506
0.04312
0.03864
0.03164
0.02079
0.00461
-0.01651
-0.04039
-0.06519
-0.09052
-0.11528
-0.13513
-0.14415
-0.13901
-0.11950
-0.08372
-0.02491
0.06338
0.17606
0.28897
0.36404
0.36748
0.29018
0.15505
0.00447
-0.12340
-0.21174
-0.26377
-0.28784
-0.28537
-0.25266
-0.18981
-0.10494
-0.01213
0.07198
0.13290
0.16417
0.16872
0.15418
0.12857
0.09902
0.06995
0.04179
0.01401
-0.01115
-0.03045
-0.04355
-0.05217
-0.05674
-0.05670
-0.05305
-0.04761
-0.04060
-0.03119
-0.02002
-0.00901
0.00066
0.00884
0.01529
0.01958
0.02188
0.02270
0.02232
0.02128
0.02018
0.01830
0.01411
0.00814
0.00319
0.00037
-0.00258
-0.00746
-0.01232
-0.01423
-0.01318
-0.01114
-0.00896
-0.00618
-0.00310
-0.00122
-0.00144
-0.00268
-0.00264
-0.00035
0.00274
0.00461
0.00498
0.00498
0.00518
0.00518
0.00465
0.00383
0.00299
0.00203
0.00080
-0.00060
-0.00192
-0.00315
-0.00464
-0.00636
-0.00731
-0.00624
-0.00304
0.00104
0.00454
0.00645
0.00615
0.00379
0.00099
-0.00013
0.00062
0.00106
-0.00063
-0.00347
-0.00483
-0.00348
-0.00081
0.00081
0.00057
-0.00011
0.00039
0.00160
0.00176
0.00063
-0.00029
-0.00021
0.00025
0.00077
0.00151
0.00165
0.00011
-0.00185
-0.00162
0.00065
0.00166
-0.00028
-0.00283
-0.00323
-0.00177
-0.00018
0.00111
0.00231
0.00286
0.00226
0.00113
0.00035
-0.00015
-0.00080
-0.00152
-0.00187
-0.00190
-0.00195
-0.00183
-0.00097
0.00039
0.00113
0.00098
0.00118
0.00249
0.00344
0.00216
-0.00052
-0.00170
-0.00032
0.00115
0.00010
-0.00260
-0.00386
-0.00256
-0.00029
0.00131
0.00211
0.00258
0.00296
0.00316
0.00265
0.00070
-0.00234
-0.00483
-0.00539
-0.00396
-0.00140
0.00091
0.00130
-0.00076
-0.00333
-0.00364
-0.00122
0.00185
0.00366
0.00435
0.00490
0.00554
0.00578
0.00530
0.00392
0.00137
-0.00195
-0.00430
-0.00425
-0.00267
-0.00204
-0.00342
-0.00517
-0.00524
-0.00389
-0.00317
-0.00405
-0.00510
-0.00451
-0.00229
0.00009
0.00202
0.00435
0.00754
0.01001
0.00985
0.00775
0.00665
0.00822
0.01103
0.01213
0.00948
0.00326
-0.00425
-0.01062
-0.01564
-0.02034
-0.02393
-0.02417
-0.02048
-0.01424
-0.00655
0.00157
0.00765
0.00966
0.00870
0.00792
0.00989
0.01565
0.02367
0.02907
0.02694
0.01772
0.00710
-0.00038
-0.00513
-0.00943
-0.01324
-0.01503
-0.01484
-0.01426
-0.01416
-0.01392
-0.01318
-0.01293
-0.01410
-0.01567
-0.01520
-0.01180
-0.00709
-0.00286
0.00112
0.00615
0.01256
0.01956
0.02648
0.03310
0.03904
0.04345
0.04543
0.04461
0.04077
0.03324
0.02126
0.00529
-0.01326
-0.03387
-0.05721
-0.08266
-0.10718
-0.12748
-0.14084
-0.14292
-0.12807
-0.09358
-0.03951
0.03724
0.14040
0.25683
0.34730
0.36847
0.30731
0.18840
0.05007
-0.07807
-0.17868
-0.24438
-0.27739
-0.28378
-0.26465
-0.21658
-0.14094
-0.04898
0.04162
0.11355
0.15646
0.17042
0.16313
0.14310
0.11590
0.08503
0.05341
0.02336
-0.00374
-0.02687
-0.04464
-0.05572
-0.06012
-0.05962
-0.05629
-0.05066
-0.04245
-0.03241
-0.02202
-0.01163
-0.00080
0.00946
0.01692
0.02089
0.02271
0.02337
0.02266
0.02082
0.01862
0.01586
0.01169
0.00655
0.00214
-0.00063
-0.00233
-0.00378
-0.00528
-0.00690
-0.00861
-0.01003
-0.01088
-0.01118
-0.01071
-0.00889
-0.00582
-0.00242
0.00095
0.00458
0.00777
0.00876
0.00723
0.00514
0.00417
0.00365
0.00220
0.00010
-0.00120
-0.00124
-0.00111
-0.00180
-0.00278
-0.00270
-0.00122
0.00043
0.00095
0.00045
-0.00015
-0.00051
-0.00084
-0.00083
0.00024
0.00224
0.00347
0.00213
-0.00120
-0.00341
-0.00270
-0.00116
-0.00149
-0.00234
-0.00061
0.00265
0.00324
0.00073
-0.00081
0.00039
0.00117
-0.00063
-0.00220
-0.00040
0.00309
0.00427
0.00250
0.00056
0.00013
-0.00024
-0.00225
-0.00505
-0.00629
-0.00483
-0.00160
0.00160
0.00356
0.00411
0.00382
0.00328
0.00259
0.00172
0.00084
-0.00004
-0.00135
-0.00295
-0.00362
-0.00272
-0.00164
-0.00186
-0.00239
-0.00115
0.00137
0.00244
0.00106
-0.00058
-0.00033
0.00127
0.00246
0.00241
0.00150
0.00055
0.00026
0.00047
0.00046
0.00068
0.00214
0.00346
0.00139
-0.00383
-0.00712
-0.00526
-0.00156
-0.00067
-0.00200
-0.00179
0.00067
0.00282
0.00331
0.00292
0.00175
-0.00088
-0.00373
-0.00403
-0.00123
0.00205
0.00350
0.00356
0.00356
0.00355
0.00273
0.00089
-0.00124
-0.00246
-0.00241
-0.00229
-0.00321
-0.00409
-0.00294
0.00012
0.00314
0.00476
0.00466
0.00276
-0.00028
-0.00273
-0.00343
-0.00306
-0.00303
-0.00377
-0.00468
-0.00508
-0.00467
-0.00328
-0.00083
0.00238
0.00565
0.00840
0.01045
0.01177
0.01238
0.01216
0.01072
0.00781
0.00390
-0.00058
-0.00650
-0.01455
-0.02249
-0.02638
-0.02523
-0.02149
-0.01642
-0.00849
0.00217
0.01141
0.01514
0.01344
0.01000
0.00927
0.01384
0.02179
0.02678
0.02359
0.01365
0.00321
-0.00362
-0.00747
-0.01022
-0.01208
-0.01237
-0.01116
-0.00954
-0.00909
-0.01061
-0.01300
-0.01447
-0.01487
-0.01521
-0.01522
-0.01338
-0.00943
-0.00472
-0.00026
0.00436
0.01007
0.01753
0.02648
0.03530
0.04224
0.04684
0.04914
0.04794
0.04212
0.03260
0.02056
0.00484
-0.01601
-0.04012
-0.06403
-0.08719
-0.11073
-0.13192
-0.14357
-0.13990
-0.12040
-0.08584
-0.03239
0.04720
0.15289
0.26601
0.34978
0.36712
0.30399
0.17910
0.03187
-0.09978
-0.19495
-0.25165
-0.27793
-0.27993
-0.25672
-0.20543
-0.12870
-0.03678
0.05395
0.12445
0.16161
0.16697
0.15374
0.13340
0.10857
0.07867
0.04677
0.01799
-0.00561
-0.02518
-0.04121
-0.05168
-0.05520
-0.05433
-0.05303
-0.05106
-0.04465
-0.03328
-0.02141
-0.01215
-0.00365
0.00599
0.01462
0.01960
0.02207
0.02450
0.02635
0.02510
0.02045
0.01499
0.01081
0.00742
0.00353
-0.00055
-0.00335
-0.00449
-0.00531
-0.00726
-0.01028
-0.01283
-0.01322
-0.01131
-0.00885
-0.00725
-0.00558
-0.00226
0.00191
0.00474
0.00604
0.00737
0.00863
0.00771
0.00422
0.00101
0.00059
0.00191
0.00211
0.00033
-0.00185
-0.00306
-0.00333
-0.00286
-0.00140
0.00055
0.00166
0.00139
0.00057
0.00003
-0.00028
-0.00079
-0.00173
-0.00286
-0.00352
-0.00314
-0.00180
-0.00012
0.00158
0.00322
0.00427
0.00411
0.00292
0.00162
0.00075
0.00005
-0.00073
-0.00134
-0.00163
-0.00190
-0.00225
-0.00220
-0.00172
-0.00161
-0.00196
-0.00120
0.00150
0.00401
0.00388
0.00209
0.00137
0.00168
0.00083
-0.00122
-0.00237
-0.00216
-0.00204
-0.00215
-0.00111
0.00105
0.00246
0.00216
0.00113
0.00056
0.00063
0.00077
0.00018
-0.00143
-0.00326
-0.00405
-0.00337
-0.00176
0.00004
0.00144
0.00197
0.00186
0.00198
0.00272
0.00340
0.00324
0.00220
0.00087
-0.00010
-0.00052
-0.00115
-0.00278
-0.00446
-0.00400
-0.00142
0.00022
-0.00091
-0.00244
-0.00135
0.00128
0.00203
0.00022
-0.00141
-0.00075
0.00142
0.00332
0.00425
0.00406
0.00253
0.00031
-0.00102
-0.00099
-0.00103
-0.00199
-0.00250
-0.00134
0.00022
0.00028
-0.00057
-0.00025
0.00134
0.00214
0.00125
0.00015
0.00035
0.00098
-0.00012
-0.00361
-0.00750
-0.00918
-0.00793
-0.00504
-0.00196
0.00082
0.00358
0.00672
0.00997
0.01213
0.01220
0.01094
0.01006
0.00971
0.00798
0.00351
-0.00297
-0.00989
-0.01605
-0.02029
-0.02159
-0.02019
-0.01726
-0.01287
-0.00611
0.00217
0.00859
0.01044
0.00838
0.00556
0.00562
0.01061
0.01888
0.02511
0.02479
0.01816
0.00895
0.00059
-0.00530
-0.00852
-0.00995
-0.01086
-0.01188
-0.01296
-0.01394
-0.01461
-0.01447
-0.01313
-0.01130
-0.01039
-0.01080
-0.01114
-0.00999
-0.00718
-0.00274
0.00376
0.01181
0.01953
0.02579
0.03130
0.03650
0.04016
0.04120
0.04019
0.03765
0.03208
0.02162
0.00661
-0.01116
-0.03065
-0.05166
-0.07346
-0.09478
-0.11385
-0.12725
-0.13010
-0.11894
-0.09325
-0.05146
0.01352
0.10880
0.22465
0.32444
0.36118
0.31199
0.19609
0.05735
-0.06722
-0.16193
-0.22593
-0.26260
-0.27391
-0.25856
-0.21386
-0.14089
-0.04921
0.04295
0.11490
0.15414
0.16250
0.15088
0.12899
0.10194
0.07324
0.04575
0.02048
-0.00224
-0.02098
-0.03477
-0.04461
-0.05138
-0.05386
-0.05096
-0.04461
-0.03822
-0.03268
-0.02580
-0.01611
-0.00519
0.00441
0.01186
0.01774
0.02209
0.02432
0.02441
0.02308
0.02061
0.01663
0.01140
0.00636
0.00255
-0.00068
-0.00417
-0.00729
-0.00894
-0.00916
-0.00867
-0.00771
-0.00646
-0.00554
-0.00519
-0.00480
-0.00381
-0.00245
-0.00117
-0.00002
0.00110
0.00214
0.00293
0.00346
0.00378
0.00391
0.00384
0.00358
0.00315
0.00264
0.00209
0.00143
0.00067
-0.00003
-0.00061
-0.00132
-0.00225
-0.00296
-0.00330
-0.00403
-0.00548
-0.00618
-0.00461
-0.00173
0.00066
0.00294
0.00613
0.00840
0.00723
0.00402
0.00242
0.00276
0.00190
-0.00176
-0.00615
-0.00810
-0.00648
-0.00285
0.00021
0.00152
0.00161
0.00088
-0.00085
-0.00263
-0.00233
0.00054
0.00369
0.00442
0.00257
0.00059
0.00096
0.00330
0.00473
0.00329
-0.00002
-0.00327
-0.00557
-0.00649
-0.00537
-0.00254
0.00003
0.00101
0.00139
0.00254
0.00364
0.00279
0.00015
-0.00211
-0.00250
-0.00144
-0.00032
-0.00024
-0.00082
-0.00051
0.00091
0.00145
0.00029
0.00013
0.00297
0.00605
0.00545
0.00185
-0.00113
-0.00224
-0.00280
-0.00322
-0.00284
-0.00214
-0.00227
-0.00289
-0.00252
-0.00102
0.00022
0.00053
0.00070
0.00115
0.00101
0.00008
0.00005
0.00198
0.00391
0.00330
0.00081
-0.00097
-0.00123
-0.00077
0.00029
0.00197
0.00298
0.00251
0.00174
0.00172
0.00150
-0.00002
-0.00226
-0.00426
-0.00588
-0.00707
-0.00735
-0.00643
-0.00438
-0.00183
-0.00005
0.00029
0.00059
0.00242
0.00476
0.00576
0.00625
0.00817
0.01059
0.01109
0.00980
0.00847
0.00699
0.00412
0.00012
-0.00455
-0.01113
-0.01945
-0.02510
-0.02398
-0.01809
-0.01248
-0.00799
-0.00189
0.00566
0.01076
0.01103
0.00821
0.00615
0.00817
0.01469
0.02197
0.02464
0.02075
0.01290
0.00465
-0.00229
-0.00740
-0.01025
-0.01103
-0.01108
-0.01194
-0.01362
-0.01423
-0.01241
-0.00997
-0.01024
-0.01349
-0.01625
-0.01600
-0.01365
-0.01028
-0.00469
0.00347
0.01144
0.01692
0.02140
0.02736
0.03413
0.03945
0.04289
0.04496
0.04450
0.03988
0.03126
0.01901
0.00197
-0.02028
-0.04492
-0.06857
-0.09103
-0.11351
-0.13339
-0.14370
-0.13853
-0.11692
-0.07900
-0.01989
0.06777
0.18087
0.29475
0.36834
0.36611
0.28152
0.14240
-0.00697
-0.13119
-0.21581
-0.26289
-0.28080
-0.27618
-0.24898
-0.19361
-0.10892
-0.00874
0.08127
0.14039
0.16524
0.16537
0.15100
0.12785
0.09959
0.06943
0.03939
0.01105
-0.01321
-0.03137
-0.04365
-0.05169
-0.05641
-0.05731
-0.05380
-0.04660
-0.03783
-0.02937
-0.02140
-0.01296
-0.00373
0.00585
0.01538
0.02393
0.02931
0.02984
0.02668
0.02244
0.01832
0.01420
0.01039
0.00705
0.00308
-0.00237
-0.00786
-0.01103
-0.01156
-0.01120
-0.01117
-0.01088
-0.00955
-0.00747
-0.00506
-0.00194
0.00166
0.00402
0.00372
0.00181
0.00094
0.00222
0.00392
0.00376
0.00210
0.00141
0.00262
0.00365
0.00246
0.00005
-0.00125
-0.00099
-0.00051
-0.00056
-0.00070
-0.00071
-0.00085
-0.00101
-0.00096
-0.00123
-0.00214
-0.00255
-0.00131
0.00050
0.00089
0.00018
0.00038
0.00179
0.00263
0.00188
0.00027
-0.00115
-0.00174
-0.00106
0.00044
0.00136
0.00095
0.00001
-0.00038
-0.00019
-0.00009
-0.00029
-0.00024
0.00048
0.00111
0.00015
-0.00238
-0.00386
-0.00189
0.00207
0.00380
0.00165
-0.00121
-0.00121
0.00102
0.00244
0.00191
0.00053
-0.00083
-0.00166
-0.00123
0.00009
0.00040
-0.00111
-0.00250
-0.00192
-0.00020
0.00088
0.00106
0.00072
-0.00036
-0.00178
-0.00194
-0.00038
0.00108
0.00087
0.00005
0.00079
0.00318
0.00518
0.00512
0.00324
0.00084
-0.00096
-0.00162
-0.00167
-0.00253
-0.00475
-0.00656
-0.00590
-0.00357
-0.00230
-0.00245
-0.00138
0.00218
0.00573
0.00656
0.00521
0.00374
0.00285
0.00210
0.00122
0.00001
-0.00150
-0.00228
-0.00142
-0.00003
0.00021
-0.00018
0.00032
0.00102
0.00003
-0.00216
-0.00305
-0.00210
-0.00140
-0.00219
-0.00326
-0.00333
-0.00288
-0.00267
-0.00251
-0.00234
-0.00243
-0.00184
0.00123
0.00639
0.01073
0.01256
0.01322
0.01403
0.01377
0.01071
0.00545
-0.00027
-0.00612
-0.01265
-0.01907
-0.02345
-0.02450
-0.02224
-0.01755
-0.01167
-0.00509
0.00275
0.01122
0.01659
0.01547
0.01052
0.00926
0.01521
0.02283
0.02385
0.01692
0.00783
0.00167
-0.00173
-0.00522
-0.00986
-0.01361
-0.01399
-0.01151
-0.00936
-0.00934
-0.01009
-0.01021
-0.01051
-0.01195
-0.01353
-0.01362
-0.01192
-0.00905
-0.00550
-0.00146
0.00321
0.00925
0.01701
0.02527
0.03245
0.03836
0.04355
0.04729
0.04788
0.04413
0.03540
0.02112
0.00189
-0.01966
-0.04112
-0.06291
-0.08662
-0.11052
-0.12870
-0.13539
-0.12862
-0.10940
-0.07865
-0.03352
0.03516
0.13565
0.25573
0.35287
0.37696
0.30919
0.17547
0.02350
-0.10744
-0.19962
-0.25432
-0.28111
-0.28493
-0.26103
-0.20350
-0.11702
-0.01871
0.06967
0.13177
0.16242
0.16665
0.15335
0.12991
0.10139
0.07145
0.04221
0.01479
-0.00933
-0.02847
-0.04201
-0.05069
-0.05553
-0.05715
-0.05550
-0.05020
-0.04149
-0.03079
-0.01973
-0.00912
0.00074
0.00936
0.01626
0.02125
0.02424
0.02515
0.02427
0.02204
0.01844
0.01332
0.00770
0.00335
0.00091
-0.00065
-0.00229
-0.00412
-0.00627
-0.00885
-0.01081
-0.01061
-0.00846
-0.00630
-0.00520
-0.00445
-0.00313
-0.00143
0.00005
0.00118
0.00216
0.00303
0.00364
0.00375
0.00345
0.00314
0.00287
0.00200
0.00046
-0.00039
0.00040
0.00161
0.00165
0.00116
0.00145
0.00174
0.00046
-0.00181
-0.00334
-0.00392
-0.00427
-0.00404
-0.00242
0.00002
0.00174
0.00197
0.00105
-0.00037
-0.00160
-0.00180
-0.00056
0.00141
0.00289
0.00339
0.00331
0.00274
0.00120
-0.00106
-0.00268
-0.00270
-0.00171
-0.00095
-0.00067
-0.00001
0.00136
0.00230
0.00158
-0.00018
-0.00115
-0.00094
-0.00078
-0.00098
-0.00019
0.00191
0.00317
0.00152
-0.00231
-0.00555
-0.00599
-0.00326
0.00106
0.00430
0.00470
0.00305
0.00139
0.00057
0.00007
-0.00027
-0.00008
0.00037
0.00017
-0.00082
-0.00152
-0.00102
-0.00003
-0.00020
-0.00158
-0.00200
-0.00014
0.00208
0.00211
0.00030
-0.00120
-0.00153
-0.00113
-0.00007
0.00135
0.00188
0.00097
-0.00003
0.00017
0.00101
0.00119
0.00068
0.00030
0.00021
-0.00023
-0.00110
-0.00146
-0.00101
-0.00110
-0.00268
-0.00421
-0.00363
-0.00166
-0.00049
-0.00007
0.00154
0.00447
0.00654
0.00622
0.00408
0.00131
-0.00115
-0.00242
-0.00190
0.00009
0.00257
0.00423
0.00367
0.00060
-0.00333
-0.00591
-0.00661
-0.00622
-0.00521
-0.00354
-0.00189
-0.00131
-0.00171
-0.00192
-0.00139
-0.00053
0.00068
0.00294
0.00574
0.00710
0.00625
0.00511
0.00567
0.00761
0.00949
0.01050
0.00994
0.00695
0.00206
-0.00323
-0.00884
-0.01567
-0.02222
-0.02504
-0.02319
-0.01909
-0.01422
-0.00738
0.00163
0.00964
0.01329
0.01271
0.01102
0.01174
0.01653
0.02309
0.02579
0.02094
0.01130
0.00306
-0.00118
-0.00404
-0.00834
-0.01289
-0.01448
-0.01258
-0.01008
-0.00940
-0.01005
-0.01087
-0.01238
-0.01515
-0.01786
-0.01842
-0.01618
-0.01207
-0.00721
-0.00152
0.00617
0.01586
0.02480
0.03019
0.03318
0.03701
0.04186
0.04458
0.04323
0.03853
0.03126
0.02128
0.00857
-0.00726
-0.02763
-0.05246
-0.07833
-0.10149
-0.12074
-0.13474
-0.13873
-0.12782
-0.10123
-0.05775
0.01055
0.11038
0.22839
0.32689
0.36554
0.32755
0.22552
0.08923
-0.04781
-0.15854
-0.23131
-0.27072
-0.28533
-0.27497
-0.23313
-0.15972
-0.06711
0.02542
0.10060
0.14831
0.16707
0.16263
0.14381
0.11808
0.08974
0.06078
0.03229
0.00550
-0.01782
-0.03610
-0.04888
-0.05655
-0.05960
-0.05856
-0.05435
-0.04787
-0.03940
-0.02917
-0.01798
-0.00663
0.00461
0.01532
0.02408
0.02910
0.02961
0.02657
0.02224
0.01872
0.01625
0.01344
0.00919
0.00374
-0.00214
-0.00757
-0.01115
-0.01138
-0.00860
-0.00537
-0.00430
-0.00561
-0.00741
-0.00786
-0.00665
-0.00467
-0.00275
-0.00103
0.00059
0.00204
0.00315
0.00389
0.00430
0.00440
0.00420
0.00374
0.00308
0.00231
0.00150
0.00067
-0.00012
-0.00079
-0.00127
-0.00160
-0.00182
-0.00183
-0.00153
-0.00112
-0.00083
-0.00035
0.00064
0.00147
0.00098
-0.00065
-0.00188
-0.00195
-0.00169
-0.00160
-0.00083
0.00103
0.00269
0.00279
0.00173
0.00090
0.00061
0.00001
-0.00120
-0.00193
-0.00111
0.00069
0.00199
0.00227
0.00202
0.00140
-0.00002
-0.00210
-0.00395
-0.00462
-0.00373
-0.00171
0.00020
0.00080
0.00050
0.00098
0.00274
0.00422
0.00411
0.00327
0.00307
0.00296
0.00121
-0.00220
-0.00519
-0.00597
-0.00484
-0.00337
-0.00257
-0.00228
-0.00159
0.00025
0.00307
0.00568
0.00637
0.00399
-0.00054
-0.00387
-0.00293
0.00142
0.00491
0.00460
0.00140
-0.00225
-0.00487
-0.00557
-0.00395
-0.00141
-0.00004
0.00016
0.00093
0.00232
0.00257
0.00147
0.00097
0.00170
0.00181
0.00031
-0.00099
-0.00046
0.00049
-0.00047
-0.00302
-0.00471
-0.00429
-0.00256
-0.00067
0.00106
0.00262
0.00373
0.00407
0.00382
0.00341
0.00274
0.00112
-0.00136
-0.00291
-0.00215
-0.00032
0.00041
0.00013
0.00038
0.00078
-0.00061
-0.00370
-0.00619
-0.00679
-0.00615
-0.00473
-0.00235
0.00045
0.00252
0.00352
0.00404
0.00446
0.00489
0.00590
0.00783
0.00977
0.01044
0.00982
0.00851
0.00608
0.00146
-0.00529
-0.01292
-0.01980
-0.02399
-0.02394
-0.02024
-0.01498
-0.00875
-0.00052
0.00874
0.01487
0.01456
0.00963
0.00610
0.00880
0.01667
0.02348
0.02355
0.01667
0.00737
0.00018
-0.00382
-0.00661
-0.01030
-0.01456
-0.01673
-0.01505
-0.01117
-0.00826
-0.00752
-0.00810
-0.00977
-0.01298
-0.01638
-0.01683
-0.01279
-0.00614
0.00036
0.00594
0.01142
0.01730
0.02345
0.02978
0.03605
0.04131
0.04438
0.04443
0.04085
0.03317
0.02129
0.00572
-0.01251
-0.03244
-0.05378
-0.07654
-0.09949
-0.11911
-0.13055
-0.12976
-0.11542
-0.08851
-0.04736
0.01683
0.11214
0.22715
0.32408
0.35960
0.31516
0.20628
0.06751
-0.06653
-0.17214
-0.24109
-0.27769
-0.28718
-0.26709
-0.21277
-0.12949
-0.03458
0.05183
0.11571
0.15178
0.16226
0.15391
0.13349
0.10542
0.07363
0.04301
0.01691
-0.00484
-0.02329
-0.03754
-0.04644
-0.05098
-0.05283
-0.05191
-0.04742
-0.03996
-0.03109
-0.02165
-0.01189
-0.00266
0.00497
0.01112
0.01670
0.02146
0.02382
0.02301
0.02039
0.01784
0.01563
0.01230
0.00687
0.00080
-0.00283
-0.00274
-0.00128
-0.00177
-0.00473
-0.00789
-0.00954
-0.00992
-0.00975
-0.00904
-0.00761
-0.00562
-0.00329
-0.00070
0.00195
0.00408
0.00507
0.00478
0.00392
0.00331
0.00281
0.00166
0.00028
0.00048
0.00275
0.00492
0.00449
0.00174
-0.00078
-0.00129
-0.00062
-0.00094
-0.00288
-0.00464
-0.00434
-0.00266
-0.00172
-0.00208
-0.00247
-0.00208
-0.00088
0.00147
0.00477
0.00683
0.00533
0.00104
-0.00272
-0.00380
-0.00261
-0.00075
0.00056
0.00081
0.00048
0.00061
0.00161
0.00285
0.00337
0.00234
-0.00020
-0.00252
-0.00250
-0.00045
0.00085
-0.00038
-0.00302
-0.00512
-0.00582
-0.00495
-0.00252
0.00069
0.00343
0.00504
0.00562
0.00531
0.00431
0.00327
0.00271
0.00232
0.00126
-0.00081
-0.00345
-0.00582
-0.00705
-0.00660
-0.00475
-0.00262
-0.00123
-0.00060
0.00021
0.00191
0.00407
0.00531
0.00488
0.00393
0.00430
0.00566
0.00550
0.00268
-0.00079
-0.00281
-0.00411
-0.00643
-0.00913
-0.00959
-0.00676
-0.00261
0.00026
0.00133
0.00182
0.00236
0.00247
0.00230
0.00318
0.00552
0.00752
0.00721
0.00491
0.00233
-0.00005
-0.00292
-0.00576
-0.00662
-0.00461
-0.00116
0.00148
0.00202
0.00025
-0.00297
-0.00561
-0.00593
-0.00440
-0.00304
-0.00257
-0.00192
-0.00041
0.00110
0.00169
0.00175
0.00272
0.00576
0.01039
0.01426
0.01489
0.01225
0.00887
0.00667
0.00426
-0.00127
-0.00995
-0.01808
-0.02235
-0.02325
-0.02294
-0.02133
-0.01651
-0.00810
0.00160
0.00953
0.01332
0.01235
0.00937
0.00978
0.01637
0.02507
0.02869
0.02438
0.01540
0.00620
-0.00143
-0.00778
-0.01311
-0.01673
-0.01773
-0.01632
-0.01402
-0.01214
-0.01063
-0.00908
-0.00820
-0.00904
-0.01112
-0.01256
-0.01199
-0.00961
-0.00638
-0.00259
0.00238
0.00929
0.01797
0.02692
0.03432
0.03943
0.04289
0.04542
0.04634
0.04366
0.03594
0.02337
0.00693
-0.01298
-0.03623
-0.06192
-0.08845
-0.11389
-0.13513
-0.14698
-0.14381
-0.12296
-0.08500
-0.02851
0.05307
0.16138
0.27560
0.35283
0.35643
0.28384
0.16312
0.02887
-0.09234
-0.18379
-0.24095
-0.27039
-0.27778
-0.25909
-0.20832
-0.12951
-0.03725
0.05047
0.11787
0.15602
0.16635
0.15760
0.13808
0.11206
0.08199
0.05060
0.02020
-0.00730
-0.02956
-0.04484
-0.05356
-0.05735
-0.05730
-0.05433
-0.04966
-0.04343
-0.03430
-0.02198
-0.00898
0.00152
0.00858
0.01350
0.01779
0.02183
0.02496
0.02604
0.02451
0.02106
0.01670
0.01156
0.00580
0.00086
-0.00181
-0.00297
-0.00478
-0.00778
-0.01021
-0.01042
-0.00888
-0.00741
-0.00718
-0.00765
-0.00760
-0.00655
-0.00489
-0.00280
0.00001
0.00342
0.00643
0.00801
0.00800
0.00692
0.00542
0.00407
0.00318
0.00246
0.00144
0.00012
-0.00099
-0.00180
-0.00286
-0.00435
-0.00516
-0.00410
-0.00168
0.00030
0.00098
0.00095
0.00082
0.00043
-0.00041
-0.00134
-0.00180
-0.00160
-0.00095
-0.00018
0.00066
0.00174
0.00301
0.00370
0.00302
0.00161
0.00112
0.00186
0.00197
0.00007
-0.00276
-0.00459
-0.00483
-0.00389
-0.00228
-0.00062
0.00033
0.00038
-0.00003
-0.00017
0.00070
0.00278
0.00495
0.00527
0.00302
-0.00028
-0.00234
-0.00228
-0.00109
-0.00035
-0.00070
-0.00157
-0.00178
-0.00087
0.00019
0.00007
-0.00113
-0.00197
-0.00162
-0.00073
-0.00015
0.00039
0.00158
0.00313
0.00387
0.00332
0.00237
0.00181
0.00101
-0.00097
-0.00338
-0.00440
-0.00341
-0.00163
-0.00035
0.00034
0.00091
0.00145
0.00167
0.00138
0.00077
0.00019
-0.00051
-0.00188
-0.00376
-0.00467
-0.00356
-0.00144
0.00014
0.00154
0.00391
0.00655
0.00731
0.00573
0.00345
0.00166
-0.00003
-0.00182
-0.00275
-0.00221
-0.00116
-0.00107
-0.00261
-0.00523
-0.00748
-0.00782
-0.00598
-0.00352
-0.00217
-0.00174
-0.00070
0.00157
0.00421
0.00642
0.00832
0.01011
0.01146
0.01194
0.01160
0.01048
0.00824
0.00457
-0.00020
-0.00566
-0.01209
-0.01905
-0.02408
-0.02463
-0.02139
-0.01719
-0.01256
-0.00545
0.00410
0.01195
0.01417
0.01162
0.00919
0.01137
0.01854
0.02632
0.02872
0.02332
0.01322
0.00350
-0.00367
-0.00948
-0.01488
-0.01861
-0.01920
-0.01761
-0.01618
-0.01539
-0.01357
-0.01016
-0.00733
-0.00710
-0.00848
-0.00876
-0.00710
-0.00479
-0.00247
0.00122
0.00761
0.01575
0.02318
0.02872
0.03318
0.03750
0.04103
0.04218
0.03987
0.03393
0.02461
0.01194
-0.00450
-0.02487
-0.04803
-0.07187
-0.09465
-0.11481
-0.12892
-0.13194
-0.12076
-0.09578
-0.05626
0.00420
0.09185
0.19865
0.29556
0.34479
0.32238
0.23232
0.10270
-0.03015
-0.13852
-0.21231
-0.25556
-0.27415
-0.26734
-0.23108
-0.16615
-0.08123
0.00909
0.08746
0.13945
0.16105
0.15955
0.14536
0.12423
0.09772
0.06749
0.03659
0.00796
-0.01647
-0.03573
-0.04986
-0.05944
-0.06460
-0.06475
-0.05959
-0.04993
-0.03743
-0.02393
-0.01113
-0.00016
0.00892
0.01661
0.02267
0.02596
0.02599
0.02382
0.02108
0.01868
0.01639
0.01336
0.00884
0.00294
-0.00310
-0.00762
-0.00994
-0.01090
-0.01147
-0.01113
-0.00863
-0.00455
-0.00149
-0.00118
-0.00235
-0.00273
-0.00181
-0.00066
0.00020
0.00108
0.00186
0.00201
0.00183
0.00219
0.00313
0.00380
0.00374
0.00329
0.00271
0.00182
0.00065
-0.00055
-0.00186
-0.00352
-0.00485
-0.00456
-0.00274
-0.00120
-0.00106
-0.00098
0.00073
0.00352
0.00553
0.00603
0.00493
0.00177
-0.00267
-0.00543
-0.00461
-0.00231
-0.00169
-0.00260
-0.00241
-0.00035
0.00168
0.00217
0.00171
0.00142
0.00144
0.00145
0.00138
0.00123
0.00103
0.00110
0.00138
0.00087
-0.00124
-0.00375
-0.00433
-0.00247
-0.00025
0.00019
-0.00100
-0.00185
-0.00113
0.00030
0.00114
0.00184
0.00364
0.00569
0.00544
0.00246
-0.00049
-0.00137
-0.00155
-0.00299
-0.00507
-0.00576
-0.00473
-0.00326
-0.00210
-0.00085
0.00107
0.00357
0.00578
0.00642
0.00501
0.00266
0.00121
0.00129
0.00170
0.00091
-0.00114
-0.00316
-0.00423
-0.00467
-0.00486
-0.00420
-0.00238
-0.00085
-0.00114
-0.00213
-0.00130
0.00166
0.00450
0.00575
0.00590
0.00532
0.00362
0.00136
0.00005
-0.00000
0.00002
-0.00042
-0.00056
-0.00027
-0.00066
-0.00220
-0.00366
-0.00412
-0.00441
-0.00544
-0.00637
-0.00595
-0.00462
-0.00345
-0.00221
0.00007
0.00336
0.00695
0.01043
0.01324
0.01447
0.01420
0.01346
0.01196
0.00799
0.00148
-0.00523
-0.01088
-0.01664
-0.02274
-0.02631
-0.02465
-0.01864
-0.01101
-0.00320
0.00415
0.00929
0.01040
0.00816
0.00576
0.00648
0.01164
0.01969
0.02629
0.02665
0.01957
0.00899
0.00016
-0.00527
-0.00926
-0.01324
-0.01595
-0.01567
-0.01305
-0.01084
-0.01092
-0.01235
-0.01267
-0.01105
-0.00915
-0.00856
-0.00879
-0.00829
-0.00636
-0.00335
0.00043
0.00512
0.01107
0.01857
0.02727
0.03556
0.04137
0.04405
0.04454
0.04317
0.03846
0.02890
0.01470
-0.00320
-0.02434
-0.04798
-0.07250
-0.09637
-0.11801
-0.13373
-0.13790
-0.12698
-0.10170
-0.06260
-0.00340
0.08569
0.20079
0.30983
0.36473
0.33664
0.23747
0.10477
-0.02725
-0.13860
-0.21899
-0.26598
-0.28417
-0.27693
-0.24006
-0.16972
-0.07528
0.02088
0.09717
0.14429
0.16423
0.16279
0.14563
0.11875
0.08832
0.05846
0.03049
0.00467
-0.01804
-0.03608
-0.04858
-0.05578
-0.05807
-0.05571
-0.04973
-0.04192
-0.03322
-0.02338
-0.01288
-0.00350
0.00366
0.00916
0.01376
0.01741
0.02022
0.02231
0.02270
0.02029
0.01632
0.01340
0.01192
0.00966
0.00522
-0.00031
-0.00525
-0.00885
-0.01092
-0.01151
-0.01096
-0.00954
-0.00761
-0.00635
-0.00665
-0.00702
-0.00472
0.00001
0.00351
0.00375
0.00312
0.00413
0.00556
0.00515
0.00361
0.00297
0.00314
0.00268
0.00159
0.00080
0.00016
-0.00107
-0.00225
-0.00218
-0.00148
-0.00194
-0.00352
-0.00396
-0.00200
0.00088
0.00256
0.00253
0.00177
0.00110
0.00048
-0.00046
-0.00152
-0.00191
-0.00122
-0.00003
0.00071
0.00063
0.00023
0.00018
0.00055
0.00073
0.00034
-0.00029
-0.00061
-0.00059
-0.00055
-0.00049
-0.00019
0.00030
0.00069
0.00103
0.00167
0.00246
0.00242
0.00099
-0.00093
-0.00189
-0.00162
-0.00124
-0.00169
-0.00251
-0.00238
-0.00092
0.00070
0.00116
0.00053
-0.00007
-0.00016
-0.00009
-0.00001
0.00050
0.00147
0.00215
0.00191
0.00102
0.00023
0.00002
0.00027
0.00054
0.00027
-0.00065
-0.00153
-0.00144
-0.00022
0.00112
0.00134
0.00017
-0.00153
-0.00274
-0.00298
-0.00252
-0.00205
-0.00181
-0.00117
0.00026
0.00168
0.00218
0.00234
0.00335
0.00485
0.00509
0.00355
0.00187
0.00152
0.00173
0.00087
-0.00123
-0.00328
-0.00450
-0.00527
-0.00606
-0.00647
-0.00586
-0.00448
-0.00334
-0.00275
-0.00184
-0.00012
0.00164
0.00263
0.00333
0.00487
0.00775
0.01143
0.01461
0.01577
0.01386
0.00911
0.00330
-0.00135
-0.00464
-0.00905
-0.01631
-0.02362
-0.02595
-0.02211
-0.01594
-0.01088
-0.00617
0.00020
0.00721
0.01167
0.01215
0.01052
0.01035
0.01405
0.02055
0.02532
0.02383
0.01576
0.00535
-0.00268
-0.00705
-0.00986
-0.01311
-0.01594
-0.01598
-0.01285
-0.00909
-0.00738
-0.00783
-0.00860
-0.00860
-0.00888
-0.01069
-0.01297
-0.01314
-0.01010
-0.00480
0.00175
0.00910
0.01633
0.02254
0.02823
0.03427
0.03958
0.04171
0.04010
0.03655
0.03171
0.02367
0.01091
-0.00577
-0.02497
-0.04596
-0.06742
-0.08743
-0.10468
-0.11742
-0.12141
-0.11206
-0.08856
-0.05292
-0.00315
0.06849
0.16390
0.26292
0.32510
0.31615
0.23457
0.11055
-0.01740
-0.12210
-0.19270
-0.23206
-0.24959
-0.24985
-0.22706
-0.17366
-0.09302
-0.00174
0.07896
0.13354
0.15769
0.15718
0.14111
0.11581
0.08522
0.05411
0.02745
0.00670
-0.01052
-0.02640
-0.04038
-0.05044
-0.05547
-0.05558
-0.05143
-0.04418
-0.03548
-0.02643
-0.01659
-0.00524
0.00608
0.01395
0.01705
0.01819
0.02055
0.02332
0.02310
0.01905
0.01413
0.01112
0.00940
0.00679
0.00276
-0.00145
-0.00486
-0.00723
-0.00862
-0.00953
-0.01047
-0.01080
-0.00936
-0.00660
-0.00439
-0.00328
-0.00189
0.00046
0.00231
0.00238
0.00167
0.00200
0.00343
0.00470
0.00539
0.00598
0.00613
0.00480
0.00200
-0.00109
-0.00368
-0.00564
-0.00627
-0.00451
-0.00103
0.00166
0.00202
0.00097
0.00010
-0.00023
-0.00045
-0.00084
-0.00145
-0.00198
-0.00166
-0.00010
0.00176
0.00266
0.00247
0.00195
0.00171
0.00185
0.00208
0.00163
-0.00008
-0.00236
-0.00377
-0.00375
-0.00319
-0.00312
-0.00347
-0.00312
-0.00108
0.00219
0.00483
0.00553
0.00469
0.00340
0.00194
0.00033
-0.00073
-0.00071
-0.00024
-0.00027
-0.00073
-0.00102
-0.00117
-0.00180
-0.00277
-0.00294
-0.00169
-0.00004
0.00049
-0.00012
-0.00051
0.00001
0.00053
-0.00013
-0.00144
-0.00136
0.00135
0.00494
0.00594
0.00316
-0.00040
-0.00114
0.00076
0.00209
0.00105
-0.00094
-0.00163
-0.00058
0.00068
0.00032
-0.00196
-0.00462
-0.00574
-0.00483
-0.00311
-0.00200
-0.00176
-0.00143
-0.00003
0.00247
0.00500
0.00651
0.00691
0.00663
0.00554
0.00326
0.00042
-0.00147
-0.00185
-0.00175
-0.00216
-0.00271
-0.00252
-0.00191
-0.00207
-0.00317
-0.00417
-0.00456
-0.00482
-0.00490
-0.00384
-0.00165
0.00021
0.00079
0.00091
0.00191
0.00422
0.00742
0.01060
0.01251
0.01236
0.01074
0.00903
0.00773
0.00587
0.00182
-0.00526
-0.01432
-0.02246
-0.02665
-0.02600
-0.02168
-0.01499
-0.00666
0.00194
0.00831
0.01074
0.00976
0.00773
0.00779
0.01217
0.01994
0.02642
0.02654
0.01933
0.00877
0.00004
-0.00516
-0.00875
-0.01217
-0.01418
-0.01386
-0.01296
-0.01327
-0.01388
-0.01298
-0.01107
-0.01003
-0.01005
-0.00955
-0.00793
-0.00643
-0.00582
-0.00456
-0.00091
0.00466
0.01076
0.01763
0.02593
0.03415
0.03981
0.04281
0.04457
0.04439
0.03973
0.02979
0.01597
-0.00114
-0.02207
-0.04566
-0.06908
-0.09124
-0.11263
-0.13066
-0.13849
-0.13042
-0.10595
-0.06602
-0.00719
0.07658
0.18283
0.28878
0.35390
0.34301
0.25342
0.11786
-0.01998
-0.13090
-0.20601
-0.24894
-0.26718
-0.26499
-0.23928
-0.18364
-0.09943
-0.00250
0.08311
0.13951
0.16371
0.16367
0.14861
0.12430
0.09432
0.06195
0.03052
0.00313
-0.01829
-0.03383
-0.04469
-0.05146
-0.05417
-0.05332
-0.04964
-0.04349
-0.03516
-0.02548
-0.01542
-0.00566
0.00312
0.01035
0.01595
0.01996
0.02171
0.02072
0.01848
0.01704
0.01599
0.01327
0.00918
0.00625
0.00463
0.00156
-0.00359
-0.00777
-0.00891
-0.00869
-0.00894
-0.00896
-0.00783
-0.00635
-0.00519
-0.00358
-0.00115
0.00083
0.00137
0.00126
0.00153
0.00188
0.00149
0.00062
0.00023
0.00078
0.00211
0.00396
0.00550
0.00504
0.00192
-0.00180
-0.00309
-0.00122
0.00181
0.00357
0.00299
0.00045
-0.00266
-0.00466
-0.00492
-0.00442
-0.00424
-0.00380
-0.00190
0.00099
0.00295
0.00317
0.00280
0.00297
0.00341
0.00314
0.00165
-0.00079
-0.00291
-0.00286
-0.00042
0.00171
0.00098
-0.00116
-0.00125
0.00053
0.00042
-0.00283
-0.00554
-0.00424
-0.00035
0.00225
0.00234
0.00204
0.00308
0.00433
0.00372
0.00172
0.00109
0.00265
0.00356
0.00132
-0.00252
-0.00494
-0.00562
-0.00621
-0.00694
-0.00651
-0.00443
-0.00155
0.00094
0.00227
0.00270
0.00365
0.00601
0.00833
0.00847
0.00655
0.00420
0.00165
-0.00151
-0.00397
-0.00420
-0.00342
-0.00382
-0.00511
-0.00547
-0.00468
-0.00370
-0.00260
-0.00087
0.00104
0.00222
0.00260
0.00268
0.00252
0.00189
0.00110
0.00106
0.00239
0.00442
0.00551
0.00486
0.00352
0.00257
0.00117
-0.00180
-0.00511
-0.00654
-0.00645
-0.00705
-0.00856
-0.00901
-0.00740
-0.00466
-0.00175
0.00091
0.00266
0.00343
0.00475
0.00826
0.01317
0.01673
0.01716
0.01492
0.01120
0.00647
0.00103
-0.00436
-0.00968
-0.01602
-0.02296
-0.02679
-0.02410
-0.01669
-0.00973
-0.00512
-0.00038
0.00573
0.01026
0.01031
0.00746
0.00660
0.01120
0.01982
0.02628
0.02496
0.01647
0.00662
-0.00034
-0.00472
-0.00794
-0.01005
-0.01121
-0.01230
-0.01279
-0.01107
-0.00787
-0.00662
-0.00898
-0.01244
-0.01382
-0.01305
-0.01205
-0.01148
-0.01029
-0.00745
-0.00266
0.00412
0.01249
0.02104
0.02801
0.03307
0.03761
0.04235
0.04562
0.04492
0.03965
0.03078
0.01865
0.00277
-0.01658
-0.03835
-0.06225
-0.08798
-0.11246
-0.12996
-0.13596
-0.12921
-0.10971
-0.07618
-0.02438
0.05305
0.15843
0.27243
0.35054
0.35054
0.26831
0.13978
0.00777
-0.10412
-0.18801
-0.24086
-0.26475
-0.26640
-0.24691
-0.19846
-0.11798
-0.02008
0.06943
0.13112
0.16056
0.16364
0.14913
0.12517
0.09731
0.06757
0.03698
0.00884
-0.01287
-0.02771
-0.03846
-0.04683
-0.05187
-0.05259
-0.04984
-0.04528
-0.03989
-0.03319
-0.02365
-0.01117
0.00100
0.00899
0.01302
0.01674
0.02196
0.02656
0.02790
0.02583
0.02188
0.01696
0.01110
0.00466
-0.00121
-0.00569
-0.00896
-0.01116
-0.01158
-0.00978
-0.00698
-0.00511
-0.00481
-0.00540
-0.00594
-0.00540
-0.00283
0.00111
0.00378
0.00345
0.00162
0.00096
0.00190
0.00289
0.00302
0.00281
0.00276
0.00258
0.00203
0.00139
0.00088
0.00027
-0.00054
-0.00120
-0.00150
-0.00201
-0.00300
-0.00341
-0.00213
0.00002
0.00116
0.00090
0.00037
0.00006
-0.00048
-0.00084
0.00005
0.00192
0.00303
0.00242
0.00096
-0.00003
-0.00038
-0.00105
-0.00272
-0.00420
-0.00337
-0.00020
0.00268
0.00336
0.00274
0.00195
0.00022
-0.00270
-0.00451
-0.00317
-0.00007
0.00188
0.00188
0.00148
0.00199
0.00304
0.00328
0.00192
-0.00031
-0.00182
-0.00186
-0.00134
-0.00162
-0.00268
-0.00309
-0.00190
-0.00005
0.00090
0.00063
-0.00005
-0.00045
-0.00025
0.00061
0.00130
0.00062
-0.00076
-0.00044
0.00209
0.00383
0.00228
-0.00071
-0.00130
0.00111
0.00356
0.00360
0.00151
-0.00125
-0.00342
-0.00420
-0.00368
-0.00297
-0.00289
-0.00321
-0.00317
-0.00207
0.00016
0.00224
0.00268
0.00213
0.00257
0.00381
0.00378
0.00236
0.00178
0.00276
0.00338
0.00218
-0.00006
-0.00203
-0.00313
-0.00304
-0.00181
-0.00067
-0.00119
-0.00340
-0.00564
-0.00647
-0.00573
-0.00393
-0.00168
0.00020
0.00114
0.00167
0.00268
0.00401
0.00504
0.00603
0.00759
0.00942
0.01047
0.01019
0.00870
0.00636
0.00320
-0.00138
-0.00785
-0.01505
-0.02031
-0.02173
-0.01980
-0.01612
-0.01153
-0.00585
0.00073
0.00639
0.00867
0.00727
0.00544
0.00740
0.01416
0.02199
0.02542
0.02201
0.01423
0.00634
0.00030
-0.00434
-0.00777
-0.00946
-0.00974
-0.00992
-0.01087
-0.01272
-0.01495
-0.01610
-0.01478
-0.01173
-0.00942
-0.00891
-0.00881
-0.00751
-0.00493
-0.00167
0.00224
0.00725
0.01340
0.01993
0.02578
0.03049
0.03431
0.03746
0.03943
0.03916
0.03554
0.02804
0.01696
0.00259
-0.01555
-0.03762
-0.06216
-0.08663
-0.10855
-0.12483
-0.13109
-0.12396
-0.10369
-0.07158
-0.02279
0.05384
0.16073
0.27401
0.34793
0.34473
0.26210
0.13207
-0.00335
-0.11444
-0.19086
-0.23705
-0.26188
-0.26769
-0.24755
-0.19426
-0.11121
-0.01449
0.07365
0.13504
0.16378
0.16611
0.15174
0.12702
0.09622
0.06453
0.03599
0.01083
-0.01210
-0.03182
-0.04615
-0.05453
-0.05806
-0.05764
-0.05355
-0.04640
-0.03724
-0.02699
-0.01632
-0.00591
0.00357
0.01167
0.01809
0.02251
0.02482
0.02528
0.02406
0.02095
0.01619
0.01091
0.00616
0.00190
-0.00204
-0.00472
-0.00534
-0.00504
-0.00575
-0.00762
-0.00912
-0.00929
-0.00834
-0.00662
-0.00435
-0.00206
-0.00020
0.00103
0.00143
0.00104
0.00083
0.00197
0.00409
0.00530
0.00439
0.00240
0.00119
0.00123
0.00148
0.00108
0.00023
-0.00050
-0.00104
-0.00182
-0.00307
-0.00412
-0.00394
-0.00241
-0.00050
0.00117
0.00304
0.00506
0.00565
0.00361
0.00024
-0.00210
-0.00291
-0.00344
-0.00417
-0.00402
-0.00225
0.00033
0.00215
0.00253
0.00201
0.00148
0.00116
0.00086
0.00074
0.00107
0.00131
0.00048
-0.00133
-0.00265
-0.00224
-0.00062
0.00045
-0.00007
-0.00144
-0.00202
-0.00124
0.00003
0.00087
0.00143
0.00210
0.00266
0.00275
0.00276
0.00306
0.00294
0.00129
-0.00154
-0.00382
-0.00465
-0.00482
-0.00533
-0.00595
-0.00547
-0.00303
0.00089
0.00440
0.00565
0.00478
0.00373
0.00385
0.00441
0.00406
0.00252
0.00045
-0.00133
-0.00222
-0.00204
-0.00141
-0.00112
-0.00129
-0.00166
-0.00240
-0.00372
-0.00471
-0.00367
-0.00044
0.00247
0.00240
0.00021
-0.00080
0.00055
0.00216
0.00210
0.00078
-0.00038
-0.00051
0.00050
0.00212
0.00351
0.00421
0.00404
0.00272
0.00059
-0.00087
-0.00071
-0.00009
-0.00092
-0.00315
-0.00488
-0.00478
-0.00356
-0.00293
-0.00375
-0.00519
-0.00563
-0.00447
-0.00250
-0.00060
0.00131
0.00358
0.00593
0.00793
0.00981
0.01176
0.01293
0.01208
0.00935
0.00621
0.00350
0.00045
-0.00412
-0.01030
-0.01668
-0.02111
-0.02215
-0.01998
-0.01584
-0.01075
-0.00512
0.00084
0.00663
0.01091
0.01191
0.01002
0.00920
0.01315
0.01981
0.02297
0.01968
0.01283
0.00606
0.00004
-0.00531
-0.00895
-0.01070
-0.01189
-0.01308
-0.01324
-0.01194
-0.01024
-0.00917
-0.00875
-0.00870
-0.00896
-0.00933
-0.00931
-0.00847
-0.00675
-0.00420
-0.00058
0.00429
0.00992
0.01547
0.02105
0.02764
0.03536
0.04240
0.04625
0.04567
0.04085
0.03210
0.01900
0.00145
-0.01893
-0.03999
-0.06207
-0.08702
-0.11269
-0.13128
-0.13582
-0.12615
-0.10561
-0.07283
-0.01952
0.06258
0.16984
0.27807
0.34729
0.34315
0.26090
0.12988
-0.00691
-0.11870
-0.19660
-0.24489
-0.26831
-0.26691
-0.23803
-0.18034
-0.09826
-0.00538
0.07769
0.13328
0.15657
0.15526
0.14043
0.11914
0.09422
0.06705
0.03861
0.01022
-0.01531
-0.03435
-0.04529
-0.04998
-0.05185
-0.05285
-0.05210
-0.04697
-0.03617
-0.02247
-0.01098
-0.00385
0.00176
0.00888
0.01619
0.02038
0.02093
0.02005
0.01894
0.01683
0.01314
0.00867
0.00479
0.00275
0.00285
0.00354
0.00257
-0.00062
-0.00448
-0.00765
-0.00987
-0.01085
-0.00996
-0.00751
-0.00475
-0.00258
-0.00123
-0.00075
-0.00078
-0.00047
0.00064
0.00228
0.00392
0.00480
0.00392
0.00145
-0.00044
0.00012
0.00219
0.00326
0.00253
0.00124
0.00046
-0.00003
-0.00066
-0.00127
-0.00159
-0.00169
-0.00173
-0.00167
-0.00145
-0.00112
-0.00075
-0.00037
0.00002
0.00038
0.00070
0.00093
0.00104
0.00104
0.00101
0.00087
0.00050
0.00006
-0.00023
-0.00058
-0.00139
-0.00212
-0.00146
0.00073
0.00240
0.00140
-0.00158
-0.00356
-0.00264
0.00017
0.00256
0.00321
0.00226
0.00066
-0.00045
-0.00047
0.00018
0.00071
0.00087
0.00091
0.00092
0.00077
0.00041
-0.00006
-0.00061
-0.00125
-0.00188
-0.00242
-0.00290
-0.00326
-0.00326
-0.00282
-0.00220
-0.00136
0.00035
0.00295
0.00484
0.00448
0.00277
0.00225
0.00383
0.00568
0.00560
0.00346
0.00078
-0.00122
-0.00257
-0.00379
-0.00492
-0.00558
-0.00561
-0.00528
-0.00493
-0.00437
-0.00317
-0.00139
0.00041
0.00197
0.00350
0.00483
0.00520
0.00441
0.00329
0.00265
0.00242
0.00226
0.00232
0.00282
0.00341
0.00341
0.00242
0.00049
-0.00208
-0.00483
-0.00716
-0.00854
-0.00871
-0.00787
-0.00656
-0.00525
-0.00397
-0.00251
-0.00081
0.00101
0.00289
0.00488
0.00696
0.00892
0.01058
0.01199
0.01313
0.01352
0.01226
0.00877
0.00350
-0.00231
-0.00787
-0.01342
-0.01922
-0.02392
-0.02502
-0.02138
-0.01445
-0.00667
0.00033
0.00576
0.00889
0.00916
0.00712
0.00521
0.00703
0.01407
0.02272
0.02636
0.02181
0.01242
0.00387
-0.00157
-0.00531
-0.00886
-0.01161
-0.01221
-0.01080
-0.00917
-0.00890
-0.00992
-0.01120
-0.01208
-0.01256
-0.01270
-0.01246
-0.01200
-0.01122
-0.00908
-0.00446
0.00227
0.00941
0.01594
0.02226
0.02882
0.03508
0.04004
0.04304
0.04357
0.04116
0.03544
0.02599
0.01238
-0.00496
-0.02444
-0.04497
-0.06717
-0.09136
-0.11451
-0.13069
-0.13472
-0.12435
-0.09959
-0.06058
-0.00432
0.07583
0.18010
0.28674
0.35301
0.34225
0.25262
0.11738
-0.02065
-0.13275
-0.20990
-0.25574
-0.27637
-0.27276
-0.24022
-0.17580
-0.08644
0.01005
0.09181
0.14313
0.16174
0.15718
0.14095
0.11849
0.09063
0.05966
0.03020
0.00531
-0.01504
-0.03136
-0.04293
-0.04936
-0.05181
-0.05170
-0.04917
-0.04391
-0.03675
-0.02902
-0.02051
-0.01021
0.00120
0.01114
0.01790
0.02165
0.02295
0.02231
0.02104
0.02017
0.01863
0.01454
0.00842
0.00322
0.00083
0.00011
-0.00159
-0.00563
-0.01064
-0.01361
-0.01270
-0.00899
-0.00533
-0.00346
-0.00290
-0.00229
-0.00107
0.00039
0.00157
0.00237
0.00313
0.00394
0.00400
0.00231
-0.00079
-0.00330
-0.00325
-0.00068
0.00228
0.00325
0.00191
0.00017
-0.00001
0.00133
0.00258
0.00263
0.00185
0.00121
0.00077
-0.00033
-0.00247
-0.00459
-0.00511
-0.00351
-0.00095
0.00090
0.00143
0.00128
0.00110
0.00090
0.00054
0.00017
-0.00031
-0.00119
-0.00200
-0.00166
-0.00002
0.00144
0.00152
0.00091
0.00102
0.00168
0.00135
-0.00032
-0.00153
-0.00060
0.00152
0.00215
0.00027
-0.00216
-0.00284
-0.00169
0.00002
0.00153
0.00252
0.00234
0.00091
-0.00058
-0.00099
-0.00068
-0.00066
-0.00111
-0.00153
-0.00174
-0.00193
-0.00206
-0.00189
-0.00138
-0.00061
0.00060
0.00241
0.00411
0.00411
0.00177
-0.00096
-0.00113
0.00153
0.00402
0.00379
0.00168
0.00019
0.00000
-0.00022
-0.00166
-0.00394
-0.00550
-0.00521
-0.00337
-0.00146
-0.00043
0.00003
0.00051
0.00069
0.00010
-0.00054
0.00010
0.00183
0.00306
0.00311
0.00290
0.00286
0.00208
0.00029
-0.00115
-0.00110
-0.00011
0.00083
0.00161
0.00236
0.00250
0.00134
-0.00091
-0.00314
-0.00414
-0.00370
-0.00288
-0.00308
-0.00447
-0.00561
-0.00503
-0.00286
-0.00079
-0.00011
-0.00009
0.00098
0.00334
0.00537
0.00607
0.00649
0.00795
0.01002
0.01113
0.01067
0.00939
0.00779
0.00481
-0.00099
-0.00904
-0.01670
-0.02201
-0.02495
-0.02560
-0.02297
-0.01656
-0.00747
0.00224
0.01028
0.01437
0.01390
0.01163
0.01202
0.01717
0.02439
0.02794
0.02376
0.01328
0.00211
-0.00541
-0.00951
-0.01264
-0.01537
-0.01617
-0.01431
-0.01125
-0.00888
-0.00803
-0.00858
-0.00989
-0.01095
-0.01147
-0.01210
-0.01264
-0.01102
-0.00582
0.00113
0.00677
0.01064
0.01505
0.02148
0.02874
0.03487
0.03922
0.04188
0.04228
0.03924
0.03231
0.02210
0.00908
-0.00696
-0.02604
-0.04761
-0.07116
-0.09579
-0.11818
-0.13264
-0.13442
-0.12236
-0.09706
-0.05540
0.01123
0.10789
0.22067
0.31384
0.34932
0.31149
0.21325
0.08377
-0.04552
-0.15007
-0.21946
-0.25799
-0.27344
-0.26457
-0.22395
-0.15236
-0.06442
0.02121
0.09180
0.13997
0.16134
0.15800
0.13967
0.11611
0.09002
0.06021
0.02886
0.00138
-0.01947
-0.03507
-0.04683
-0.05393
-0.05588
-0.05426
-0.05067
-0.04477
-0.03584
-0.02492
-0.01400
-0.00423
0.00436
0.01169
0.01710
0.02006
0.02096
0.02094
0.02063
0.01944
0.01676
0.01338
0.01067
0.00835
0.00478
-0.00032
-0.00483
-0.00700
-0.00772
-0.00894
-0.01088
-0.01186
-0.01053
-0.00753
-0.00473
-0.00317
-0.00223
-0.00101
0.00025
0.00074
0.00082
0.00183
0.00388
0.00520
0.00447
0.00285
0.00244
0.00339
0.00394
0.00305
0.00148
0.00032
-0.00033
-0.00093
-0.00151
-0.00181
-0.00180
-0.00172
-0.00173
-0.00162
-0.00130
-0.00113
-0.00146
-0.00174
-0.00099
0.00069
0.00193
0.00173
0.00050
-0.00081
-0.00176
-0.00214
-0.00149
0.00036
0.00245
0.00345
0.00320
0.00283
0.00274
0.00182
-0.00046
-0.00249
-0.00246
-0.00112
-0.00074
-0.00191
-0.00299
-0.00260
-0.00125
-0.00010
0.00059
0.00120
0.00183
0.00223
0.00230
0.00216
0.00191
0.00150
0.00083
-0.00006
-0.00092
-0.00166
-0.00261
-0.00382
-0.00454
-0.00402
-0.00257
-0.00087
0.00103
0.00300
0.00392
0.00305
0.00175
0.00208
0.00376
0.00433
0.00254
0.00005
-0.00090
-0.00059
-0.00097
-0.00260
-0.00406
-0.00442
-0.00444
-0.00477
-0.00426
-0.00166
0.00203
0.00453
0.00528
0.00548
0.00532
0.00359
0.00066
-0.00117
-0.00114
-0.00143
-0.00355
-0.00560
-0.00495
-0.00206
0.00034
0.00091
0.00099
0.00197
0.00313
0.00300
0.00182
0.00099
0.00081
0.00038
-0.00027
-0.00001
0.00142
0.00276
0.00297
0.00211
0.00036
-0.00238
-0.00546
-0.00733
-0.00723
-0.00600
-0.00481
-0.00383
-0.00269
-0.00123
0.00047
0.00213
0.00347
0.00475
0.00679
0.00970
0.01218
0.01279
0.01158
0.00958
0.00711
0.00352
-0.00151
-0.00731
-0.01315
-0.01848
-0.02215
-0.02259
-0.01968
-0.01506
-0.00970
-0.00286
0.00528
0.01172
0.01315
0.01011
0.00738
0.00981
0.01742
0.02470
0.02576
0.02000
0.01146
0.00356
-0.00315
-0.00879
-0.01281
-0.01529
-0.01700
-0.01769
-0.01616
-0.01261
-0.00948
-0.00889
-0.01037
-0.01165
-0.01118
-0.00924
-0.00680
-0.00404
-0.00021
0.00516
0.01122
0.01661
0.02116
0.02578
0.03061
0.03458
0.03703
0.03798
0.03651
0.03118
0.02225
0.01115
-0.00249
-0.02056
-0.04278
-0.06596
-0.08698
-0.10450
-0.11704
-0.12135
-0.11398
-0.09386
-0.06152
-0.01335
0.06039
0.16252
0.27005
0.33754
0.32973
0.24904
0.12760
-0.00051
-0.11350
-0.19943
-0.25365
-0.27804
-0.27519
-0.24282
-0.17859
-0.08965
0.00566
0.08629
0.13881
0.16171
0.16180
0.14725
0.12355
0.09425
0.06292
0.03295
0.00634
-0.01631
-0.03448
-0.04730
-0.05431
-0.05645
-0.05549
-0.05234
-0.04655
-0.03764
-0.02670
-0.01567
-0.00564
0.00356
0.01182
0.01794
0.02108
0.02214
0.02265
0.02268
0.02117
0.01772
0.01311
0.00825
0.00407
0.00156
0.00058
-0.00065
-0.00344
-0.00669
-0.00867
-0.00959
-0.01075
-0.01185
-0.01136
-0.00917
-0.00686
-0.00532
-0.00369
-0.00103
0.00220
0.00510
0.00760
0.00962
0.01001
0.00785
0.00437
0.00179
0.00081
0.00040
-0.00028
-0.00099
-0.00156
-0.00221
-0.00276
-0.00288
-0.00311
-0.00404
-0.00422
-0.00144
0.00308
0.00485
0.00223
-0.00063
0.00035
0.00333
0.00381
0.00116
-0.00160
-0.00291
-0.00383
-0.00499
-0.00531
-0.00379
-0.00095
0.00185
0.00351
0.00378
0.00326
0.00297
0.00353
0.00458
0.00481
0.00319
-0.00000
-0.00346
-0.00586
-0.00638
-0.00494
-0.00256
-0.00066
0.00023
0.00049
0.00047
0.00034
0.00072
0.00194
0.00331
0.00378
0.00305
0.00120
-0.00164
-0.00451
-0.00559
-0.00401
-0.00111
0.00105
0.00179
0.00167
0.00131
0.00123
0.00191
0.00310
0.00366
0.00274
0.00074
-0.00136
-0.00275
-0.00293
-0.00199
-0.00099
-0.00122
-0.00284
-0.00443
-0.00412
-0.00142
0.00205
0.00399
0.00408
0.00414
0.00498
0.00452
0.00103
-0.00346
-0.00502
-0.00275
0.00052
0.00189
0.00099
-0.00086
-0.00231
-0.00267
-0.00208
-0.00131
-0.00090
-0.00046
0.00064
0.00190
0.00199
0.00089
0.00024
0.00088
0.00151
0.00082
-0.00027
-0.00013
0.00108
0.00202
0.00237
0.00286
0.00346
0.00311
0.00135
-0.00109
-0.00348
-0.00579
-0.00793
-0.00924
-0.00921
-0.00806
-0.00637
-0.00471
-0.00330
-0.00123
0.00321
0.01015
0.01673
0.01970
0.01904
0.01715
0.01501
0.01136
0.00560
-0.00087
-0.00695
-0.01357
-0.02129
-0.02762
-0.02923
-0.02609
-0.02077
-0.01405
-0.00463
0.00629
0.01388
0.01468
0.01070
0.00759
0.00992
0.01775
0.02638
0.02981
0.02561
0.01639
0.00637
-0.00215
-0.00862
-0.01281
-0.01509
-0.01660
-0.01782
-0.01801
-0.01698
-0.01575
-0.01481
-0.01344
-0.01135
-0.00923
-0.00731
-0.00533
-0.00368
-0.00225
0.00090
0.00733
0.01544
0.02261
0.02881
0.03546
0.04177
0.04509
0.04440
0.04063
0.03412
0.02380
0.00931
-0.00791
-0.02629
-0.04571
-0.06708
-0.09061
-0.11412
-0.13226
-0.13825
-0.12800
-0.10183
-0.06000
0.00303
0.09358
0.20316
0.30057
0.34705
0.32222
0.23413
0.10858
-0.02445
-0.13816
-0.21627
-0.25878
-0.27494
-0.26809
-0.23242
-0.16554
-0.07821
0.01099
0.08630
0.13852
0.16375
0.16353
0.14504
0.11764
0.08797
0.05865
0.03061
0.00522
-0.01604
-0.03259
-0.04456
-0.05199
-0.05504
-0.05462
-0.05176
-0.04638
-0.03800
-0.02736
-0.01633
-0.00610
0.00317
0.01117
0.01708
0.02090
0.02363
0.02567
0.02599
0.02350
0.01860
0.01279
0.00737
0.00308
-0.00004
-0.00296
-0.00671
-0.01045
-0.01187
-0.01048
-0.00905
-0.00967
-0.01025
-0.00743
-0.00190
0.00220
0.00293
0.00232
0.00241
0.00266
0.00226
0.00200
0.00268
0.00351
0.00337
0.00247
0.00163
0.00079
-0.00082
-0.00308
-0.00448
-0.00399
-0.00238
-0.00090
0.00056
0.00245
0.00392
0.00374
0.00229
0.00099
0.00042
0.00007
-0.00046
-0.00098
-0.00126
-0.00134
-0.00156
-0.00208
-0.00254
-0.00215
-0.00071
0.00086
0.00135
0.00042
-0.00082
-0.00063
0.00151
0.00374
0.00360
0.00096
-0.00174
-0.00259
-0.00200
-0.00127
-0.00081
-0.00033
0.00041
0.00147
0.00258
0.00287
0.00182
0.00032
-0.00026
0.00020
0.00061
0.00030
-0.00033
-0.00088
-0.00168
-0.00302
-0.00420
-0.00397
-0.00226
-0.00055
-0.00004
0.00002
0.00091
0.00229
0.00292
0.00297
0.00362
0.00442
0.00348
0.00066
-0.00169
-0.00204
-0.00158
-0.00208
-0.00328
-0.00357
-0.00213
0.00030
0.00234
0.00316
0.00300
0.00232
0.00094
-0.00111
-0.00270
-0.00275
-0.00172
-0.00089
-0.00089
-0.00147
-0.00201
-0.00171
-0.00021
0.00163
0.00230
0.00141
0.00033
0.00080
0.00287
0.00470
0.00442
0.00202
-0.00084
-0.00261
-0.00285
-0.00210
-0.00119
-0.00063
-0.00023
0.00045
0.00124
0.00122
-0.00012
-0.00188
-0.00256
-0.00166
-0.00025
0.00016
-0.00101
-0.00317
-0.00533
-0.00655
-0.00584
-0.00277
0.00154
0.00497
0.00653
0.00734
0.00895
0.01139
0.01308
0.01271
0.01029
0.00655
0.00192
-0.00361
-0.01005
-0.01680
-0.02235
-0.02469
-0.02272
-0.01712
-0.00965
-0.00200
0.00464
0.00936
0.01117
0.00955
0.00636
0.00611
0.01192
0.02085
0.02578
0.02273
0.01414
0.00506
-0.00157
-0.00553
-0.00791
-0.01004
-0.01228
-0.01351
-0.01283
-0.01144
-0.01144
-0.01294
-0.01402
-0.01379
-0.01346
-0.01381
-0.01311
-0.00919
-0.00255
0.00402
0.00896
0.01342
0.01911
0.02610
0.03323
0.03904
0.04196
0.04137
0.03854
0.03486
0.02913
0.01870
0.00307
-0.01591
-0.03702
-0.06045
-0.08514
-0.10733
-0.12266
-0.12841
-0.12315
-0.10593
-0.07577
-0.02912
0.04186
0.14106
0.25189
0.33367
0.34551
0.27822
0.15927
0.02789
-0.08870
-0.17808
-0.23625
-0.26551
-0.27107
-0.25272
-0.20371
-0.12326
-0.02695
0.06054
0.12198
0.15432
0.16248
0.15244
0.12993
0.10107
0.07108
0.04274
0.01685
-0.00602
-0.02479
-0.03861
-0.04782
-0.05362
-0.05653
-0.05575
-0.05048
-0.04176
-0.03193
-0.02219
-0.01178
-0.00043
0.00984
0.01672
0.02069
0.02372
0.02567
0.02455
0.02027
0.01540
0.01168
0.00855
0.00567
0.00388
0.00294
0.00103
-0.00263
-0.00659
-0.00940
-0.01116
-0.01218
-0.01196
-0.01016
-0.00729
-0.00410
-0.00132
0.00027
0.00062
0.00074
0.00152
0.00271
0.00365
0.00406
0.00372
0.00263
0.00165
0.00196
0.00348
0.00469
0.00446
0.00307
0.00125
-0.00079
-0.00278
-0.00395
-0.00394
-0.00339
-0.00305
-0.00293
-0.00272
-0.00242
-0.00222
-0.00188
-0.00066
0.00205
0.00537
0.00692
0.00526
0.00194
-0.00020
-0.00063
-0.00110
-0.00240
-0.00306
-0.00189
0.00004
0.00070
-0.00037
-0.00176
-0.00183
-0.00036
0.00149
0.00257
0.00270
0.00214
0.00070
-0.00168
-0.00399
-0.00451
-0.00245
0.00121
0.00422
0.00474
0.00296
0.00079
-0.00027
-0.00035
-0.00033
-0.00063
-0.00137
-0.00233
-0.00260
-0.00148
0.00018
0.00087
0.00056
0.00032
0.00012
-0.00104
-0.00270
-0.00274
-0.00045
0.00182
0.00162
-0.00008
-0.00018
0.00226
0.00483
0.00520
0.00373
0.00218
0.00127
0.00035
-0.00118
-0.00302
-0.00431
-0.00491
-0.00544
-0.00583
-0.00479
-0.00183
0.00139
0.00292
0.00293
0.00277
0.00288
0.00285
0.00281
0.00311
0.00316
0.00211
0.00023
-0.00153
-0.00291
-0.00420
-0.00497
-0.00436
-0.00252
-0.00046
0.00136
0.00318
0.00474
0.00503
0.00368
0.00169
0.00039
0.00004
0.00012
0.00034
0.00057
0.00004
-0.00209
-0.00493
-0.00645
-0.00620
-0.00586
-0.00614
-0.00520
-0.00189
0.00167
0.00297
0.00289
0.00390
0.00597
0.00724
0.00742
0.00794
0.00934
0.01070
0.01087
0.00896
0.00476
-0.00060
-0.00584
-0.01143
-0.01827
-0.02453
-0.02642
-0.02254
-0.01518
-0.00697
0.00127
0.00881
0.01338
0.01286
0.00816
0.00397
0.00563
0.01397
0.02346
0.02700
0.02252
0.01346
0.00410
-0.00331
-0.00802
-0.01064
-0.01293
-0.01544
-0.01646
-0.01493
-0.01277
-0.01216
-0.01242
-0.01157
-0.00967
-0.00864
-0.00922
-0.00967
-0.00780
-0.00354
0.00143
0.00643
0.01275
0.02107
0.02952
0.03578
0.03998
0.04343
0.04539
0.04342
0.03654
0.02565
0.01147
-0.00608
-0.02650
-0.04838
-0.07063
-0.09290
-0.11405
-0.13044
-0.13633
-0.12709
-0.10209
-0.06173
-0.00062
0.09000
0.20452
0.30936
0.35844
0.32783
0.23104
0.10185
-0.02864
-0.13933
-0.21883
-0.26589
-0.28438
-0.27453
-0.23290
-0.16123
-0.07111
0.02009
0.09550
0.14402
0.16368
0.16047
0.14260
0.11638
0.08630
0.05615
0.02837
0.00369
-0.01722
-0.03298
-0.04347
-0.05075
-0.05600
-0.05702
-0.05171
-0.04230
-0.03314
-0.02551
-0.01755
-0.00818
0.00146
0.00985
0.01631
0.02094
0.02397
0.02498
0.02329
0.01956
0.01569
0.01248
0.00898
0.00489
0.00169
0.00018
-0.00109
-0.00372
-0.00707
-0.00943
-0.01029
-0.01034
-0.00997
-0.00900
-0.00743
-0.00560
-0.00372
-0.00184
-0.00003
0.00153
0.00283
0.00386
0.00451
0.00475
0.00483
0.00480
0.00433
0.00346
0.00292
0.00283
0.00182
-0.00093
-0.00359
-0.00367
-0.00165
-0.00034
-0.00082
-0.00158
-0.00157
-0.00157
-0.00214
-0.00227
-0.00104
0.00087
0.00192
0.00141
-0.00005
-0.00099
-0.00049
0.00042
-0.00008
-0.00157
-0.00163
0.00031
0.00198
0.00193
0.00137
0.00154
0.00198
0.00229
0.00306
0.00382
0.00263
-0.00094
-0.00441
-0.00535
-0.00432
-0.00340
-0.00343
-0.00368
-0.00333
-0.00206
0.00015
0.00287
0.00510
0.00588
0.00515
0.00396
0.00341
0.00339
0.00252
-0.00003
-0.00314
-0.00491
-0.00496
-0.00446
-0.00421
-0.00389
-0.00311
-0.00201
-0.00071
0.00091
0.00284
0.00485
0.00657
0.00697
0.00496
0.00120
-0.00168
-0.00203
-0.00122
-0.00161
-0.00350
-0.00524
-0.00524
-0.00313
0.00009
0.00279
0.00425
0.00491
0.00488
0.00325
-0.00008
-0.00313
-0.00379
-0.00261
-0.00196
-0.00272
-0.00315
-0.00169
0.00082
0.00254
0.00285
0.00230
0.00139
0.00043
-0.00021
-0.00043
-0.00051
-0.00051
-0.00018
0.00040
0.00072
0.00085
0.00176
0.00367
0.00497
0.00390
0.00092
-0.00179
-0.00285
-0.00276
-0.00269
-0.00325
-0.00467
-0.00689
-0.00868
-0.00798
-0.00450
-0.00115
-0.00051
-0.00090
0.00120
0.00585
0.00998
0.01232
0.01394
0.01499
0.01448
0.01280
0.01080
0.00742
0.00107
-0.00765
-0.01672
-0.02451
-0.02898
-0.02808
-0.02268
-0.01625
-0.01016
-0.00283
0.00552
0.01152
0.01325
0.01252
0.01217
0.01404
0.01932
0.02633
0.02904
0.02250
0.00963
-0.00178
-0.00796
-0.01082
-0.01236
-0.01262
-0.01249
-0.01357
-0.01507
-0.01470
-0.01268
-0.01170
-0.01261
-0.01332
-0.01221
-0.01005
-0.00798
-0.00555
-0.00174
0.00336
0.00886
0.01452
0.02120
0.02922
0.03711
0.04262
0.04487
0.04437
0.04134
0.03502
0.02472
0.01072
-0.00652
-0.02700
-0.05040
-0.07514
-0.09870
-0.11852
-0.13133
-0.13272
-0.11972
-0.09317
-0.05374
0.00471
0.09073
0.19828
0.29735
0.34826
0.32722
0.23864
0.10856
-0.02848
-0.14227
-0.21833
-0.26021
-0.27747
-0.27154
-0.23636
-0.17022
-0.08217
0.01146
0.09245
0.14601
0.16768
0.16486
0.14821
0.12310
0.09156
0.05813
0.02809
0.00264
-0.01938
-0.03685
-0.04757
-0.05228
-0.05379
-0.05322
-0.05002
-0.04433
-0.03691
-0.02793
-0.01783
-0.00808
0.00036
0.00814
0.01576
0.02190
0.02492
0.02515
0.02411
0.02219
0.01877
0.01427
0.01024
0.00729
0.00434
0.00039
-0.00408
-0.00783
-0.01018
-0.01142
-0.01205
-0.01203
-0.01086
-0.00874
-0.00689
-0.00608
-0.00496
-0.00163
0.00309
0.00574
0.00481
0.00338
0.00516
0.00879
0.00945
0.00557
0.00063
-0.00183
-0.00176
-0.00075
0.00031
0.00078
-0.00003
-0.00178
-0.00294
-0.00238
-0.00076
0.00015
-0.00072
-0.00252
-0.00322
-0.00192
-0.00016
0.00015
-0.00047
0.00006
0.00192
0.00310
0.00255
0.00145
0.00097
0.00084
0.00045
-0.00007
-0.00036
-0.00049
-0.00066
-0.00083
-0.00089
-0.00086
-0.00081
-0.00075
-0.00062
-0.00044
-0.00026
-0.00008
0.00013
0.00034
0.00052
0.00066
0.00079
0.00090
0.00091
0.00083
0.00073
0.00064
0.00037
-0.00010
-0.00044
-0.00063
-0.00116
-0.00214
-0.00251
-0.00139
0.00047
0.00167
0.00192
0.00151
0.00026
-0.00168
-0.00275
-0.00173
0.00035
0.00157
0.00181
0.00214
0.00209
0.00033
-0.00204
-0.00220
-0.00007
0.00160
0.00185
0.00206
0.00185
-0.00056
-0.00365
-0.00364
-0.00069
0.00131
0.00093
0.00014
-0.00054
-0.00226
-0.00355
-0.00172
0.00166
0.00227
0.00033
0.00038
0.00349
0.00532
0.00314
-0.00030
-0.00161
-0.00145
-0.00219
-0.00378
-0.00428
-0.00316
-0.00165
-0.00054
0.00050
0.00161
0.00257
0.00359
0.00487
0.00554
0.00468
0.00296
0.00177
0.00098
-0.00078
-0.00372
-0.00627
-0.00714
-0.00670
-0.00602
-0.00548
-0.00473
-0.00358
-0.00215
-0.00061
0.00112
0.00308
0.00511
0.00696
0.00858
0.01003
0.01106
0.01117
0.01037
0.00914
0.00715
0.00315
-0.00316
-0.01013
-0.01607
-0.02084
-0.02414
-0.02380
-0.01810
-0.00910
-0.00104
0.00434
0.00841
0.01111
0.00956
0.00375
0.00027
0.00587
0.01816
0.02700
0.02598
0.01831
0.01045
0.00450
-0.00093
-0.00635
-0.01078
-0.01332
-0.01371
-0.01277
-0.01262
-0.01443
-0.01656
-0.01665
-0.01496
-0.01370
-0.01343
-0.01220
-0.00837
-0.00279
0.00265
0.00747
0.01267
0.01881
0.02533
0.03131
0.03612
0.03940
0.04094
0.04063
0.03835
0.03346
0.02448
0.00994
-0.00969
-0.03175
-0.05428
-0.07779
-0.10200
-0.12261
-0.13400
-0.13350
-0.12038
-0.09276
-0.04748
0.02001
0.11428
0.22814
0.32902
0.36988
0.32437
0.20806
0.06325
-0.07049
-0.17137
-0.23523
-0.26900
-0.28004
-0.26742
-0.22448
-0.14990
-0.05510
0.03881
0.11164
0.15408
0.16886
0.16344
0.14371
0.11455
0.08200
0.05142
0.02429
-0.00063
-0.02309
-0.04043
-0.05112
-0.05672
-0.05920
-0.05839
-0.05347
-0.04499
-0.03443
-0.02307
-0.01179
-0.00114
0.00851
0.01642
0.02179
0.02459
0.02542
0.02443
0.02154
0.01740
0.01322
0.00950
0.00610
0.00308
0.00063
-0.00181
-0.00500
-0.00830
-0.00984
-0.00925
-0.00859
-0.00921
-0.00935
-0.00680
-0.00283
-0.00066
-0.00093
-0.00110
0.00073
0.00366
0.00535
0.00463
0.00253
0.00120
0.00140
0.00157
0.00043
-0.00061
0.00032
0.00209
0.00218
0.00109
0.00132
0.00246
0.00147
-0.00177
-0.00362
-0.00226
-0.00029
-0.00062
-0.00256
-0.00337
-0.00205
-0.00024
0.00021
-0.00027
0.00012
0.00170
0.00282
0.00242
0.00129
0.00056
0.00021
-0.00027
-0.00080
-0.00111
-0.00122
-0.00125
-0.00113
-0.00079
-0.00037
0.00012
0.00093
0.00198
0.00272
0.00260
0.00140
-0.00078
-0.00295
-0.00327
-0.00100
0.00183
0.00239
0.00033
-0.00218
-0.00314
-0.00195
0.00075
0.00335
0.00408
0.00280
0.00097
-0.00030
-0.00132
-0.00254
-0.00357
-0.00400
-0.00421
-0.00449
-0.00404
-0.00187
0.00174
0.00543
0.00818
0.00957
0.00894
0.00596
0.00186
-0.00122
-0.00243
-0.00310
-0.00480
-0.00714
-0.00812
-0.00670
-0.00395
-0.00152
0.00009
0.00127
0.00229
0.00307
0.00352
0.00359
0.00338
0.00328
0.00341
0.00305
0.00137
-0.00114
-0.00298
-0.00315
-0.00209
-0.00124
-0.00156
-0.00227
-0.00177
-0.00005
0.00127
0.00149
0.00152
0.00152
0.00045
-0.00169
-0.00334
-0.00344
-0.00247
-0.00118
0.00053
0.00274
0.00443
0.00432
0.00292
0.00226
0.00310
0.00381
0.00287
0.00094
-0.00077
-0.00237
-0.00431
-0.00596
-0.00655
-0.00620
-0.00539
-0.00454
-0.00408
-0.00395
-0.00307
-0.00066
0.00271
0.00614
0.00900
0.01021
0.00899
0.00696
0.00681
0.00833
0.00843
0.00589
0.00289
0.00081
-0.00196
-0.00664
-0.01181
-0.01617
-0.01976
-0.02143
-0.01879
-0.01217
-0.00496
0.00083
0.00594
0.01005
0.01049
0.00700
0.00467
0.00902
0.01865
0.02578
0.02469
0.01736
0.00935
0.00280
-0.00344
-0.00894
-0.01161
-0.01186
-0.01264
-0.01471
-0.01547
-0.01346
-0.01096
-0.01076
-0.01241
-0.01334
-0.01239
-0.01044
-0.00824
-0.00531
-0.00108
0.00417
0.00997
0.01637
0.02328
0.02974
0.03486
0.03888
0.04228
0.04401
0.04193
0.03506
0.02398
0.00924
-0.00900
-0.02991
-0.05216
-0.07498
-0.09761
-0.11777
-0.13152
-0.13446
-0.12309
-0.09577
-0.05165
0.01310
0.10382
0.21464
0.31622
0.36485
0.33155
0.22378
0.07912
-0.05947
-0.16473
-0.23081
-0.26574
-0.27808
-0.26793
-0.22878
-0.15771
-0.06375
0.03281
0.10994
0.15509
0.16927
0.16147
0.14061
0.11256
0.08163
0.05119
0.02317
-0.00134
-0.02120
-0.03559
-0.04504
-0.05117
-0.05507
-0.05622
-0.05327
-0.04610
-0.03635
-0.02559
-0.01415
-0.00244
0.00782
0.01486
0.01871
0.02082
0.02246
0.02379
0.02382
0.02133
0.01653
0.01120
0.00672
0.00301
-0.00061
-0.00429
-0.00757
-0.00953
-0.00930
-0.00718
-0.00472
-0.00340
-0.00357
-0.00474
-0.00590
-0.00598
-0.00478
-0.00308
-0.00150
-0.00009
0.00091
0.00119
0.00147
0.00289
0.00485
0.00550
0.00471
0.00434
0.00514
0.00553
0.00417
0.00189
0.00007
-0.00125
-0.00286
-0.00485
-0.00641
-0.00679
-0.00596
-0.00448
-0.00289
-0.00137
0.00029
0.00218
0.00379
0.00437
0.00393
0.00321
0.00266
0.00216
0.00182
0.00190
0.00177
0.00042
-0.00189
-0.00356
-0.00373
-0.00311
-0.00271
-0.00258
-0.00223
-0.00154
-0.00078
-0.00019
0.00044
0.00149
0.00284
0.00368
0.00354
0.00286
0.00220
0.00154
0.00084
0.00004
-0.00133
-0.00315
-0.00397
-0.00281
-0.00086
0.00051
0.00176
0.00325
0.00328
0.00049
-0.00340
-0.00549
-0.00505
-0.00338
-0.00152
0.00021
0.00147
0.00186
0.00172
0.00206
0.00346
0.00522
0.00592
0.00486
0.00257
-0.00011
-0.00262
-0.00447
-0.00509
-0.00449
-0.00338
-0.00243
-0.00191
-0.00179
-0.00158
-0.00056
0.00144
0.00356
0.00455
0.00367
0.00138
-0.00047
-0.00015
0.00171
0.00219
-0.00025
-0.00333
-0.00353
-0.00069
0.00177
0.00128
-0.00098
-0.00225
-0.00178
-0.00086
-0.00017
0.00087
0.00217
0.00239
0.00121
0.00050
0.00172
0.00308
0.00141
-0.00325
-0.00674
-0.00552
-0.00108
0.00210
0.00212
0.00096
0.00060
0.00044
-0.00046
-0.00127
-0.00086
0.00031
0.00109
0.00134
0.00157
0.00186
0.00194
0.00177
0.00149
0.00114
0.00070
0.00024
-0.00028
-0.00088
-0.00132
-0.00136
-0.00143
-0.00232
-0.00419
-0.00632
-0.00787
-0.00827
-0.00697
-0.00387
0.00007
0.00363
0.00685
0.01051
0.01403
0.01538
0.01387
0.01151
0.01039
0.00975
0.00684
0.00027
-0.00859
-0.01700
-0.02262
-0.02423
-0.02229
-0.01910
-0.01702
-0.01579
-0.01237
-0.00437
0.00687
0.01705
0.02295
0.02511
0.02601
0.02644
0.02472
0.01945
0.01162
0.00368
-0.00261
-0.00678
-0.00925
-0.01098
-0.01308
-0.01565
-0.01755
-0.01769
-0.01623
-0.01419
-0.01240
-0.01118
-0.01037
-0.00922
-0.00703
-0.00419
-0.00177
0.00049
0.00440
0.01064
0.01713
0.02188
0.02614
0.03256
0.04077
0.04696
0.04787
0.04349
0.03532
0.02373
0.00825
-0.01106
-0.03354
-0.05841
-0.08409
-0.10776
-0.12649
-0.13803
-0.13910
-0.12469
-0.09123
-0.03871
0.03359
0.12896
0.24076
0.33756
0.37328
0.32200
0.20038
0.05290
-0.08027
-0.17997
-0.24402
-0.27746
-0.28532
-0.26797
-0.22144
-0.14466
-0.04790
0.04745
0.12009
0.16046
0.17185
0.16264
0.14021
0.11050
0.07886
0.04904
0.02221
-0.00190
-0.02314
-0.04026
-0.05196
-0.05808
-0.05954
-0.05712
-0.05115
-0.04241
-0.03261
-0.02302
-0.01332
-0.00292
0.00714
0.01481
0.01941
0.02222
0.02461
0.02626
0.02567
0.02198
0.01622
0.01051
0.00608
0.00229
-0.00187
-0.00578
-0.00796
-0.00818
-0.00766
-0.00739
-0.00742
-0.00748
-0.00736
-0.00681
-0.00571
-0.00426
-0.00273
-0.00122
0.00024
0.00157
0.00266
0.00347
0.00401
0.00428
0.00432
0.00410
0.00367
0.00310
0.00248
0.00176
0.00089
0.00005
-0.00057
-0.00127
-0.00233
-0.00319
-0.00285
-0.00142
-0.00028
-0.00040
-0.00140
-0.00243
-0.00309
-0.00307
-0.00193
0.00020
0.00222
0.00306
0.00277
0.00221
0.00182
0.00145
0.00127
0.00164
0.00201
0.00124
-0.00046
-0.00147
-0.00114
-0.00086
-0.00185
-0.00317
-0.00293
-0.00104
0.00038
-0.00034
-0.00202
-0.00193
0.00045
0.00284
0.00358
0.00356
0.00361
0.00260
-0.00019
-0.00285
-0.00313
-0.00168
-0.00078
-0.00094
-0.00066
0.00080
0.00230
0.00250
0.00138
-0.00010
-0.00119
-0.00190
-0.00264
-0.00336
-0.00339
-0.00221
-0.00035
0.00126
0.00245
0.00351
0.00390
0.00265
0.00032
-0.00089
0.00034
0.00264
0.00364
0.00237
-0.00041
-0.00305
-0.00410
-0.00341
-0.00239
-0.00222
-0.00234
-0.00167
-0.00037
0.00060
0.00096
0.00109
0.00120
0.00121
0.00116
0.00104
0.00080
0.00075
0.00119
0.00157
0.00090
-0.00065
-0.00165
-0.00127
-0.00008
0.00135
0.00288
0.00361
0.00209
-0.00148
-0.00466
-0.00538
