0.01749
0.02998
0.03122
0.03372
0.02873
0.02498
0.02623
0.02998
0.02748
0.01873
0.01499
0.01499
0.01249
-0.00500
-0.00999
0.09492
0.32723
0.55579
0.61200
0.44338
0.17111
-0.02123
-0.08368
-0.07744
-0.06744
-0.06245
-0.07119
-0.07494
-0.07494
-0.07494
-0.07619
-0.07993
-0.07869
-0.07619
-0.08243
-0.09117
-0.09617
-0.10117
-0.10616
-0.11241
-0.12115
-0.12739
-0.14238
-0.15237
-0.16112
-0.16736
-0.18235
-0.19234
-0.20233
-0.21108
-0.21732
-0.22606
-0.22981
-0.22981
-0.23106
-0.23481
-0.23481
-0.23356
-0.22856
-0.21857
-0.20608
-0.18485
-0.15487
-0.12490
-0.09992
-0.07494
-0.05246
-0.03747
-0.02373
-0.01374
-0.00375
0.00125
0.00500
0.00500
0.00500
0.00500
0.00500
0.00500
0.00624
0.01374
0.00999
0.01124
0.01624
0.02498
0.02248
0.00624
-0.01249
-0.02498
-0.02498
-0.02498
-0.02373
-0.01124
0.01374
0.03247
0.04496
0.04496
0.04496
0.04496
0.04371
0.03872
0.03372
0.02998
0.02998
0.02873
0.02373
0.00999
-0.01873
-0.02498
0.09117
0.34596
0.60325
0.70442
0.55204
0.25854
0.02873
-0.06245
-0.07244
-0.05870
-0.04871
-0.04496
-0.04621
-0.05121
-0.05495
-0.05495
-0.05495
-0.05620
-0.06120
-0.06994
-0.06994
-0.07119
-0.08118
-0.08618
-0.09117
-0.09617
-0.10741
-0.12115
-0.12615
-0.13114
-0.14363
-0.16237
-0.17610
-0.18610
-0.19609
-0.20108
-0.20608
-0.21108
-0.22107
-0.22481
-0.22481
-0.21982
-0.21982
-0.21982
-0.21357
-0.20233
-0.18235
-0.16112
-0.13114
-0.10117
-0.07744
-0.06245
-0.04246
-0.02748
-0.01374
-0.00500
-0.00375
0.00624
0.00999
0.01124
0.01499
0.01624
0.02123
0.02623
0.02998
0.03122
0.03622
0.04371
0.03872
0.03497
0.03622
0.03872
0.02623
0.00250
-0.01624
-0.02623
-0.03122
-0.04122
-0.04246
-0.02623
0.00375
0.02748
0.04122
0.04496
0.03872
0.02998
0.02998
0.02998
0.02873
0.01998
0.01998
0.01998
0.01499
0.00749
-0.00624
-0.00250
0.11615
0.36095
0.58826
0.62324
0.42965
0.15612
-0.02248
-0.07494
-0.06869
-0.05995
-0.05620
-0.05995
-0.05995
-0.06120
-0.06495
-0.06495
-0.06620
-0.06994
-0.06994
-0.07119
-0.07619
-0.08118
-0.09117
-0.09617
-0.10117
-0.10616
-0.11615
-0.12115
-0.13114
-0.14113
-0.15113
-0.16112
-0.17111
-0.18110
-0.19109
-0.20108
-0.20483
-0.20608
-0.21108
-0.21607
-0.21982
-0.21982
-0.21482
-0.20983
-0.20858
-0.19359
-0.17735
-0.15237
-0.12739
-0.09742
-0.06744
-0.04746
-0.02748
-0.00375
0.00500
0.00999
0.01624
0.02498
0.02998
0.02498
0.01998
0.01998
0.01998
0.01998
0.01499
0.00999
0.00999
0.01499
0.01998
0.02498
0.02998
0.02998
0.03122
0.04122
0.04871
0.03247
0.00749
-0.02123
-0.02998
-0.03497
-0.03997
-0.03247
-0.00749
0.02123
0.03622
0.04496
0.04496
0.04371
0.03372
0.02498
0.01998
0.01998
0.01998
0.01998
0.01998
0.01998
0.01374
-0.00125
0.05121
0.25354
0.52457
0.67319
0.57702
0.30225
0.04996
-0.06620
-0.07869
-0.06370
-0.05495
-0.06120
-0.06994
-0.06994
-0.06994
-0.07119
-0.07993
-0.08493
-0.07993
-0.07993
-0.08618
-0.09492
-0.10117
-0.10991
-0.11491
-0.11990
-0.12115
-0.13114
-0.14613
-0.16112
-0.16986
-0.17610
-0.18610
-0.19484
-0.19984
-0.20483
-0.20483
-0.21108
-0.22606
-0.23481
-0.23481
-0.22981
-0.22481
-0.22481
-0.22481
-0.21982
-0.20858
-0.18859
-0.16861
-0.14238
-0.11366
-0.08868
-0.06370
-0.04496
-0.03372
-0.01873
-0.00999
-0.00500
-0.00500
-0.00500
0.00500
0.00500
0.00500
0.00500
0.00999
0.00500
0.00500
0.00500
0.00999
0.01499
0.00999
0.00999
0.00999
0.00999
0.00500
0.00500
0.00500
0.01499
0.01998
0.02498
0.01374
-0.00624
-0.02998
-0.03997
-0.04496
-0.04496
-0.03872
-0.01374
0.01499
0.02498
0.02998
0.02998
0.02998
0.02998
0.02998
0.02498
0.01998
0.01998
0.01998
0.00999
0.00500
-0.00125
-0.01624
0.07494
0.30725
0.57078
0.68943
0.55204
0.26478
0.02998
-0.06994
-0.07993
-0.06495
-0.05495
-0.04996
-0.05995
-0.05995
-0.05995
-0.05995
-0.05995
-0.06495
-0.06994
-0.06994
-0.06994
-0.07494
-0.08493
-0.08993
-0.09492
-0.09492
-0.10491
-0.10991
-0.12490
-0.13489
-0.14488
-0.15487
-0.15987
-0.17486
-0.18485
-0.19484
-0.19984
-0.19984
-0.20983
-0.20983
-0.21482
-0.21482
-0.21482
-0.21982
-0.21482
-0.20983
-0.19984
-0.17860
-0.14363
-0.11491
-0.08993
-0.06495
-0.03997
-0.02498
-0.00999
0.00000
0.00500
0.01499
0.01998
0.01998
0.01998
0.01998
0.01998
0.01998
0.01998
0.01998
0.01998
0.01998
0.01998
0.01998
0.01998
0.01998
0.01998
0.01998
0.02998
0.03997
0.03997
0.01998
-0.00500
-0.01998
-0.02998
-0.03997
-0.04496
-0.02998
0.00000
0.02498
0.03997
0.03997
0.03997
0.03497
0.03497
0.02998
0.02498
0.02498
0.02998
0.02498
0.01998
0.00500
-0.01998
0.00125
0.17111
0.45587
0.68444
0.67944
0.42840
0.12989
-0.03997
-0.07993
-0.07494
-0.06495
-0.05995
-0.05495
-0.05995
-0.06495
-0.06994
-0.06495
-0.06495
-0.06495
-0.06495
-0.06994
-0.07494
-0.08493
-0.08493
-0.08493
-0.07993
-0.08993
-0.09492
-0.10991
-0.11491
-0.12490
-0.13988
-0.15987
-0.17985
-0.19484
-0.20483
-0.20983
-0.20983
-0.20983
-0.20983
-0.20983
-0.21482
-0.21482
-0.21482
-0.20983
-0.20483
-0.19484
-0.17985
-0.15487
-0.12989
-0.10491
-0.08493
-0.06495
-0.03997
-0.01499
-0.00500
-0.00500
0.00000
0.00500
0.00500
0.00500
0.00999
0.01499
0.01998
0.01998
0.01998
0.02498
0.02498
0.01998
0.01998
0.01998
0.01998
0.01998
0.01998
0.03497
0.04496
0.03997
0.01624
-0.00500
-0.01499
-0.02498
-0.03497
-0.02498
-0.00125
0.02373
0.03997
0.04496
0.04496
0.03997
0.02998
0.02998
0.03497
0.02998
0.02498
0.01998
0.01499
0.00500
-0.00999
-0.02873
0.02373
0.21857
0.48085
0.65446
0.59701
0.34472
0.08368
-0.04996
-0.07869
-0.06994
-0.06495
-0.05995
-0.06495
-0.06495
-0.06495
-0.06495
-0.06495
-0.06495
-0.06994
-0.06994
-0.07993
-0.08493
-0.08993
-0.09492
-0.09492
-0.09492
-0.10491
-0.11990
-0.12989
-0.13489
-0.13988
-0.15487
-0.16986
-0.17985
-0.18984
-0.19984
-0.20483
-0.20483
-0.20983
-0.21482
-0.21982
-0.21982
-0.21982
-0.21482
-0.20983
-0.20483
-0.19109
-0.17610
-0.15612
-0.13114
-0.09742
-0.06620
-0.04122
-0.02123
-0.00624
0.00500
0.00500
0.00500
0.01499
0.01998
0.00999
0.00500
0.00000
0.00000
0.00500
0.00999
0.01998
0.01998
0.01499
0.01499
0.01499
0.01499
0.00999
0.00500
0.00999
0.01998
0.02498
0.02998
0.02998
0.02498
0.01124
-0.01374
-0.02373
-0.03372
-0.04371
-0.04496
-0.01749
0.01749
0.03872
0.03997
0.03122
0.02998
0.02998
0.02998
0.02998
0.02498
0.01998
0.01998
0.01998
0.01124
-0.00874
-0.04246
0.01499
0.25104
0.56204
0.74189
0.65321
0.36345
0.09117
-0.04996
-0.07869
-0.06620
-0.05620
-0.05495
-0.05995
-0.06495
-0.06495
-0.06495
-0.06495
-0.05995
-0.05995
-0.06495
-0.07369
-0.08368
-0.08493
-0.08493
-0.08993
-0.09492
-0.10366
-0.10991
-0.11865
-0.12864
-0.14863
-0.15862
-0.16861
-0.17860
-0.18485
-0.18984
-0.19859
-0.20858
-0.21857
-0.21482
-0.20983
-0.20983
-0.20983
-0.20483
-0.20483
-0.19984
-0.19984
-0.18235
-0.15737
-0.13239
-0.10741
-0.08243
-0.05745
-0.04122
-0.02623
-0.01124
0.00375
0.01374
0.01499
0.01499
0.01998
0.02498
0.01998
0.01998
0.01499
0.01499
0.01499
0.01499
0.01499
0.01998
0.01998
0.01998
0.01499
0.00999
0.00999
0.01499
0.01998
0.01998
0.01998
0.02498
0.02998
0.02498
0.00749
-0.01249
-0.02873
-0.03872
-0.04496
-0.03997
-0.01749
0.01624
0.02873
0.03497
0.02998
0.02998
0.02998
0.02498
0.01998
0.01998
0.01998
0.01998
0.01124
0.00125
-0.01749
-0.03747
0.04871
0.27727
0.54330
0.68943
0.59451
0.31974
0.06869
-0.05745
-0.07869
-0.06620
-0.06120
-0.05620
-0.05995
-0.05995
-0.05995
-0.05995
-0.06495
-0.06994
-0.06994
-0.07494
-0.07993
-0.08493
-0.08993
-0.08993
-0.09492
-0.10366
-0.11865
-0.12490
-0.12989
-0.13864
-0.15362
-0.15987
-0.17361
-0.18360
-0.19359
-0.19984
-0.20858
-0.21482
-0.21982
-0.21982
-0.21982
-0.22481
-0.22481
-0.22481
-0.21607
-0.21108
-0.20108
-0.18235
-0.16237
-0.13364
-0.10866
-0.08368
-0.05870
-0.03747
-0.02248
-0.01124
-0.00125
0.00375
0.00874
0.01374
0.01873
0.01998
0.01624
0.01124
0.01374
0.01873
0.01998
0.01998
0.01998
0.01998
0.01998
0.01998
0.01998
0.01998
0.01998
0.02373
0.02873
0.02623
0.01249
-0.00250
-0.01749
-0.02373
-0.03372
-0.03497
-0.01374
0.01499
0.03747
0.04371
0.04496
0.04496
0.04122
0.03122
0.02623
0.02498
0.02498
0.02498
0.02123
0.01124
-0.01499
-0.04496
0.02123
0.25854
0.55704
0.72315
0.61824
0.33348
0.07494
-0.04871
-0.07369
-0.06620
-0.05620
-0.05495
-0.05870
-0.06370
-0.06495
-0.06120
-0.05995
-0.05995
-0.06370
-0.06869
-0.07369
-0.08368
-0.08118
-0.07619
-0.08368
-0.09367
-0.10741
-0.11366
-0.11865
-0.12864
-0.13864
-0.15237
-0.16362
-0.17361
-0.18360
-0.19359
-0.20358
-0.21357
-0.21482
-0.21482
-0.21108
-0.20983
-0.20983
-0.20983
-0.20983
-0.20233
-0.18735
-0.16486
-0.13489
-0.10991
-0.09242
-0.06994
-0.04496
-0.02373
-0.00749
-0.00500
0.00375
0.00874
0.01374
0.01499
0.01499
0.01873
0.01998
0.01998
0.01998
0.01998
0.01998
0.01998
0.01998
0.02373
0.02498
0.02123
0.01998
0.02873
0.03872
0.03122
0.02123
0.00375
-0.00874
-0.01873
-0.02373
-0.02873
-0.01749
0.00500
0.02248
0.03372
0.04371
0.04122
0.03997
0.03997
0.03622
0.03122
0.02623
0.02123
0.01998
0.01624
0.00250
-0.02373
-0.02998
0.07119
0.31224
0.57827
0.69068
0.56079
0.28851
0.05745
-0.05371
-0.07369
-0.05870
-0.04746
-0.04496
-0.04871
-0.05371
-0.05870
-0.05995
-0.05995
-0.06370
-0.06869
-0.07369
-0.07494
-0.07869
-0.08368
-0.08868
-0.09367
-0.10242
-0.11241
-0.11865
-0.12739
-0.13739
-0.14738
-0.15737
-0.16736
-0.17735
-0.18735
-0.19734
-0.20733
-0.20983
-0.21357
-0.21857
-0.21982
-0.21607
-0.21108
-0.20983
-0.20983
-0.20233
-0.18859
-0.17361
-0.14988
-0.12115
-0.08743
-0.06370
-0.04371
-0.02873
-0.01374
-0.00624
-0.00125
0.00375
0.00500
0.00500
0.00125
0.00000
0.00000
0.00000
0.00000
0.00375
0.00500
0.00500
0.00125
0.00000
0.00000
-0.00375
-0.00125
0.00749
0.01749
0.01998
0.00500
-0.01499
-0.01998
-0.01998
-0.03122
-0.04246
-0.02998
0.00624
0.03372
0.04371
0.04496
0.04122
0.03247
0.02248
0.01998
0.02373
0.02873
0.02998
0.02623
0.02123
0.01249
-0.02123
-0.01124
0.13239
0.39343
0.60950
0.62823
0.42840
0.15987
-0.01998
-0.07744
-0.07744
-0.06370
-0.05246
-0.04621
-0.04871
-0.05745
-0.06370
-0.06495
-0.06495
-0.06495
-0.06869
-0.07369
-0.07494
-0.07494
-0.08243
-0.08868
-0.09367
-0.10242
-0.11241
-0.11865
-0.12739
-0.13739
-0.14738
-0.15737
-0.16362
-0.17236
-0.17860
-0.18735
-0.19734
-0.20358
-0.20483
-0.20483
-0.20483
-0.20108
-0.19984
-0.19984
-0.19234
-0.17860
-0.15987
-0.13614
-0.11491
-0.09117
-0.06994
-0.04996
-0.03747
-0.02373
-0.00874
-0.00500
-0.00500
-0.00125
0.00000
0.00375
0.00874
0.00999
0.00999
0.00999
0.00624
0.00500
0.00500
0.00874
0.00624
0.00500
0.00874
0.00999
0.01374
0.01873
0.01249
-0.00125
-0.01998
-0.03247
-0.03497
-0.04246
-0.04496
-0.03747
-0.01249
0.01749
0.02873
0.02998
0.02998
0.02623
0.02498
0.02123
0.01249
0.00624
0.00500
-0.00250
-0.01249
-0.03372
-0.06495
-0.07119
0.05745
0.32348
0.59076
0.67444
0.51333
0.23606
0.02123
-0.06245
-0.06744
-0.05371
-0.04996
-0.05745
-0.05995
-0.05995
-0.05995
-0.05995
-0.05995
-0.05995
-0.06370
-0.06869
-0.07744
-0.07993
-0.07993
-0.07993
-0.07993
-0.08743
-0.10117
-0.11615
-0.12739
-0.13364
-0.14238
-0.14863
-0.15737
-0.17486
-0.18360
-0.18859
-0.19359
-0.19859
-0.20358
-0.20483
-0.20858
-0.20983
-0.20983
-0.20233
-0.19234
-0.18235
-0.16237
-0.14113
-0.11740
-0.09242
-0.07119
-0.04746
-0.02998
-0.01499
-0.00624
-0.00125
0.00375
0.01249
0.01873
0.01998
0.01998
0.01998
0.01998
0.01998
0.01998
0.01998
0.01998
0.01998
0.01998
0.01998
0.01998
0.01998
0.02373
0.02123
0.00624
-0.00999
-0.01873
-0.01998
-0.02748
-0.03372
-0.02498
-0.00250
0.02248
0.03747
0.03622
0.03497
0.03497
0.03122
0.02623
0.02498
0.02498
0.02123
0.01998
0.01249
-0.00375
-0.03372
-0.04496
0.06495
0.31474
0.58452
0.69942
0.57078
0.29850
0.06120
-0.04996
-0.06620
-0.05870
-0.05121
-0.05371
-0.05870
-0.05620
-0.05870
-0.06370
-0.06495
-0.06869
-0.06994
-0.07744
-0.08368
-0.08493
-0.08493
-0.09117
-0.09492
-0.09867
-0.10616
-0.11740
-0.12739
-0.13988
-0.15237
-0.16237
-0.17486
-0.18735
-0.19734
-0.20358
-0.20858
-0.20983
-0.21732
-0.22357
-0.22481
-0.22481
-0.22481
-0.22107
-0.21607
-0.20858
-0.19109
-0.17111
-0.14863
-0.12365
-0.09492
-0.06495
-0.04496
-0.02998
-0.01499
-0.00624
0.00125
0.00500
0.00874
0.01374
0.01873
0.01998
0.01998
0.01998
0.01374
0.00624
0.00125
0.00375
0.00874
0.00624
0.00500
0.01124
0.01873
0.01624
0.00125
-0.01499
-0.01624
-0.01873
-0.02998
-0.03872
-0.02373
0.00749
0.02998
0.04122
0.04496
0.04496
0.04496
0.04496
0.03872
0.02873
0.02123
0.02373
0.02123
0.01374
-0.00624
-0.04122
-0.04246
0.09242
0.35221
0.59826
0.65571
0.48335
0.21357
0.01499
-0.06245
-0.06495
-0.05371
-0.05371
-0.05870
-0.05995
-0.06370
-0.06495
-0.06495
-0.06120
-0.05620
-0.05870
-0.05995
-0.05995
-0.05995
-0.06620
-0.07619
-0.08368
-0.09117
-0.09867
-0.10616
-0.10991
-0.11615
-0.13239
-0.14988
-0.15862
-0.16362
-0.17486
-0.18610
-0.18984
-0.18735
-0.18859
-0.19609
-0.19984
-0.19734
-0.19234
-0.18984
-0.18110
-0.16237
-0.14238
-0.12240
-0.10491
-0.08743
-0.06370
-0.04496
-0.02998
-0.01873
-0.00874
-0.00125
0.00375
0.01124
0.01873
0.01998
0.01998
0.02373
0.02248
0.01998
0.01998
0.01998
0.01998
0.01749
0.01499
0.01499
0.01499
0.01249
0.00125
-0.01374
-0.01998
-0.01998
-0.01998
-0.01998
-0.01124
0.01624
0.04246
0.05620
0.06370
0.06495
0.06245
0.05995
0.05745
0.05495
0.05246
0.04746
0.04496
0.04246
0.02748
-0.00749
-0.03747
0.03122
0.23980
0.50209
0.65071
0.57578
0.33348
0.09492
-0.03122
-0.05995
-0.05121
-0.04496
-0.04496
-0.04746
-0.04996
-0.05246
-0.05745
-0.06245
-0.06495
-0.06495
-0.06744
-0.06994
-0.06994
-0.06994
-0.07619
-0.08243
-0.08743
-0.09617
-0.10616
-0.11615
-0.12240
-0.13114
-0.14363
-0.15612
-0.16611
-0.17610
-0.18360
-0.18859
-0.19359
-0.19859
-0.20358
-0.20483
-0.20483
-0.20233
-0.19734
-0.19234
-0.18360
-0.16486
-0.14363
-0.12365
-0.09992
-0.07494
-0.05620
-0.03872
-0.02123
-0.00874
0.00125
0.00500
0.00500
0.00749
0.00999
0.00749
0.00500
0.00749
0.01624
0.01998
0.01998
0.01998
0.01998
0.01749
0.01249
0.01249
0.01499
0.00624
-0.01124
-0.02623
-0.02748
-0.02748
-0.03872
-0.04246
-0.02248
0.00749
0.02623
0.02998
0.02998
0.02998
0.02373
0.01998
0.01998
0.02248
0.02248
0.01998
0.01749
0.00624
-0.01749
-0.05246
-0.04746
0.09617
0.36220
0.60700
0.66945
0.50084
0.22981
0.01873
-0.06994
-0.07369
-0.05620
-0.04996
-0.05246
-0.05495
-0.05745
-0.06245
-0.06744
-0.06994
-0.06994
-0.06994
-0.07244
-0.07494
-0.07744
-0.08243
-0.09117
-0.09492
-0.10117
-0.11116
-0.12115
-0.13364
-0.14863
-0.15737
-0.16861
-0.18110
-0.18735
-0.19859
-0.21357
-0.22232
-0.22481
-0.22481
-0.22481
-0.22481
-0.22232
-0.21732
-0.21232
-0.20733
-0.19609
-0.17610
-0.15362
-0.12864
-0.09867
-0.06869
-0.04122
-0.01873
-0.00500
0.00250
0.00749
0.01249
0.01749
0.01998
0.01998
0.01998
0.01998
0.01998
0.01499
0.00749
0.00749
0.01249
0.01499
0.00999
0.00500
0.01374
0.02498
0.02748
0.01124
-0.01124
-0.01998
-0.01998
-0.02498
-0.03247
-0.02373
0.00125
0.02623
0.03997
0.04746
0.04996
0.04746
0.04496
0.04246
0.03747
0.03497
0.03497
0.03247
0.02998
0.02498
0.00375
-0.02873
-0.00250
0.16611
0.43214
0.63448
0.62573
0.41840
0.16736
0.00125
-0.05495
-0.05495
-0.04746
-0.04496
-0.04496
-0.04496
-0.04496
-0.04496
-0.04746
-0.05495
-0.05995
-0.06245
-0.06495
-0.06744
-0.07494
-0.08243
-0.08743
-0.09242
-0.09742
-0.10491
-0.11491
-0.12240
-0.13239
-0.14738
-0.15737
-0.16237
-0.17236
-0.18485
-0.19234
-0.19484
-0.19734
-0.20233
-0.20483
-0.20483
-0.20483
-0.20233
-0.19984
-0.19234
-0.17735
-0.15737
-0.13489
-0.11241
-0.08743
-0.06495
-0.04746
-0.03247
-0.01998
-0.00999
-0.00500
-0.00250
0.00250
0.00500
0.00500
0.00500
0.00749
0.00999
0.00749
0.00749
0.01249
0.01499
0.01499
0.01749
0.01998
0.01499
0.00000
-0.01749
-0.02748
-0.02748
-0.02998
-0.03497
-0.02748
-0.00500
0.02248
0.03997
0.04496
0.04246
0.03747
0.03247
0.02748
0.02498
0.02248
0.01998
0.01998
0.01749
0.00749
-0.01749
-0.04496
0.00000
0.18485
0.45213
0.64946
0.63822
0.41591
0.14613
-0.02248
-0.07244
-0.06744
-0.05745
-0.05246
-0.04996
-0.04996
-0.05246
-0.05745
-0.05995
-0.06245
-0.06744
-0.07494
-0.08243
-0.08743
-0.09242
-0.09742
-0.10242
-0.10741
-0.11241
-0.11990
-0.12739
-0.13239
-0.13739
-0.14738
-0.16237
-0.17236
-0.17735
-0.18485
-0.19484
-0.19984
-0.20233
-0.20733
-0.20983
-0.20733
-0.19984
-0.19484
-0.19734
-0.19484
-0.18235
-0.16486
-0.14363
-0.11740
-0.08868
-0.05995
-0.04246
-0.02748
-0.01249
-0.00250
0.00250
0.00500
0.00749
0.01249
0.01499
0.01499
0.01499
0.01249
0.00500
-0.00250
-0.00749
-0.00749
-0.00500
-0.00500
-0.00500
-0.00749
-0.02123
-0.04246
-0.05495
-0.05495
-0.05495
-0.05995
-0.05121
-0.02873
-0.00375
0.01499
0.01998
0.01998
0.01998
0.01749
0.00999
0.00500
0.00250
-0.00250
-0.00500
-0.00749
-0.01749
-0.04122
-0.06869
-0.02748
0.15987
0.42965
0.60450
0.55454
0.32473
0.07869
-0.05995
-0.09492
-0.08868
-0.07494
-0.07244
-0.07494
-0.07494
-0.07494
-0.07744
-0.08243
-0.08493
-0.08493
-0.08493
-0.08743
-0.09242
-0.09492
-0.09742
-0.10616
-0.11740
-0.12240
-0.12989
-0.13988
-0.15113
-0.16237
-0.17111
-0.18235
-0.18984
-0.19734
-0.20483
-0.21232
-0.21732
-0.22232
-0.22481
-0.22481
-0.22481
-0.22481
-0.22481
-0.22481
-0.22107
-0.20608
-0.18360
-0.15862
-0.13114
-0.10366
-0.07869
-0.05620
-0.04122
-0.03122
-0.01873
-0.00749
-0.00500
-0.00500
-0.00500
-0.00500
-0.00500
-0.00500
-0.00250
0.00000
0.00250
0.00500
0.00500
0.00500
0.00500
0.00749
0.00624
-0.00624
-0.02373
-0.03747
-0.03997
-0.04246
-0.04246
-0.02873
-0.00250
0.02373
0.03747
0.03747
0.03247
0.02998
0.02998
0.02998
0.02998
0.02998
0.02748
0.02248
0.01624
0.00125
-0.02498
-0.03622
0.05745
0.30475
0.58951
0.71441
0.58577
0.30100
0.05495
-0.05620
-0.07369
-0.06245
-0.05995
-0.05995
-0.06245
-0.06495
-0.06495
-0.06495
-0.06744
-0.07244
-0.07494
-0.07244
-0.07369
-0.08368
-0.08993
-0.09242
-0.09867
-0.10741
-0.11241
-0.11865
-0.13114
-0.14613
-0.15862
-0.16861
-0.17860
-0.19109
-0.20233
-0.20483
-0.20483
-0.20733
-0.21607
-0.22481
-0.22357
-0.21982
-0.21607
-0.20858
-0.20358
-0.19359
-0.17860
-0.15987
-0.13114
-0.10242
-0.08243
-0.06370
-0.04746
-0.02873
-0.01624
-0.00749
-0.00125
0.00749
0.01374
0.01998
0.02248
0.02248
0.01749
0.01499
0.01749
0.02248
0.02248
0.01998
0.02373
0.03622
0.04122
0.02373
-0.00125
-0.01249
-0.01499
-0.01873
-0.02498
-0.01873
0.00125
0.02748
0.04246
0.04496
0.04246
0.03747
0.03497
0.03497
0.03497
0.03497
0.03247
0.02748
0.02248
0.01624
0.00250
-0.01998
-0.00250
0.13864
0.38218
0.59326
0.61949
0.43214
0.17361
0.00000
-0.05870
-0.06120
-0.05121
-0.04496
-0.04496
-0.04746
-0.05246
-0.05371
-0.04996
-0.05371
-0.06245
-0.06495
-0.06495
-0.06744
-0.07369
-0.08243
-0.08743
-0.09242
-0.09742
-0.10366
-0.11241
-0.11865
-0.13114
-0.14613
-0.15737
-0.16362
-0.17361
-0.18235
-0.18735
-0.19359
-0.19984
-0.20233
-0.20483
-0.20483
-0.20483
-0.20483
-0.20358
-0.19484
-0.17735
-0.15737
-0.13614
-0.10866
-0.08118
-0.05995
-0.04246
-0.02248
-0.00874
-0.00125
0.00500
0.00500
0.00624
0.00874
0.00500
0.00624
0.01124
0.01624
0.01998
0.01998
0.01998
0.01873
0.01624
0.01998
0.02123
0.02123
0.00999
-0.00749
-0.01998
-0.02123
-0.02873
-0.03372
-0.02123
0.00624
0.02998
0.04122
0.04371
0.03872
0.03497
0.03372
0.02998
0.03122
0.03372
0.02998
0.02873
0.02373
0.01249
-0.00999
-0.02873
0.03247
0.24105
0.51707
0.69068
0.63323
0.38593
0.12115
-0.03247
-0.07119
-0.05870
-0.04496
-0.04496
-0.04496
-0.04621
-0.05121
-0.05620
-0.06120
-0.06495
-0.06620
-0.06994
-0.07119
-0.07369
-0.07119
-0.07869
-0.08868
-0.09617
-0.10366
-0.11366
-0.12365
-0.13364
-0.14488
-0.15862
-0.16861
-0.17860
-0.18859
-0.19859
-0.20608
-0.21108
-0.21357
-0.21108
-0.21607
-0.21982
-0.21857
-0.21357
-0.20983
-0.20483
-0.18859
-0.16861
-0.14863
-0.12490
-0.09617
-0.06994
-0.04371
-0.02623
-0.01499
-0.00375
0.00125
0.00500
0.00500
0.00624
0.00999
0.00999
0.01124
0.01624
0.01998
0.01998
0.01998
0.01998
0.01998
0.01998
0.01998
0.01998
0.01998
0.01624
0.00500
-0.00624
-0.01374
-0.02498
-0.03497
-0.03372
-0.01998
0.00624
0.02373
0.02998
0.02873
0.02498
0.02623
0.02998
0.03122
0.03372
0.02748
0.01873
0.01499
0.01374
0.00749
-0.00874
-0.03122
0.00999
0.19484
0.45962
0.63448
0.58702
0.34846
0.10117
-0.03497
-0.06744
-0.05745
-0.04996
-0.05246
-0.05995
-0.05995
-0.06120
-0.06370
-0.05870
-0.05620
-0.06120
-0.06620
-0.06994
-0.07119
-0.07744
-0.08618
-0.09117
-0.09617
-0.10242
-0.11241
-0.12240
-0.13239
-0.14488
-0.15612
-0.16237
-0.17236
-0.18235
-0.19234
-0.19984
-0.19984
-0.19984
-0.19984
-0.20108
-0.20483
-0.20483
-0.20358
-0.19734
-0.18610
-0.16861
-0.14863
-0.12864
-0.10491
-0.07244
-0.05121
-0.03622
-0.02248
-0.01249
-0.00500
-0.00500
-0.00250
0.00500
0.00500
0.00500
0.00500
0.00500
0.00375
0.00125
0.00500
0.00749
0.01624
0.01998
0.01998
0.01998
0.01873
0.01374
0.00999
0.01249
0.01873
0.01124
-0.00250
-0.01249
-0.02123
-0.02748
-0.03497
-0.03372
-0.02123
0.00874
0.03372
0.04371
0.03747
0.02873
0.02498
0.02623
0.02873
0.02373
0.01998
0.01998
0.01749
0.00749
-0.00500
-0.02873
-0.04246
0.03122
0.24855
0.51957
0.67444
0.59201
0.32723
0.07119
-0.05745
-0.07744
-0.06744
-0.05995
-0.06120
-0.06495
-0.06495
-0.06495
-0.06495
-0.06495
-0.06620
-0.06994
-0.07119
-0.07619
-0.08118
-0.08618
-0.08993
-0.09117
-0.09742
-0.10741
-0.11615
-0.12365
-0.13739
-0.14863
-0.16237
-0.17111
-0.17735
-0.18735
-0.19734
-0.20483
-0.20483
-0.20608
-0.20983
-0.20983
-0.20983
-0.20983
-0.20983
-0.20858
-0.20108
-0.18735
-0.17361
-0.14863
-0.12115
-0.08743
-0.06120
-0.04621
-0.03122
-0.01624
-0.00375
0.00125
0.00624
0.01124
0.01374
0.01124
0.01624
0.01998
0.01873
0.01499
0.01499
0.01624
0.01998
0.01998
0.01998
0.01998
0.01873
0.01374
0.00999
0.01249
0.01873
0.01124
-0.00250
-0.01249
-0.02123
-0.02748
-0.03497
-0.03247
-0.01624
0.01749
0.04122
0.04371
0.03872
0.03372
0.02873
0.02498
0.02498
0.02373
0.01873
0.01374
0.00874
0.00250
-0.01124
-0.03747
-0.05121
0.04746
0.29601
0.57952
0.71191
0.58202
0.29101
0.04371
-0.06620
-0.08243
-0.07244
-0.06495
-0.06620
-0.06869
-0.06495
-0.06620
-0.06994
-0.07119
-0.07619
-0.07993
-0.08118
-0.08618
-0.09117
-0.09492
-0.09617
-0.10117
-0.10741
-0.11740
-0.12739
-0.13614
-0.14238
-0.15362
-0.16861
-0.18110
-0.18735
-0.19734
-0.20608
-0.21108
-0.21357
-0.20983
-0.21108
-0.21357
-0.20983
-0.20858
-0.20608
-0.20733
-0.19609
-0.17610
-0.15612
-0.13489
-0.10991
-0.08743
-0.07119
-0.05246
-0.03622
-0.01749
-0.00874
-0.00500
-0.00375
0.00000
-0.00125
-0.00250
0.00624
0.01124
0.01499
0.01499
0.01499
0.01499
0.01624
0.01873
0.01374
0.01124
0.01624
0.01998
0.01998
0.01998
0.01873
0.01374
0.00874
0.00624
0.00874
0.00250
-0.01249
-0.02623
-0.02998
-0.03247
-0.04122
-0.04246
-0.02373
0.00500
0.02623
0.02998
0.02873
0.02498
0.02373
0.01998
0.01998
0.01873
0.01374
0.00999
0.00999
0.00749
-0.00375
-0.02623
-0.04871
0.01749
0.23481
0.50708
0.65571
0.56703
0.31099
0.06869
-0.04996
-0.06869
-0.06370
-0.05495
-0.05495
-0.05371
-0.04996
-0.05121
-0.05995
-0.05995
-0.06120
-0.06620
-0.06994
-0.07119
-0.07619
-0.08493
-0.08493
-0.08618
-0.09117
-0.09617
-0.10616
-0.11615
-0.12240
-0.13739
-0.15237
-0.16112
-0.16736
-0.17735
-0.18735
-0.19484
-0.19609
-0.19984
-0.20108
-0.20483
-0.20483
-0.20483
-0.20358
-0.19859
-0.18735
-0.17236
-0.15612
-0.13489
-0.10491
-0.07619
-0.05620
-0.03622
-0.01749
-0.00375
0.00624
0.01124
0.01624
0.01998
0.01998
0.01998
0.01998
0.01873
0.01374
0.00999
0.01124
0.01624
0.01873
0.01499
0.01499
0.01624
0.01998
0.01998
0.02123
0.02498
0.02498
0.02373
0.01873
0.01124
-0.00749
-0.01998
-0.02123
-0.02498
-0.02498
-0.02123
0.00500
0.03247
0.04621
0.05495
0.05371
0.04871
0.04496
0.04496
0.04371
0.03372
0.02998
0.02998
0.02873
0.01749
-0.00500
-0.03372
-0.00375
0.18984
0.48710
0.70817
0.68943
0.43964
0.14613
-0.02748
-0.06869
-0.05870
-0.04871
-0.04496
-0.04496
-0.04621
-0.04996
-0.04996
-0.05121
-0.05620
-0.06120
-0.06495
-0.06620
-0.07119
-0.07619
-0.08618
-0.09117
-0.09617
-0.10616
-0.11116
-0.12115
-0.13114
-0.14113
-0.15113
-0.16237
-0.17610
-0.18610
-0.19609
-0.20108
-0.20608
-0.20983
-0.20983
-0.21108
-0.21482
-0.21482
-0.21482
-0.20983
-0.20483
-0.19859
-0.18235
-0.15612
-0.12739
-0.10117
-0.07619
-0.05246
-0.03747
-0.02373
-0.01374
-0.00375
0.00125
0.00500
0.00624
0.01124
0.01998
0.01998
0.01998
0.01998
0.01998
0.01998
0.01998
0.01998
0.01998
0.01998
0.01998
0.01998
0.01998
0.01998
0.01998
0.01374
-0.00125
-0.01624
-0.02998
-0.03497
-0.03622
-0.04496
-0.04122
-0.01124
0.02248
0.04496
0.04871
0.03997
0.03497
0.03497
0.02998
0.02998
0.02498
0.02498
0.02373
0.01374
0.00375
-0.01374
-0.03997
-0.02873
0.14363
0.44338
0.67819
0.67944
0.43214
0.13988
-0.03122
-0.07993
-0.07369
-0.06495
-0.05995
-0.06495
-0.06994
-0.07494
-0.06994
-0.06994
-0.06994
-0.07494
-0.07993
-0.07993
-0.08493
-0.08493
-0.08493
-0.08618
-0.09617
-0.10616
-0.12115
-0.13114
-0.14113
-0.15113
-0.16112
-0.17111
-0.18110
-0.19109
-0.19984
-0.20108
-0.20983
-0.20983
-0.20983
-0.20983
-0.20983
-0.21108
-0.21482
-0.20858
-0.19859
-0.18859
-0.16861
-0.14738
-0.12240
-0.09867
-0.07744
-0.05371
-0.03872
-0.02498
-0.01873
-0.00999
-0.00500
0.00000
0.00500
0.00500
0.00500
0.00000
-0.00500
-0.00500
0.00000
0.00500
0.00500
0.00500
0.00500
0.00500
0.00500
0.00500
0.00375
-0.00624
-0.02623
-0.03497
-0.03497
-0.03497
-0.03497
-0.03372
-0.01249
0.01624
0.02998
0.02998
0.02998
0.02998
0.02998
0.02998
0.02498
0.01998
0.01998
0.01998
0.01873
0.00874
-0.00250
-0.03622
-0.04746
0.06744
0.31849
0.57827
0.67944
0.52082
0.23980
0.02873
-0.06120
-0.07494
-0.06495
-0.05495
-0.05995
-0.05995
-0.05995
-0.06120
-0.06994
-0.06994
-0.06495
-0.06994
-0.06994
-0.06994
-0.07619
-0.08618
-0.09492
-0.09992
-0.10491
-0.11116
-0.12115
-0.13489
-0.14113
-0.15113
-0.16112
-0.17610
-0.18610
-0.19484
-0.20108
-0.20983
-0.20983
-0.20983
-0.20983
-0.21482
-0.21482
-0.21482
-0.20983
-0.20483
-0.19859
-0.17860
-0.15362
-0.12864
-0.10866
-0.08368
-0.06370
-0.03872
-0.02373
-0.00874
0.00500
0.00999
0.01499
0.00999
0.00999
0.01499
0.01998
0.01998
0.01499
0.00999
0.01499
0.01998
0.01998
0.01998
0.01998
0.01998
0.01998
0.01998
0.01499
0.00500
-0.00999
-0.01998
-0.01998
-0.02998
-0.03497
-0.02373
0.00624
0.03497
0.04996
0.04496
0.04496
0.04496
0.04496
0.03997
0.03497
0.02998
0.02498
0.02498
0.01998
0.00874
-0.01624
-0.05371
0.00125
0.21982
0.52207
0.72815
0.66695
0.38218
0.10117
-0.04122
-0.06495
-0.04996
-0.03997
-0.03497
-0.03997
-0.04496
-0.04496
-0.04996
-0.04996
-0.04996
-0.05995
-0.06495
-0.06495
-0.06994
-0.06994
-0.07494
-0.07494
-0.08493
-0.09492
-0.10991
-0.11491
-0.12490
-0.13489
-0.14988
-0.15987
-0.16986
-0.17985
-0.18984
-0.19984
-0.19984
-0.20983
-0.21482
-0.21982
-0.21982
-0.21482
-0.20983
-0.20983
-0.20483
-0.18984
-0.16986
-0.14488
-0.10991
-0.07993
-0.05995
-0.03997
-0.01998
-0.00500
0.00500
0.00500
0.01499
0.01998
0.01998
0.01998
0.01998
0.01998
0.01998
0.01998
0.01998
0.02498
0.02498
0.01998
0.01998
0.01998
0.01998
0.01998
0.01998
0.00999
-0.00500
-0.02498
-0.03497
-0.03497
-0.03997
-0.02998
0.00500
0.02498
0.03997
0.03497
0.03497
0.03497
0.03497
0.02998
0.02498
0.02498
0.02498
0.01998
0.00999
-0.00500
-0.03497
-0.05495
0.05870
0.33847
0.62324
0.72440
0.55204
0.23730
0.00749
-0.07869
-0.07494
-0.05995
-0.04996
-0.05995
-0.05995
-0.06994
-0.06994
-0.06994
-0.06994
-0.06994
-0.07494
-0.07993
-0.08493
-0.08993
-0.08993
-0.09492
-0.09992
-0.10991
-0.11990
-0.12490
-0.13489
-0.14488
-0.15487
-0.16986
-0.17985
-0.18984
-0.19984
-0.20483
-0.20483
-0.20483
-0.20483
-0.20483
-0.20983
-0.20983
-0.20483
-0.19984
-0.18984
-0.18485
-0.16611
-0.14613
-0.11615
-0.09117
-0.06620
-0.04996
-0.03997
-0.02998
-0.01998
-0.00500
0.00000
0.00500
0.00500
0.00500
0.00999
0.01499
0.00500
0.00500
0.00999
0.01499
0.00999
0.00500
0.00500
0.01499
0.01998
0.01499
0.00000
-0.01499
-0.02498
-0.02998
-0.02498
-0.02498
-0.02498
-0.00999
0.01873
0.03872
0.04496
0.03122
0.02998
0.02998
0.02998
0.02998
0.02498
0.02498
0.02498
0.01998
0.00624
0.00000
-0.02873
-0.03997
0.08368
0.34721
0.59826
0.64322
0.45463
0.18360
-0.00624
-0.06744
-0.06495
-0.05121
-0.04496
-0.04496
-0.04496
-0.04496
-0.04496
-0.04996
-0.05495
-0.05995
-0.06495
-0.06495
-0.06994
-0.07494
-0.07993
-0.07993
-0.08493
-0.09492
-0.09992
-0.11366
-0.12490
-0.13864
-0.14988
-0.15987
-0.16986
-0.17985
-0.18485
-0.18984
-0.19484
-0.19984
-0.19984
-0.19984
-0.19984
-0.19984
-0.19984
-0.19109
-0.18485
-0.17610
-0.15612
-0.13114
-0.10242
-0.07619
-0.05620
-0.03122
-0.01124
-0.00125
0.00500
0.00999
0.01873
0.01998
0.01998
0.01998
0.02498
0.01998
0.01998
0.01998
0.01998
0.01998
0.01998
0.01998
0.02498
0.02498
0.01998
0.01998
0.01499
0.00624
-0.00375
-0.01374
-0.01998
-0.01998
-0.01998
-0.00125
0.02248
0.04371
0.04996
0.04496
0.04496
0.04496
0.04496
0.04496
0.03997
0.03497
0.02998
0.02498
0.01998
0.01124
-0.01249
-0.02373
0.09867
0.36220
0.61824
0.68568
0.48835
0.19609
-0.00375
-0.06120
-0.05620
-0.04621
-0.03622
-0.03997
-0.04496
-0.04496
-0.04496
-0.04496
-0.05371
-0.05995
-0.05495
-0.05495
-0.06370
-0.06994
-0.07494
-0.07993
-0.08493
-0.09367
-0.09992
-0.10866
-0.11865
-0.13364
-0.14363
-0.15362
-0.16362
-0.17860
-0.18485
-0.18984
-0.19484
-0.20358
-0.20983
-0.21482
-0.21108
-0.21482
-0.21982
-0.21607
-0.20608
-0.19109
-0.17236
-0.14738
-0.11865
-0.09242
-0.05870
-0.03247
-0.02123
-0.01124
-0.00500
0.00375
0.00500
0.00500
0.00999
0.00999
0.00999
0.00999
0.00999
0.00999
0.01499
0.01499
0.01499
0.00999
0.00500
0.00500
0.00500
0.00999
0.01499
0.00624
-0.00375
-0.01374
-0.02373
-0.02998
-0.03497
-0.02623
0.00125
0.03122
0.04371
0.03997
0.03497
0.03497
0.03997
0.03497
0.02998
0.02498
0.01624
0.00999
0.00999
0.00500
-0.00375
-0.03997
-0.01873
0.15612
0.42090
0.60825
0.57328
0.34097
0.09492
-0.04496
-0.08243
-0.07619
-0.06620
-0.06120
-0.06495
-0.06495
-0.06120
-0.05995
-0.06495
-0.06994
-0.06994
-0.06994
-0.07869
-0.07993
-0.07619
-0.07993
-0.08868
-0.09492
-0.10366
-0.10991
-0.11491
-0.12365
-0.13364
-0.13988
-0.14488
-0.15362
-0.15987
-0.16486
-0.16986
-0.17486
-0.17486
-0.17486
-0.17486
-0.17486
-0.17111
-0.16112
-0.15612
-0.14613
-0.13239
-0.11241
-0.08368
-0.05870
-0.04246
-0.01873
-0.00250
0.01249
0.02373
0.02873
0.03372
0.03872
0.03997
0.03997
0.04371
0.04122
0.03622
0.03497
0.03872
0.04371
0.04496
0.04496
0.04496
0.04122
0.03622
0.03497
0.03122
0.02123
0.00749
-0.00375
-0.00500
-0.00500
-0.00500
0.00749
0.03997
0.06245
0.06869
0.05745
0.05495
0.05121
0.04996
0.04996
0.04996
0.04996
0.04621
0.04496
0.03622
0.02623
-0.00500
-0.02623
0.07494
0.32598
0.59201
0.68069
0.53081
0.26103
0.04746
-0.04371
-0.05121
-0.04122
-0.03622
-0.03497
-0.03872
-0.03997
-0.03997
-0.04371
-0.04871
-0.04996
-0.04996
-0.05371
-0.05870
-0.05995
-0.06370
-0.06869
-0.07869
-0.08868
-0.09367
-0.10366
-0.11366
-0.12739
-0.13864
-0.14863
-0.16237
-0.17361
-0.17860
-0.18360
-0.19734
-0.20358
-0.20483
-0.20483
-0.20483
-0.20483
-0.20108
-0.19609
-0.18735
-0.17735
-0.15862
-0.13489
-0.11366
-0.08993
-0.05995
-0.03497
-0.01374
-0.00125
0.00874
0.01873
0.01998
0.01998
0.01998
0.01998
0.02373
0.02498
0.02123
0.01998
0.01998
0.01998
0.01998
0.01998
0.01998
0.01998
0.01998
0.01998
0.01998
0.01249
-0.00250
-0.02123
-0.02873
-0.03372
-0.03497
-0.02748
-0.00500
0.02373
0.04246
0.04122
0.03247
0.02998
0.02623
0.02123
0.01998
0.01624
0.01124
0.00624
0.00500
0.00500
-0.01124
-0.03497
-0.01249
0.15987
0.42090
0.60325
0.55454
0.31849
0.07244
-0.05121
-0.07369
-0.06744
-0.05745
-0.05870
-0.05995
-0.05995
-0.06370
-0.06495
-0.06869
-0.06994
-0.06994
-0.07369
-0.08243
-0.08493
-0.08868
-0.09367
-0.09867
-0.10741
-0.11740
-0.12365
-0.13239
-0.14238
-0.15237
-0.15862
-0.17236
-0.17860
-0.18360
-0.18859
-0.19734
-0.20358
-0.20483
-0.20108
-0.19984
-0.19984
-0.19984
-0.19609
-0.19109
-0.18235
-0.16486
-0.14488
-0.11990
-0.09492
-0.07869
-0.05995
-0.04371
-0.03247
-0.02248
-0.01249
-0.00624
-0.00500
-0.00500
-0.00125
0.00375
0.00500
0.00500
0.01249
0.01873
0.01249
0.00999
0.00999
0.01374
0.01499
0.01124
0.00999
0.00999
0.00250
-0.00749
-0.01749
-0.02373
-0.02873
-0.02998
-0.02623
-0.00250
0.02748
0.04246
0.04496
0.04496
0.04122
0.03247
0.02998
0.02998
0.02623
0.02123
0.01998
0.01998
0.01624
0.00000
-0.03997
-0.04621
0.08118
0.33722
0.59201
0.68444
0.52707
0.24979
0.02748
-0.06994
-0.07369
-0.06245
-0.05995
-0.05995
-0.05995
-0.05995
-0.06370
-0.06869
-0.06994
-0.06994
-0.06994
-0.06994
-0.07744
-0.08368
-0.09242
-0.10242
-0.10866
-0.10991
-0.11740
-0.12739
-0.14113
-0.15237
-0.15862
-0.16736
-0.18110
-0.19609
-0.20733
-0.21357
-0.22232
-0.22107
-0.22357
-0.23231
-0.23481
-0.23481
-0.22731
-0.21732
-0.21108
-0.20233
-0.18485
-0.16112
-0.13614
-0.11116
-0.08618
-0.06495
-0.04496
-0.02873
-0.01374
-0.00624
-0.00500
-0.00500
-0.00500
-0.00125
0.00375
0.00500
0.00500
0.00500
0.00500
0.00500
0.00874
0.01749
0.01624
0.00749
0.00500
0.00500
-0.00250
-0.01249
-0.02248
-0.02873
-0.03747
-0.04371
-0.04122
-0.02123
0.00749
0.02248
0.02873
0.02998
0.02998
0.02623
0.02123
0.01998
0.01998
0.01998
0.01624
0.01124
0.00624
-0.00250
-0.02373
-0.05121
0.00125
0.20233
0.47711
0.64946
0.58327
0.33847
0.08618
-0.04871
-0.07869
-0.07244
-0.06245
-0.05995
-0.05995
-0.05995
-0.06370
-0.06869
-0.06994
-0.06994
-0.07369
-0.07869
-0.07993
-0.07993
-0.08368
-0.09242
-0.09492
-0.10242
-0.11241
-0.12240
-0.13239
-0.14238
-0.15612
-0.16736
-0.17735
-0.18360
-0.19234
-0.20233
-0.20858
-0.20983
-0.21732
-0.22357
-0.22481
-0.22107
-0.21982
-0.21982
-0.21607
-0.20483
-0.18610
-0.16611
-0.14613
-0.11491
-0.08743
-0.06620
-0.04621
-0.02998
-0.01749
-0.00749
-0.00125
0.00375
0.00500
0.00874
0.00624
0.00500
0.00500
0.00500
0.00500
0.00874
0.01374
0.01873
0.01624
0.01499
0.01873
0.01249
0.00624
0.00500
0.00874
0.00250
-0.00999
-0.02498
-0.03747
-0.04371
-0.04871
-0.04246
-0.01624
0.01624
0.03497
0.03247
0.02998
0.02998
0.03372
0.03122
0.02248
0.01998
0.01998
0.01998
0.01624
0.00874
-0.00874
-0.03872
-0.03247
0.10491
0.36345
0.59576
0.62948
0.42965
0.15737
-0.02873
-0.09242
-0.08618
-0.07369
-0.06620
-0.06869
-0.06994
-0.06620
-0.06495
-0.06869
-0.07369
-0.07869
-0.08368
-0.09117
-0.09492
-0.08868
-0.08868
-0.09617
-0.10616
-0.10991
-0.10991
-0.11615
-0.12989
-0.14113
-0.15113
-0.16112
-0.17486
-0.18735
-0.19359
-0.19859
-0.19984
-0.20358
-0.20108
-0.19984
-0.19984
-0.19984
-0.19359
-0.18610
-0.18485
-0.17486
-0.15362
-0.13489
-0.11366
-0.08868
-0.06994
-0.05495
-0.04371
-0.03372
-0.02373
-0.01374
-0.00624
-0.00125
0.00375
0.00500
0.00874
0.00999
0.01374
0.01873
0.01998
0.01624
0.01124
0.00999
0.00999
0.00624
0.00500
0.00874
0.00999
0.00999
0.00624
-0.00125
-0.01499
-0.02623
-0.03372
-0.03497
-0.03497
-0.03497
-0.02248
0.00749
0.02623
0.02623
0.02498
0.02498
0.02498
0.02498
0.02123
0.01998
0.01998
0.01624
0.01124
0.00624
-0.00125
-0.02498
-0.05121
0.00749
0.20983
0.47461
0.64447
0.58452
0.34347
0.09492
-0.04246
-0.07494
-0.06869
-0.06120
-0.05995
-0.05995
-0.05995
-0.05995
-0.06620
-0.06994
-0.06994
-0.06994
-0.06994
-0.07369
-0.07869
-0.08368
-0.09117
-0.09867
-0.10616
-0.11615
-0.12365
-0.13114
-0.14488
-0.15362
-0.16112
-0.17111
-0.18110
-0.18859
-0.19359
-0.20108
-0.20858
-0.20983
-0.20983
-0.20983
-0.20983
-0.20983
-0.20983
-0.20358
-0.19359
-0.17735
-0.15487
-0.12989
-0.10491
-0.07993
-0.05495
-0.03247
-0.01624
0.00000
0.01124
0.01873
0.01998
0.01998
0.01998
0.01998
0.02373
0.02248
0.01998
0.01998
0.01998
0.01998
0.01998
0.02248
0.02748
0.02748
0.02498
0.02498
0.02498
0.02248
0.01998
0.01374
0.00125
-0.01374
-0.02248
-0.02498
-0.03122
-0.03497
-0.01998
0.01749
0.04371
0.04746
0.04496
0.04496
0.04746
0.04371
0.03372
0.02748
0.02498
0.02748
0.02373
0.01374
0.00125
-0.02373
-0.04746
0.01499
0.22731
0.49834
0.65071
0.56828
0.31599
0.07244
-0.04871
-0.07494
-0.06620
-0.05745
-0.05495
-0.05495
-0.05495
-0.05745
-0.05995
-0.05995
-0.05745
-0.05745
-0.06620
-0.06994
-0.06994
-0.07619
-0.08618
-0.09242
-0.09742
-0.09992
-0.10616
-0.11615
-0.12615
-0.13614
-0.14613
-0.15237
-0.16362
-0.17610
-0.18235
-0.18735
-0.18984
-0.19234
-0.19734
-0.19984
-0.19984
-0.19734
-0.19234
-0.18735
-0.17610
-0.15487
-0.13364
-0.11366
-0.08993
-0.07119
-0.05371
-0.03622
-0.02373
-0.01749
-0.00874
-0.00250
0.00250
0.00500
0.00749
0.01249
0.01749
0.01749
0.01249
0.00999
0.00999
0.00999
0.01249
0.01749
0.01998
0.01998
0.01998
0.01749
0.00874
0.00500
0.00500
0.00500
0.00749
0.01249
0.00874
0.00250
-0.00874
-0.02373
-0.02998
-0.02748
-0.03122
-0.03497
-0.02373
0.00250
0.02873
0.04246
0.03872
0.03247
0.02998
0.02998
0.02998
0.02998
0.02998
0.02373
0.01749
0.00874
0.00250
-0.01749
-0.04746
-0.01249
0.16362
0.43089
0.63073
0.61949
0.40092
0.13988
-0.02373
-0.07244
-0.06994
-0.05995
-0.05745
-0.05995
-0.05995
-0.05995
-0.05995
-0.06245
-0.06744
-0.06994
-0.06994
-0.07244
-0.07744
-0.08243
-0.08743
-0.09242
-0.10117
-0.10741
-0.11615
-0.12240
-0.13114
-0.13739
-0.14613
-0.15862
-0.17361
-0.18610
-0.19609
-0.19984
-0.20233
-0.20483
-0.20483
-0.20733
-0.20983
-0.20983
-0.20983
-0.20983
-0.20483
-0.18859
-0.16611
-0.14113
-0.11615
-0.09117
-0.06869
-0.04871
-0.02873
-0.01749
-0.00999
-0.00250
0.00250
0.00500
0.00500
0.00250
0.00000
0.00250
0.00500
0.00999
0.01499
0.01249
0.00749
0.00500
0.00500
0.00500
0.00500
0.00749
0.00999
0.00999
0.01249
0.01749
0.01749
0.00999
-0.00250
-0.01749
-0.02748
-0.02748
-0.02748
-0.03247
-0.03247
-0.01624
0.00874
0.02498
0.03247
0.03247
0.02998
0.02998
0.02998
0.02748
0.02248
0.01998
0.01998
0.01749
0.01249
0.00250
-0.02623
-0.04496
0.03372
0.24979
0.50583
0.63323
0.53456
0.28851
0.06370
-0.04621
-0.06744
-0.05995
-0.04996
-0.04496
-0.04996
-0.05745
-0.05995
-0.05745
-0.05745
-0.05995
-0.06245
-0.06744
-0.06994
-0.07244
-0.07744
-0.08243
-0.08993
-0.09742
-0.10242
-0.10991
-0.11990
-0.13239
-0.14488
-0.15237
-0.15987
-0.17236
-0.18485
-0.19484
-0.20233
-0.20733
-0.20983
-0.20983
-0.21232
-0.21482
-0.21732
-0.21732
-0.20983
-0.19734
-0.17985
-0.15987
-0.13739
-0.10991
-0.07993
-0.05745
-0.03997
-0.01998
-0.00500
0.00500
0.01499
0.01998
0.01998
0.01998
0.02248
0.02498
0.02748
0.02998
0.02998
0.02998
0.02998
0.02748
0.02498
0.02498
0.02498
0.02498
0.02498
0.02498
0.02248
0.01998
0.02248
0.02498
0.02748
0.02998
0.02998
0.02998
0.02998
0.02748
0.01998
0.00749
-0.00500
-0.01249
-0.01749
-0.02498
-0.02748
-0.01499
0.00999
0.03247
0.04496
0.04746
0.04496
0.04496
0.04246
0.03747
0.03247
0.02748
0.02498
0.02248
0.01499
-0.00500
-0.04122
-0.04996
0.06620
0.33098
0.60825
0.70317
0.54330
0.25604
0.03247
-0.06120
-0.07244
-0.05995
-0.04996
-0.04996
-0.05745
-0.05995
-0.06495
-0.06994
-0.06994
-0.06994
-0.06994
-0.07244
-0.07993
-0.08993
-0.09742
-0.10242
-0.10741
-0.11241
-0.11990
-0.12739
-0.13489
-0.14488
-0.15737
-0.16986
-0.17735
-0.18235
-0.18984
-0.20233
-0.20983
-0.20983
-0.20733
-0.20733
-0.20983
-0.21232
-0.21482
-0.21482
-0.20983
-0.19859
-0.18360
-0.16611
-0.14363
-0.11865
-0.09367
-0.07369
-0.05620
-0.03747
-0.02748
-0.02248
-0.01499
-0.00749
-0.00250
0.00250
0.00500
0.00500
0.00250
-0.00250
-0.00500
0.00000
0.00500
0.00250
-0.00250
-0.00250
0.00250
0.00500
0.00500
0.00500
0.00500
0.00500
0.00250
0.00000
0.00000
0.00250
0.00500
0.00749
0.00500
-0.00624
-0.02373
-0.03497
-0.03497
-0.03747
-0.04246
-0.03872
-0.01624
0.00874
0.02498
0.02998
0.02998
0.02748
0.02248
0.01998
0.01998
0.01749
0.01249
0.00749
0.00500
-0.00125
-0.02373
-0.04871
-0.00749
0.17486
0.43464
0.61949
0.59576
0.37344
0.11615
-0.03997
-0.08493
-0.07869
-0.06744
-0.06744
-0.06994
-0.06994
-0.06744
-0.06744
-0.06994
-0.07244
-0.07744
-0.08243
-0.08493
-0.08743
-0.09242
-0.09742
-0.10491
-0.11241
-0.11740
-0.12615
-0.13988
-0.14988
-0.15987
-0.16986
-0.18110
-0.19234
-0.19734
-0.20233
-0.20733
-0.21232
-0.21482
-0.21732
-0.22232
-0.22481
-0.22481
-0.22481
-0.22232
-0.21607
-0.20358
-0.18610
-0.16486
-0.13988
-0.11241
-0.08618
-0.06620
-0.04871
-0.03372
-0.01873
-0.00749
-0.00250
0.00000
0.00250
0.00500
0.00500
0.00500
0.00500
0.00500
0.00500
0.00250
0.00000
0.00000
0.00000
0.00000
0.00000
0.00000
0.00000
0.00000
0.00000
0.00000
0.00000
0.00000
0.00000
0.00000
0.00000
0.00000
-0.00250
-0.00874
-0.02123
-0.03622
-0.04496
-0.04496
-0.04746
-0.04621
-0.02998
-0.00500
0.01374
0.01998
0.01998
0.02248
0.02748
0.02748
0.02123
0.01124
0.00500
0.00250
-0.00250
-0.00500
-0.01499
-0.04246
-0.02998
0.10866
0.36345
0.59076
0.62199
0.42590
0.15487
-0.02748
-0.08743
-0.08368
-0.07119
-0.06495
-0.06744
-0.07244
-0.07244
-0.06620
-0.06245
-0.06744
-0.07244
-0.07869
-0.08743
-0.09242
-0.09492
-0.09492
-0.09867
-0.10741
-0.11366
-0.12365
-0.13364
-0.14238
-0.14738
-0.15237
-0.15737
-0.16611
-0.17735
-0.18360
-0.19609
-0.20483
-0.20483
-0.20733
-0.21232
-0.21732
-0.21857
-0.21108
-0.20358
-0.19609
-0.18610
-0.17236
-0.14863
-0.12240
-0.10242
-0.08493
-0.06744
-0.04996
-0.03622
-0.02623
-0.01873
-0.01374
-0.00874
-0.00500
-0.00500
-0.00500
-0.00500
-0.00500
-0.00500
-0.00375
0.00000
-0.00125
-0.00500
-0.00500
-0.00500
-0.00500
-0.00375
0.00125
0.00375
-0.00125
-0.00500
-0.00375
0.00125
0.00375
-0.00125
-0.01249
-0.02998
-0.04122
-0.04496
-0.04496
-0.04496
-0.04371
-0.03122
-0.00624
0.01499
0.02373
0.01998
0.01998
0.01998
0.01873
0.01124
0.00500
0.00500
0.00500
0.00375
-0.00375
-0.01873
-0.04871
-0.06120
0.03997
0.27602
0.53081
0.64447
0.52457
0.26228
0.03247
-0.07619
-0.09117
-0.08118
-0.07369
-0.06994
-0.06994
-0.07119
-0.07494
-0.07869
-0.08493
-0.08493
-0.08493
-0.08618
-0.09117
-0.09492
-0.09617
-0.10117
-0.10866
-0.11615
-0.12365
-0.13364
-0.14363
-0.15362
-0.16486
-0.17860
-0.18859
-0.19859
-0.20733
-0.21232
-0.21857
-0.22731
-0.22981
-0.22981
-0.22856
-0.22481
-0.22481
-0.22481
-0.22357
-0.21607
-0.20483
-0.18610
-0.16112
-0.13489
-0.10616
-0.08118
-0.05995
-0.04371
-0.02373
-0.00624
0.00125
0.00500
0.00500
0.00125
-0.00500
-0.00500
-0.00125
0.00874
0.01499
0.01374
0.00874
0.00375
0.00000
0.00125
0.00500
0.00500
0.00500
0.00375
-0.00125
-0.00500
-0.00375
0.00000
-0.00375
-0.01499
-0.02998
-0.03997
-0.03997
-0.04122
-0.04496
-0.03997
-0.01998
0.00624
0.02373
0.02998
0.02998
0.02998
0.02873
0.02373
0.01873
0.01374
0.00999
0.00999
0.00874
0.00125
-0.01499
-0.04246
-0.02873
0.11865
0.37469
0.59326
0.61824
0.42590
0.16112
-0.01624
-0.07494
-0.07244
-0.06245
-0.05495
-0.05495
-0.05620
-0.06120
-0.06495
-0.06495
-0.06620
-0.07119
-0.07619
-0.08118
-0.08493
-0.08618
-0.09117
-0.09492
-0.09867
-0.10866
-0.11615
-0.12115
-0.12864
-0.13988
-0.15362
-0.16362
-0.17361
-0.18360
-0.19359
-0.20108
-0.20608
-0.21108
-0.21607
-0.21982
-0.21857
-0.21357
-0.20983
-0.20983
-0.20608
-0.19109
-0.17361
-0.15237
-0.12615
-0.09867
-0.07869
-0.06120
-0.04621
-0.02998
-0.01749
-0.00874
-0.00250
0.00500
0.00500
0.00500
0.00500
0.00500
0.00500
0.00500
0.00624
0.01124
0.01374
0.00874
0.00624
0.01124
0.01499
0.01249
0.00500
0.00624
0.00874
0.00500
0.00500
0.00250
-0.00874
-0.02373
-0.03497
-0.03497
-0.03747
-0.04371
-0.03247
-0.00500
0.02623
0.04122
0.04246
0.03372
0.02998
0.02998
0.02873
0.02498
0.02498
0.02498
0.02373
0.01749
0.00250
-0.02748
-0.06120
-0.01749
0.19484
0.49209
0.68943
0.63573
0.38468
0.11865
-0.03497
-0.07369
-0.06620
-0.05246
-0.04746
-0.05620
-0.06120
-0.06495
-0.06495
-0.06495
-0.06495
-0.06620
-0.07244
-0.08118
-0.08493
-0.08493
-0.08618
-0.09242
-0.10242
-0.11241
-0.12240
-0.13239
-0.14238
-0.15362
-0.16861
-0.18360
-0.19609
-0.20108
-0.20608
-0.21232
-0.22232
-0.23106
-0.23356
-0.22856
-0.22481
-0.22481
-0.22357
-0.21857
-0.21232
-0.19984
-0.17735
-0.14863
-0.12365
-0.09867
-0.07369
-0.05121
-0.03622
-0.02248
-0.01249
-0.00250
0.00624
0.00999
0.00999
0.01249
0.01873
0.01374
0.01124
0.01624
0.01998
0.01873
0.01499
0.01499
0.01499
0.01499
0.01499
0.01624
0.01998
0.01873
0.01374
0.00999
0.01124
0.01249
0.00125
-0.01249
-0.02123
-0.02748
-0.03497
-0.03622
-0.03622
-0.01873
0.00500
0.02248
0.02998
0.02873
0.02498
0.02498
0.02498
0.02498
0.02373
0.01998
0.01873
0.01374
0.00749
-0.00624
-0.03497
-0.05495
0.02998
0.26353
0.53206
0.64946
0.51832
0.25729
0.03622
-0.06495
-0.07619
-0.06245
-0.05371
-0.04996
-0.05121
-0.05495
-0.05371
-0.05121
-0.05620
-0.06245
-0.06994
-0.06994
-0.06994
-0.07119
-0.07619
-0.07993
-0.08243
-0.09242
-0.10242
-0.11241
-0.12240
-0.13364
-0.14863
-0.16112
-0.16736
-0.17735
-0.18610
-0.19109
-0.19609
-0.20108
-0.20608
-0.20983
-0.20983
-0.20983
-0.20983
-0.20733
-0.19734
-0.18735
-0.17486
-0.14988
-0.12490
-0.10117
-0.08118
-0.05995
-0.03622
-0.02123
-0.00874
-0.00250
0.00749
0.01624
0.01998
0.01998
0.01998
0.01998
0.01998
0.01998
0.01998
0.01998
0.01998
0.01998
0.01998
0.01998
0.01873
0.01499
0.01499
0.01624
0.01998
0.01998
0.01998
0.01873
0.01249
-0.00250
-0.01249
-0.02123
-0.02748
-0.03497
-0.03247
-0.01749
0.01998
0.04122
0.04496
0.04496
0.04371
0.03997
0.03747
0.02998
0.02998
0.02998
0.02748
0.01998
0.01749
-0.00125
-0.03622
-0.04246
0.07869
0.34222
0.60825
0.70567
0.54580
0.24605
0.01998
-0.06620
-0.06744
-0.05371
-0.04746
-0.05620
-0.05870
-0.05620
-0.05995
-0.05995
-0.06120
-0.06370
-0.05995
-0.06245
-0.06994
-0.07244
-0.08118
-0.08743
-0.09617
-0.10117
-0.10616
-0.11241
-0.12240
-0.13739
-0.15113
-0.15737
-0.17236
-0.18610
-0.19234
-0.20233
-0.21232
-0.21982
-0.21857
-0.21482
-0.21607
-0.21982
-0.21857
-0.21357
-0.20858
-0.20358
-0.19609
-0.17486
-0.14488
-0.11615
-0.09117
-0.07119
-0.05246
-0.03747
-0.02373
-0.01374
-0.00375
0.00125
0.00624
0.01124
0.01499
0.01499
0.01624
0.01873
0.01374
0.00500
0.00624
0.01124
0.01624
0.01998
0.01998
0.01998
0.01873
0.01374
0.00500
0.00624
0.01124
0.01374
0.00250
-0.01124
-0.01998
-0.02123
-0.02623
-0.03622
-0.03747
-0.01998
0.00874
0.02623
0.02998
0.02998
0.02873
0.01998
0.01998
0.01998
0.01998
0.01998
0.01998
0.01873
0.00874
-0.00500
-0.03497
-0.05246
0.02248
0.24730
0.51208
0.65321
0.54955
0.28601
0.04996
-0.06245
-0.07744
-0.06370
-0.05495
-0.05495
-0.05620
-0.05995
-0.05995
-0.05995
-0.05995
-0.06120
-0.06994
-0.06994
-0.06994
-0.07119
-0.08118
-0.08618
-0.09492
-0.09617
-0.10117
-0.11116
-0.11615
-0.12739
-0.14113
-0.15113
-0.16112
-0.17111
-0.18110
-0.18610
-0.19109
-0.19609
-0.20483
-0.20483
-0.20483
-0.19984
-0.19984
-0.19984
-0.19859
-0.18859
-0.17735
-0.15737
-0.13614
-0.10616
-0.08243
-0.06120
-0.03747
-0.02248
-0.00874
0.00125
0.01124
0.01624
0.01998
0.01998
0.01998
0.01998
0.01998
0.01998
0.01998
0.01998
0.01998
0.01998
0.01998
0.01998
0.01998
0.01998
0.01998
0.01998
0.01998
0.01499
0.00999
0.00375
-0.00624
-0.01624
-0.03122
-0.03997
-0.03872
-0.02248
0.00375
0.03122
0.04496
0.04496
0.04496
0.04496
0.04371
0.03497
0.02998
0.02998
0.02998
0.02998
0.02873
0.01624
-0.01499
-0.05371
-0.01749
0.19109
0.50209
0.71316
0.66570
0.39717
0.11615
-0.03497
-0.06994
-0.06370
-0.05371
-0.04496
-0.04496
-0.04496
-0.04996
-0.05495
-0.05495
-0.05995
-0.05995
-0.06495
-0.06495
-0.07119
-0.08118
-0.08993
-0.08993
-0.09492
-0.10117
-0.11615
-0.12615
-0.13614
-0.15113
-0.16112
-0.16611
-0.17610
-0.19109
-0.19984
-0.20108
-0.20608
-0.21108
-0.21982
-0.21982
-0.21607
-0.22107
-0.22481
-0.22357
-0.20858
-0.19359
-0.17860
-0.15737
-0.13239
-0.10741
-0.07744
-0.05371
-0.03872
-0.01873
-0.00999
-0.00500
0.00000
0.00500
0.00999
0.00999
0.01499
0.01499
0.01499
0.01499
0.01998
0.01998
0.01374
0.00500
0.00500
0.00624
0.01499
0.01998
0.01998
0.01998
0.01998
0.01499
0.01499
0.00874
-0.00125
-0.01124
-0.02623
-0.03497
-0.03997
-0.04371
-0.02748
0.00250
0.02623
0.03497
0.03497
0.03497
0.02998
0.02498
0.01998
0.01998
0.01499
0.01499
0.00999
0.00874
-0.00125
-0.02248
-0.05745
-0.01624
0.18610
0.46961
0.65196
0.60200
0.35096
0.08993
-0.04746
-0.07369
-0.05870
-0.04996
-0.05495
-0.05995
-0.05495
-0.05995
-0.05995
-0.06495
-0.05995
-0.05995
-0.06495
-0.06994
-0.06994
-0.07494
-0.07993
-0.08493
-0.08993
-0.09617
-0.10616
-0.11615
-0.12615
-0.13489
-0.14113
-0.15612
-0.16611
-0.17610
-0.18485
-0.18984
-0.19484
-0.19484
-0.19984
-0.19984
-0.19984
-0.19984
-0.19484
-0.18485
-0.18485
-0.17361
-0.15362
-0.12864
-0.10866
-0.08868
-0.06370
-0.03872
-0.02373
-0.00999
0.00000
0.00500
0.00999
0.01499
0.01998
0.01998
0.01998
0.01998
0.01998
0.01998
0.01998
0.01998
0.01998
0.01998
0.01998
0.01998
0.01998
0.01998
0.01998
0.01998
0.01998
0.01998
0.01499
0.00500
-0.00999
-0.02123
-0.03497
-0.03997
-0.02873
0.00125
0.02998
0.04496
0.04496
0.04496
0.03497
0.02998
0.02998
0.02998
0.02998
0.02998
0.02498
0.02498
0.01374
-0.01124
-0.04996
-0.04996
0.11990
0.41840
0.68568
0.71816
0.49085
0.18859
-0.01124
-0.06994
-0.06495
-0.04996
-0.04496
-0.04496
-0.04996
-0.04996
-0.05495
-0.05495
-0.04996
-0.04996
-0.05495
-0.05995
-0.06495
-0.06994
-0.07494
-0.08493
-0.08993
-0.09492
-0.10491
-0.11491
-0.12490
-0.13489
-0.14488
-0.15987
-0.17486
-0.17985
-0.18485
-0.19984
-0.20983
-0.20983
-0.20983
-0.21482
-0.21982
-0.21982
-0.21482
-0.20983
-0.20983
-0.20483
-0.17985
-0.15987
-0.13988
-0.10991
-0.07993
-0.05495
-0.03997
-0.01998
-0.00500
0.00000
0.00500
0.00999
0.01998
0.01998
0.01998
0.01998
0.01998
0.01998
0.01998
0.02498
0.02498
0.02498
0.01998
0.01998
0.01998
0.02498
0.01998
0.01998
0.01998
0.01998
0.01499
0.01499
0.01499
0.01499
0.00500
-0.01499
-0.03997
-0.04996
-0.03997
-0.01499
0.01499
0.03997
0.04496
0.03997
0.02998
0.02498
0.02498
0.02498
0.02498
0.02498
0.02498
0.01998
0.01499
0.00000
-0.03497
-0.05495
0.05870
0.33722
0.63198
0.72440
0.53206
0.22357
0.00749
-0.06869
-0.06994
-0.05495
-0.04496
-0.04996
-0.05995
-0.05995
-0.04996
-0.05495
-0.05995
-0.05995
-0.05995
-0.06495
-0.06994
-0.07494
-0.07993
-0.08493
-0.09492
-0.10491
-0.10991
-0.11491
-0.12490
-0.13489
-0.14488
-0.15987
-0.17486
-0.18485
-0.18984
-0.18984
-0.19984
-0.20983
-0.20983
-0.20983
-0.20983
-0.20983
-0.20983
-0.19984
-0.18984
-0.18485
-0.16986
-0.15487
-0.13114
-0.10616
-0.08118
-0.05620
-0.03497
-0.01998
-0.01499
-0.00500
0.00000
0.00500
0.00500
0.00500
0.00999
0.00999
0.00999
0.00500
0.00500
0.00999
0.00999
0.01499
0.01998
0.01998
0.01998
0.01998
0.01998
0.01499
0.00500
0.00500
0.00500
0.00500
-0.00500
-0.02373
-0.03497
-0.03997
-0.02623
0.00375
0.02873
0.04496
0.03997
0.02998
0.02998
0.02998
0.02998
0.02498
0.01998
0.01998
0.01998
0.00999
0.00000
-0.02373
-0.05371
-0.02123
0.17486
0.47586
0.68943
0.65696
0.40342
0.11865
-0.03747
-0.07869
-0.06994
-0.05995
-0.05495
-0.05495
-0.05995
-0.05995
-0.05995
-0.05995
-0.06495
-0.06994
-0.06994
-0.06994
-0.06994
-0.07993
-0.08493
-0.08993
-0.09492
-0.10491
-0.10991
-0.11990
-0.12989
-0.13489
-0.14863
-0.15987
-0.16486
-0.17486
-0.18485
-0.18984
-0.19984
-0.20483
-0.20983
-0.20983
-0.20983
-0.20983
-0.20983
-0.20108
-0.19109
-0.18110
-0.16611
-0.14613
-0.11740
-0.09117
-0.06620
-0.04122
-0.02123
-0.00624
0.00375
0.01374
0.01998
0.01998
0.01998
0.01998
0.01998
0.02498
0.02998
0.02998
0.02998
0.02998
0.02998
0.02498
0.02498
0.02498
0.02998
0.02998
0.02498
0.01998
0.01998
0.01998
0.01499
0.00624
-0.00874
-0.02373
-0.03372
-0.01624
0.01749
0.04246
0.05371
0.05495
0.04621
0.04496
0.04496
0.03997
0.03122
0.02998
0.02498
0.02498
0.01998
0.01124
-0.01249
-0.05121
-0.00500
0.21482
0.52207
0.73190
0.67694
0.40092
0.11116
-0.03747
-0.06869
-0.06120
-0.05121
-0.04496
-0.04996
-0.05495
-0.05495
-0.05495
-0.05495
-0.05995
-0.06869
-0.06994
-0.06994
-0.07494
-0.08368
-0.08493
-0.08493
-0.08993
-0.09867
-0.11366
-0.12864
-0.13489
-0.14363
-0.15362
-0.16861
-0.17860
-0.18485
-0.19359
-0.19984
-0.20483
-0.20483
-0.20983
-0.21482
-0.21482
-0.21482
-0.21982
-0.21982
-0.20608
-0.19109
-0.18110
-0.15737
-0.12365
-0.09367
-0.07244
-0.05246
-0.03247
-0.01624
-0.00624
0.00000
0.00500
0.00500
0.01374
0.01499
0.00999
0.00999
0.00999
0.00500
0.00500
0.01374
0.01998
0.01499
0.01998
0.01998
0.01998
0.01998
0.01124
0.00500
0.00500
0.00500
0.00000
-0.00874
-0.02373
-0.03872
-0.03497
-0.01749
0.00749
0.02373
0.02998
0.02623
0.02498
0.02123
0.01998
0.01998
0.01998
0.01624
0.00624
0.00500
0.00500
-0.00874
-0.03247
-0.06994
-0.01873
0.18610
0.46836
0.64072
0.57702
0.32473
0.07619
-0.05121
-0.07369
-0.06620
-0.05620
-0.05995
-0.05620
-0.05495
-0.05495
-0.05995
-0.05995
-0.06495
-0.06495
-0.06994
-0.06994
-0.07494
-0.08368
-0.09367
-0.09492
-0.09992
-0.10866
-0.11491
-0.11990
-0.12864
-0.13864
-0.15237
-0.16362
-0.17361
-0.17985
-0.18485
-0.19359
-0.19984
-0.19984
-0.19984
-0.20483
-0.20483
-0.20483
-0.20108
-0.19984
-0.18735
-0.17236
-0.15237
-0.12864
-0.10741
-0.08368
-0.05870
-0.04246
-0.02248
-0.01124
-0.00125
0.00375
0.00500
0.01374
0.01873
0.01998
0.01624
0.01499
0.01499
0.01873
0.01624
0.01124
0.01374
0.01873
0.01624
0.01124
0.01374
0.01499
0.00624
0.00874
0.01374
0.00624
-0.00375
-0.02123
-0.03372
-0.03497
-0.02248
0.00125
0.02998
0.04371
0.04496
0.04122
0.03122
0.02998
0.02998
0.02998
0.02998
0.02998
0.02623
0.01624
0.00624
-0.01124
-0.04871
-0.03872
0.11990
0.39967
0.64946
0.69443
0.49085
0.20483
0.00999
-0.05745
-0.06120
-0.04746
-0.04496
-0.04496
-0.04496
-0.04496
-0.04871
-0.05371
-0.05870
-0.05995
-0.05995
-0.06370
-0.06495
-0.06869
-0.06994
-0.07869
-0.08868
-0.09367
-0.10366
-0.10866
-0.11865
-0.12864
-0.14238
-0.15362
-0.16362
-0.17361
-0.17860
-0.18360
-0.19359
-0.20358
-0.20858
-0.20983
-0.21857
-0.21982
-0.21982
-0.21232
-0.20233
-0.19234
-0.17361
-0.14988
-0.12490
-0.10366
-0.07619
-0.04996
-0.02873
-0.01249
-0.00125
0.00874
0.01873
0.01998
0.01998
0.01998
0.02373
0.02873
0.02998
0.02998
0.02998
0.02998
0.02998
0.02998
0.02998
0.02623
0.02123
0.02373
0.02498
0.02123
0.01998
0.02373
0.02498
0.01749
-0.00125
-0.02123
-0.03247
-0.03497
-0.02248
0.00375
0.02998
0.04746
0.04996
0.04621
0.03747
0.03122
0.02623
0.02123
0.01998
0.01998
0.01624
0.01124
0.00250
-0.01998
-0.05620
-0.04496
0.12240
0.41091
0.64946
0.65946
0.43964
0.16362
-0.01749
-0.08118
-0.08243
-0.06869
-0.06120
-0.05995
-0.05995
-0.06744
-0.06994
-0.07369
-0.07494
-0.07494
-0.07494
-0.07869
-0.08368
-0.08868
-0.09367
-0.09492
-0.09867
-0.10741
-0.11740
-0.12365
-0.13614
-0.14738
-0.15362
-0.16237
-0.17236
-0.18735
-0.19359
-0.19859
-0.19984
-0.20358
-0.20108
-0.19984
-0.20358
-0.20858
-0.20608
-0.20108
-0.19234
-0.17860
-0.15987
-0.13614
-0.11865
-0.09617
-0.07494
-0.05870
-0.04371
-0.02873
-0.02123
-0.00874
-0.00125
0.00000
0.00000
0.00000
0.00375
0.00500
0.00500
0.00500
0.00500
0.00500
0.00500
0.00500
0.00500
0.00500
0.00500
0.00500
0.00500
0.00500
0.00125
-0.00375
-0.00874
-0.02123
-0.03622
-0.03997
-0.03247
-0.01124
0.01374
0.02748
0.03372
0.03872
0.03622
0.03122
0.02998
0.02998
0.02998
0.02248
0.01998
0.01998
0.01624
0.00375
-0.02623
-0.06120
-0.01749
0.17735
0.46961
0.67694
0.65571
0.42340
0.15487
-0.01124
-0.05995
-0.05745
-0.04746
-0.04496
-0.04496
-0.04496
-0.04496
-0.04496
-0.04496
-0.05246
-0.05870
-0.05995
-0.05995
-0.06370
-0.06869
-0.06994
-0.07744
-0.08743
-0.09742
-0.10741
-0.11366
-0.11865
-0.13114
-0.14238
-0.15237
-0.16237
-0.17610
-0.18360
-0.19234
-0.19859
-0.20358
-0.20858
-0.20983
-0.20608
-0.20108
-0.19984
-0.19984
-0.18859
-0.17735
-0.16362
-0.14863
-0.11865
-0.08368
-0.05995
-0.04371
-0.02498
-0.00874
-0.00500
-0.00125
0.00749
0.01374
0.00749
0.00500
0.00500
0.00874
0.00624
0.00500
0.00500
0.00500
0.00500
0.00874
0.01374
0.01124
0.00624
0.00500
0.00874
0.01374
0.00749
-0.00624
-0.02123
-0.03247
-0.04246
-0.04496
-0.03747
-0.00624
0.02623
0.04246
0.04122
0.03622
0.03122
0.02623
0.02498
0.02498
0.02498
0.02123
0.01998
0.01624
0.01124
-0.00749
-0.04371
-0.04746
0.07993
0.33722
0.58452
0.64322
0.47586
0.20983
0.01249
-0.06744
-0.07244
-0.06245
-0.05620
-0.05870
-0.05620
-0.05870
-0.06370
-0.06869
-0.06994
-0.06994
-0.06994
-0.07369
-0.07494
-0.07494
-0.08243
-0.08868
-0.09367
-0.09867
-0.10741
-0.11740
-0.12739
-0.13364
-0.14238
-0.15237
-0.16611
-0.17735
-0.18360
-0.19234
-0.19859
-0.20358
-0.20483
-0.20483
-0.20858
-0.20983
-0.20608
-0.20108
-0.19609
-0.18485
-0.16611
-0.14613
-0.12240
-0.09742
-0.07244
-0.04746
-0.02998
-0.01749
-0.00749
0.00250
0.00500
0.00500
0.00874
0.01374
0.01499
0.01499
0.01499
0.01873
0.01998
0.01998
0.01998
0.01998
0.01998
0.01998
0.01998
0.01998
0.01624
0.01499
0.01499
0.01124
0.00000
-0.01873
-0.03247
-0.03497
-0.02873
-0.00749
0.02373
0.04122
0.04496
0.04496
0.04122
0.03997
0.03622
0.03122
0.02998
0.02998
0.02998
0.02998
0.01998
-0.00250
-0.03997
-0.04122
0.09742
0.37344
0.64697
0.73315
0.56578
0.27228
0.04122
-0.05371
-0.06620
-0.05495
-0.04621
-0.04496
-0.04496
-0.04496
-0.04871
-0.05371
-0.05870
-0.06370
-0.06495
-0.06495
-0.06869
-0.06994
-0.07369
-0.08118
-0.09117
-0.10117
-0.10866
-0.11615
-0.12615
-0.13614
-0.14988
-0.16112
-0.17486
-0.18610
-0.19609
-0.20358
-0.20858
-0.20983
-0.20983
-0.20983
-0.20983
-0.20983
-0.21357
-0.21482
-0.21108
-0.20358
-0.18735
-0.16736
-0.14363
-0.11491
-0.08868
-0.06370
-0.04496
-0.02998
-0.01873
-0.00874
-0.00125
0.00375
0.01124
0.01873
0.01624
0.01124
0.00624
0.00500
0.00500
0.01124
0.01499
0.00874
0.00500
0.00874
0.00999
0.00999
0.01374
0.00874
0.00500
0.00125
-0.00375
-0.01124
-0.02748
-0.04122
-0.04871
-0.04371
-0.02123
0.00624
0.02123
0.02873
0.02623
0.02123
0.01998
0.01998
0.01998
0.01624
0.01124
0.00624
0.00500
0.00125
-0.01249
-0.04246
-0.05870
0.03622
0.26478
0.52082
0.63573
0.51957
0.26353
0.03872
-0.06495
-0.07869
-0.06869
-0.06245
-0.05995
-0.05745
-0.05870
-0.06370
-0.06495
-0.06495
-0.06869
-0.07369
-0.07494
-0.07869
-0.08618
-0.09367
-0.09492
-0.09867
-0.10616
-0.11615
-0.12365
-0.13114
-0.13864
-0.14988
-0.16112
-0.17111
-0.18110
-0.19109
-0.19859
-0.20358
-0.20483
-0.20858
-0.20983
-0.20983
-0.20983
-0.20983
-0.20983
-0.20358
-0.19109
-0.17860
-0.16237
-0.13988
-0.11491
-0.08993
-0.06495
-0.04621
-0.02748
-0.01374
-0.00749
-0.00250
0.00250
0.00500
0.00500
0.00500
0.00500
0.00500
0.00500
0.00500
0.00749
0.01249
0.01499
0.01499
0.01499
0.01749
0.01374
0.00749
0.00500
0.00749
0.00999
0.00749
-0.00375
-0.01873
-0.03372
-0.04246
-0.03247
-0.00375
0.02248
0.03622
0.04246
0.04246
0.03747
0.03247
0.02998
0.03247
0.03497
0.03247
0.02748
0.02498
0.01624
-0.00749
-0.04122
-0.02498
0.12615
0.39093
0.63198
0.67944
0.49085
0.20983
0.01124
-0.05995
-0.06120
-0.04871
-0.04746
-0.05246
-0.05246
-0.05246
-0.05745
-0.06245
-0.06495
-0.06495
-0.06495
-0.06744
-0.07244
-0.08118
-0.08743
-0.09242
-0.09492
-0.10117
-0.11116
-0.12115
-0.13114
-0.13739
-0.14863
-0.16112
-0.17111
-0.18110
-0.18735
-0.19609
-0.20233
-0.20483
-0.20483
-0.20733
-0.20983
-0.20983
-0.20733
-0.20233
-0.19734
-0.18610
-0.17111
-0.15362
-0.12739
-0.09742
-0.06994
-0.04871
-0.03122
-0.01624
-0.00375
0.00250
0.00749
0.01249
0.01749
0.01998
0.01998
0.01998
0.01998
0.01998
0.01998
0.01998
0.01998
0.01998
0.01998
0.01998
0.01998
0.01998
0.01749
0.01499
0.01749
0.01749
0.00624
-0.00874
-0.02373
-0.03247
-0.03497
-0.02123
0.00749
0.03122
0.04246
0.04496
0.04496
0.04246
0.03497
0.02998
0.02998
0.02998
0.02998
0.02748
0.02248
0.00874
-0.02498
-0.05620
0.00500
0.22731
0.53081
0.72066
0.65571
0.39467
0.12365
-0.02998
-0.07244
-0.06620
-0.05495
-0.05246
-0.05745
-0.06245
-0.06495
-0.06495
-0.06744
-0.06994
-0.06994
-0.06994
-0.07494
-0.08243
-0.08493
-0.08993
-0.09742
-0.10242
-0.10741
-0.11491
-0.12490
-0.13489
-0.14863
-0.15987
-0.16986
-0.18360
-0.19609
-0.20233
-0.20733
-0.20983
-0.21232
-0.21732
-0.22232
-0.22481
-0.22481
-0.22232
-0.21482
-0.20483
-0.19484
-0.17860
-0.15612
-0.13114
-0.10366
-0.07619
-0.05745
-0.04246
-0.02748
-0.01499
-0.00749
-0.00500
-0.00500
-0.00500
-0.00250
0.00250
0.00500
0.00500
0.00500
0.00500
0.00500
0.00500
0.00500
0.00749
0.00749
0.00500
0.00250
0.00000
0.00000
-0.00250
-0.00749
-0.01998
-0.03747
-0.04496
-0.03997
-0.01873
0.00500
0.02248
0.02998
0.03247
0.03247
0.02498
0.01998
0.01998
0.01998
0.01998
0.01998
0.01749
0.00749
-0.00999
-0.03872
-0.05495
0.02873
0.25854
0.52707
0.65071
0.53831
0.28477
0.05620
-0.05870
-0.07993
-0.06994
-0.06245
-0.05995
-0.05995
-0.06245
-0.06744
-0.06994
-0.07244
-0.07244
-0.07244
-0.07744
-0.07993
-0.08243
-0.08993
-0.09742
-0.09992
-0.10491
-0.11241
-0.11990
-0.12739
-0.13489
-0.14738
-0.16237
-0.17486
-0.18235
-0.18735
-0.19484
-0.20233
-0.20483
-0.20483
-0.20483
-0.20233
-0.19984
-0.19984
-0.19984
-0.19484
-0.18235
-0.16486
-0.14738
-0.12490
-0.09742
-0.07244
-0.04996
-0.02998
-0.01249
-0.00250
0.00250
0.00500
0.00500
0.00749
0.01249
0.00999
0.00500
0.00500
0.00500
0.00500
0.00500
0.00999
0.01499
0.01499
0.01499
0.01749
0.01499
0.00749
0.00500
0.00500
0.00250
-0.00500
-0.01998
-0.03497
-0.03747
-0.02498
0.00000
0.02748
0.04246
0.04496
0.04496
0.04496
0.04246
0.03747
0.03247
0.02748
0.02498
0.02498
0.01998
0.00999
-0.00999
-0.03747
-0.00874
0.15362
0.42215
0.64697
0.66445
0.45837
0.18485
0.00500
-0.05495
-0.05495
-0.04746
-0.04246
-0.04246
-0.04496
-0.04496
-0.04496
-0.04496
-0.04996
-0.05495
-0.05745
-0.05995
-0.06495
-0.06994
-0.06994
-0.07244
-0.07993
-0.08993
-0.09992
-0.10991
-0.11990
-0.12989
-0.13988
-0.15237
-0.16486
-0.17486
-0.17985
-0.18235
-0.18735
-0.19484
-0.19984
-0.19734
-0.19734
-0.19984
-0.19984
-0.19484
-0.18735
-0.17985
-0.16611
-0.14363
-0.11865
-0.09367
-0.06620
-0.04122
-0.02123
-0.00749
0.00000
0.01249
0.01998
0.01998
0.01998
0.01998
0.02248
0.02748
0.02998
0.02998
0.02998
0.02748
0.02248
0.02248
0.02748
0.02998
0.02998
0.02748
0.02498
0.02498
0.02248
0.01749
0.00999
-0.00125
-0.01624
-0.02498
-0.01374
0.01374
0.03872
0.05246
0.05495
0.05495
0.05246
0.04746
0.04496
0.04496
0.04496
0.04496
0.04246
0.03747
0.02873
0.00250
-0.03372
-0.00999
0.15737
0.44713
0.69193
0.71066
0.48710
0.19234
0.00375
-0.05995
-0.05870
-0.04746
-0.04496
-0.04496
-0.04496
-0.04746
-0.05246
-0.05495
-0.05495
-0.05745
-0.06495
-0.06994
-0.06994
-0.06994
-0.07494
-0.08493
-0.09492
-0.10491
-0.11491
-0.12240
-0.12739
-0.13489
-0.14863
-0.16486
-0.17486
-0.18235
-0.18984
-0.19984
-0.20733
-0.20983
-0.21232
-0.21482
-0.21482
-0.21232
-0.20983
-0.20983
-0.20983
-0.20358
-0.18610
-0.16611
-0.13988
-0.10741
-0.07993
-0.05495
-0.03372
-0.02123
-0.01124
-0.00125
0.00500
0.00500
0.00874
0.01499
0.01249
0.00999
0.01249
0.01249
0.00749
0.00500
0.00874
0.01749
0.01998
0.01998
0.01998
0.01749
0.01249
0.01249
0.01124
0.00125
-0.01124
-0.02873
-0.04246
-0.04122
-0.01998
0.01499
0.03872
0.04496
0.03872
0.02998
0.02998
0.02748
0.02248
0.01998
0.02248
0.02498
0.02248
0.01374
-0.00125
-0.02248
-0.03622
0.03497
0.24480
0.50958
0.65446
0.56578
0.30974
0.07369
-0.04496
-0.07119
-0.05870
-0.04746
-0.04496
-0.04496
-0.04496
-0.04746
-0.05246
-0.05745
-0.05995
-0.06245
-0.06744
-0.06994
-0.07369
-0.08243
-0.08493
-0.08743
-0.09242
-0.10117
-0.11366
-0.12365
-0.13364
-0.14363
-0.15362
-0.16237
-0.16861
-0.17860
-0.18735
-0.19234
-0.19734
-0.20233
-0.20483
-0.20483
-0.20483
-0.20358
-0.19984
-0.19609
-0.18610
-0.17361
-0.15737
-0.13364
-0.10491
-0.07993
-0.05495
-0.02998
-0.00874
0.00250
0.00874
0.01749
0.01998
0.01998
0.01998
0.02248
0.02498
0.02498
0.02248
0.01998
0.01998
0.01998
0.02248
0.02498
0.02748
0.02873
0.02373
0.02248
0.02498
0.02373
0.01873
0.00999
-0.00500
-0.01873
-0.02123
-0.00375
0.02623
0.04871
0.05495
0.05371
0.04996
0.04996
0.04871
0.04371
0.03997
0.03997
0.03872
0.03372
0.02623
0.01499
-0.00749
-0.03122
0.02498
0.23730
0.52332
0.71316
0.66445
0.41091
0.13239
-0.02623
-0.06120
-0.04996
-0.03872
-0.03622
-0.04122
-0.04496
-0.04496
-0.04621
-0.05121
-0.05495
-0.05495
-0.05620
-0.06370
-0.06994
-0.06994
-0.07369
-0.08118
-0.08618
-0.09367
-0.10491
-0.11865
-0.12864
-0.13864
-0.14988
-0.16362
-0.17361
-0.18360
-0.19359
-0.20233
-0.20733
-0.20983
-0.21357
-0.22232
-0.22481
-0.22357
-0.21607
-0.20983
-0.20983
-0.20483
-0.18610
-0.15737
-0.12490
-0.09617
-0.07369
-0.05371
-0.03497
-0.01998
-0.00874
-0.00125
0.00500
0.00500
0.00500
0.00500
0.00500
0.00624
0.01124
0.01624
0.01998
0.01998
0.01998
0.01873
0.01499
0.01499
0.01374
0.00874
0.00500
0.00375
0.00000
-0.00500
-0.02373
-0.04122
-0.03872
-0.01124
0.02373
0.04122
0.04122
0.03372
0.02998
0.02873
0.02498
0.02498
0.02498
0.02373
0.01998
0.01873
0.01124
0.00000
-0.01998
-0.03497
0.03497
0.25354
0.51707
0.66071
0.57328
0.32223
0.07619
-0.04996
-0.07619
-0.06620
-0.05870
-0.05495
-0.05495
-0.05371
-0.04996
-0.05121
-0.05620
-0.05995
-0.06120
-0.06620
-0.06994
-0.07119
-0.07869
-0.08618
-0.09117
-0.09617
-0.10491
-0.11615
-0.12365
-0.13114
-0.13988
-0.15487
-0.16861
-0.17610
-0.18110
-0.18859
-0.19609
-0.20108
-0.20483
-0.20483
-0.20483
-0.20483
-0.20358
-0.19984
-0.19859
-0.18984
-0.17486
-0.15862
-0.13614
-0.10616
-0.07619
-0.04871
-0.02873
-0.00999
0.00125
0.00624
0.01124
0.01499
0.01624
0.01998
0.01998
0.01998
0.02123
0.02498
0.02373
0.01998
0.02123
0.02623
0.02998
0.02998
0.02873
0.02498
0.02373
0.01998
0.01873
0.00999
-0.00500
-0.01998
-0.02998
-0.02248
0.00375
0.03247
0.05121
0.05371
0.04871
0.04496
0.04496
0.04496
0.04496
0.04496
0.04496
0.04371
0.03747
0.02748
0.01124
-0.01873
-0.01998
0.10242
0.37094
0.64572
0.73689
0.56453
0.26228
0.03372
-0.05870
-0.06620
-0.05246
-0.04496
-0.04496
-0.04496
-0.04621
-0.05121
-0.05620
-0.05995
-0.06120
-0.06495
-0.06495
-0.06620
-0.07244
-0.08118
-0.08618
-0.09117
-0.09742
-0.10616
-0.11241
-0.12240
-0.13614
-0.15237
-0.16112
-0.16736
-0.17860
-0.19234
-0.20108
-0.20608
-0.20983
-0.21108
-0.21732
-0.22481
-0.22606
-0.22856
-0.22481
-0.22107
-0.20608
-0.18859
-0.16362
-0.13739
-0.10866
-0.08368
-0.05995
-0.04122
-0.02623
-0.01249
-0.00500
-0.00250
0.00624
0.00999
0.00999
0.00999
0.01249
0.01873
0.01499
0.01499
0.01499
0.01374
0.00999
0.01124
0.01374
0.00999
0.00999
0.01249
0.01749
0.00749
-0.00375
-0.01998
-0.03747
-0.04496
-0.03997
-0.01624
0.01499
0.03372
0.04496
0.04371
0.03872
0.03497
0.03372
0.02873
0.02498
0.02498
0.02373
0.01873
0.01249
0.00125
-0.01749
-0.02748
0.06495
0.30350
0.56578
0.66695
0.53206
0.26228
0.04371
-0.05495
-0.06744
-0.05745
-0.04871
-0.04746
-0.05620
-0.05995
-0.05995
-0.05995
-0.06120
-0.06620
-0.06994
-0.07119
-0.07369
-0.07244
-0.08118
-0.08743
-0.09617
-0.10242
-0.11116
-0.11615
-0.12365
-0.13614
-0.14238
-0.15113
-0.15737
-0.16736
-0.17610
-0.18110
-0.18610
-0.19109
-0.19484
-0.19484
-0.19609
-0.19984
-0.19984
-0.19859
-0.19234
-0.18235
-0.16986
-0.14863
-0.12365
-0.09867
-0.07369
-0.04496
-0.02498
-0.00874
-0.00250
0.00749
0.01499
0.01499
0.01374
0.01124
0.01624
0.01998
0.01998
0.01998
0.02123
0.02498
0.02498
0.02498
0.02623
0.02998
0.02748
0.01998
0.02123
0.02373
0.01624
0.00250
-0.00874
-0.02248
-0.02873
-0.01749
0.01749
0.04996
0.06495
0.06245
0.05495
0.05371
0.04871
0.04496
0.04496
0.04371
0.03747
0.02873
0.02498
0.02248
0.00874
-0.02123
-0.02373
0.11241
0.39093
0.66320
0.73689
0.54955
0.25104
0.02748
-0.05745
-0.06120
-0.04371
-0.03997
-0.04122
-0.04496
-0.04496
-0.04621
-0.05121
-0.05371
-0.04996
-0.05246
-0.06120
-0.06620
-0.06994
-0.07244
-0.08243
-0.09117
-0.09742
-0.10616
-0.11241
-0.12739
-0.13739
-0.15237
-0.16237
-0.17236
-0.18110
-0.18735
-0.19734
-0.20608
-0.21108
-0.21607
-0.22107
-0.22481
-0.22481
-0.22481
-0.22357
-0.21857
-0.21108
-0.19234
-0.17361
-0.14488
-0.11865
-0.08868
-0.06120
-0.04246
-0.03247
-0.01749
-0.00375
0.00125
0.00624
0.01124
0.01624
0.01998
0.01998
0.01998
0.01873
0.01499
0.01499
0.01624
0.01998
0.01998
0.01873
0.00999
0.01124
0.01374
0.00874
-0.00250
-0.01873
-0.03622
-0.04371
-0.03497
-0.00874
0.02248
0.03622
0.03997
0.03997
0.03872
0.03372
0.02873
0.02623
0.02998
0.02998
0.02873
0.02373
0.01873
0.00375
-0.02998
-0.02873
0.12615
0.42340
0.69318
0.74938
0.54830
0.23231
0.00749
-0.07494
-0.07244
-0.05870
-0.05620
-0.06120
-0.06370
-0.05995
-0.06120
-0.06620
-0.06994
-0.06994
-0.06994
-0.06994
-0.07119
-0.07619
-0.08618
-0.09117
-0.09617
-0.10616
-0.11615
-0.12739
-0.14113
-0.15113
-0.15612
-0.16611
-0.17610
-0.18735
-0.20108
-0.20983
-0.21108
-0.21607
-0.22107
-0.22606
-0.22981
-0.22981
-0.22481
-0.21982
-0.21482
-0.20733
-0.19234
-0.17111
-0.14488
-0.10991
-0.07619
-0.05121
-0.02873
-0.01873
-0.00874
-0.00375
0.00500
0.00500
0.00624
0.01124
0.01624
0.01998
0.01998
0.01998
0.01998
0.01998
0.01998
0.01998
0.01873
0.00874
0.00500
0.00624
0.00874
0.00250
-0.01249
-0.03247
-0.05121
-0.05745
-0.03872
-0.00125
0.02623
0.02998
0.02873
0.01998
0.02123
0.02373
0.01998
0.01998
0.01873
0.00874
0.00375
-0.00125
-0.00749
-0.02498
-0.05246
-0.01624
0.17610
0.46836
0.68069
0.65321
0.41091
0.13364
-0.04246
-0.08993
-0.08243
-0.06869
-0.06120
-0.06620
-0.06994
-0.06994
-0.06994
-0.06994
-0.06994
-0.07119
-0.07619
-0.08618
-0.09117
-0.09617
-0.10117
-0.11116
-0.11615
-0.12115
-0.12615
-0.13614
-0.14613
-0.15612
-0.16611
-0.17610
-0.18610
-0.19109
-0.20108
-0.20983
-0.20983
-0.21108
-0.21482
-0.21607
-0.21982
-0.21982
-0.21482
-0.20983
-0.20358
-0.18735
-0.16861
-0.15237
-0.12739
-0.10117
-0.07244
-0.04871
-0.03372
-0.02373
-0.00999
-0.00375
0.00500
0.00500
0.00500
0.00500
0.00500
0.00500
0.00500
0.00999
0.00500
0.00500
0.00500
0.00500
0.00999
0.00500
0.00500
0.00999
0.00500
-0.00125
-0.01624
-0.03122
-0.04496
-0.03747
-0.01124
0.02248
0.03997
0.04496
0.03997
0.03497
0.03497
0.02998
0.02498
0.02498
0.02498
0.01998
0.01998
0.01499
0.00749
-0.01749
-0.03622
0.07494
0.33348
0.61449
0.73190
0.58577
0.27977
0.03497
-0.06620
-0.07369
-0.05371
-0.04496
-0.04496
-0.04996
-0.05495
-0.05495
-0.05995
-0.05995
-0.05995
-0.06120
-0.06994
-0.06994
-0.07494
-0.07619
-0.08618
-0.09492
-0.10117
-0.11116
-0.11990
-0.12615
-0.13614
-0.14613
-0.15612
-0.17111
-0.18110
-0.18984
-0.19609
-0.20483
-0.20983
-0.21482
-0.21482
-0.21482
-0.21482
-0.21482
-0.20983
-0.20983
-0.20358
-0.18859
-0.16861
-0.14238
-0.11241
-0.07744
-0.05371
-0.03372
-0.01873
-0.00375
0.00624
0.01499
0.01998
0.01998
0.01998
0.01998
0.01998
0.01998
0.01998
0.01998
0.01998
0.01998
0.01998
0.02498
0.01998
0.01499
0.01499
0.01873
0.00874
-0.01124
-0.02623
-0.03497
-0.03872
-0.02748
0.00250
0.03497
0.03997
0.03997
0.03997
0.02998
0.02498
0.02498
0.02498
0.02498
0.02498
0.01998
0.01499
0.00999
-0.00250
-0.03497
-0.01499
0.16861
0.47461
0.70567
0.69568
0.44713
0.14863
-0.03872
-0.08993
-0.07993
-0.06994
-0.05995
-0.05995
-0.05995
-0.05995
-0.06495
-0.06994
-0.06994
-0.07494
-0.08493
-0.08993
-0.08993
-0.09492
-0.09992
-0.10991
-0.11491
-0.11491
-0.11990
-0.13114
-0.14988
-0.15987
-0.16611
-0.18110
-0.19609
-0.20983
-0.21607
-0.22481
-0.22481
-0.22981
-0.22481
-0.22481
-0.22481
-0.22481
-0.22481
-0.21982
-0.20983
-0.20358
-0.17860
-0.15362
-0.13364
-0.10866
-0.08368
-0.05495
-0.03997
-0.02498
-0.01499
-0.00500
0.00000
0.00000
0.00000
0.00000
0.00500
0.00500
0.00500
0.00500
0.00999
0.00500
0.00000
0.00000
0.00000
-0.00500
-0.00500
-0.00500
-0.00999
-0.02498
-0.03997
-0.04996
-0.04496
-0.02873
0.00125
0.02498
0.02998
0.02998
0.02498
0.02498
0.02498
0.02498
0.02498
0.01998
0.01998
0.01998
0.00999
0.00500
-0.01124
-0.03872
-0.00125
0.19609
0.47461
0.68444
0.64447
0.37469
0.09742
-0.05121
-0.07993
-0.06495
-0.05495
-0.04996
-0.05495
-0.05995
-0.06495
-0.06495
-0.06495
-0.06994
-0.06994
-0.06994
-0.06994
-0.07494
-0.07993
-0.08493
-0.08993
-0.09992
-0.10991
-0.11491
-0.12490
-0.13489
-0.14488
-0.15487
-0.16986
-0.18485
-0.18984
-0.19984
-0.20483
-0.20983
-0.21482
-0.21982
-0.21982
-0.21982
-0.22481
-0.21982
-0.21482
-0.20983
-0.19984
-0.17985
-0.15487
-0.11990
-0.08993
-0.06495
-0.04496
-0.02998
-0.01499
-0.00500
0.00000
0.00500
0.00500
0.00999
0.01499
0.01998
0.01499
0.01499
0.01499
0.01998
0.01998
0.01998
0.01998
0.01998
0.01998
0.01499
0.00500
0.00000
-0.00999
-0.02998
-0.04496
-0.03997
-0.01499
0.01499
0.03497
0.04496
0.04496
0.04496
0.03497
0.02998
0.02498
0.02498
0.02498
0.02498
0.02498
0.01998
0.00999
-0.00999
-0.03997
0.03372
0.28102
0.58452
0.74688
0.62698
0.32099
0.05495
-0.05745
-0.06994
-0.05495
-0.04996
-0.04996
-0.04996
-0.05995
-0.05995
-0.05995
-0.05995
-0.06495
-0.06994
-0.07494
-0.07494
-0.07993
-0.08493
-0.09492
-0.09492
-0.10491
-0.11491
-0.12490
-0.13489
-0.14988
-0.15987
-0.17486
-0.17985
-0.18984
-0.20483
-0.20983
-0.21982
-0.22481
-0.22481
-0.22981
-0.22981
-0.22981
-0.23481
-0.23481
-0.22481
-0.21482
-0.20108
-0.18110
-0.15612
-0.12115
-0.09117
-0.06620
-0.04996
-0.03122
-0.01499
-0.00500
0.00000
0.00500
0.00500
0.00999
0.01499
0.01998
0.01499
0.00999
0.00999
0.01499
0.01998
0.01998
0.01998
0.01998
0.01998
0.00999
0.00000
-0.00999
-0.02373
-0.03872
-0.04496
-0.03122
0.00375
0.02873
0.04371
0.04496
0.04496
0.03997
0.02998
0.02998
0.02498
0.02498
0.02498
0.01998
0.01998
0.00999
-0.00375
-0.03872
-0.01624
0.16986
0.46337
0.71191
0.72066
0.46961
0.16237
-0.02998
-0.08243
-0.07619
-0.06120
-0.05995
-0.06994
-0.06994
-0.06994
-0.06994
-0.06994
-0.06994
-0.06994
-0.07494
-0.07993
-0.08493
-0.08993
-0.09492
-0.10491
-0.11491
-0.11990
-0.12989
-0.14363
-0.15487
-0.16486
-0.17486
-0.18859
-0.19984
-0.20483
-0.21482
-0.22481
-0.22981
-0.23481
-0.24480
-0.24979
-0.24979
-0.24979
-0.24105
-0.23481
-0.23481
-0.22107
-0.19734
-0.17236
-0.14738
-0.11241
-0.08243
-0.06120
-0.04122
-0.02623
-0.01624
-0.00999
-0.00500
-0.00500
-0.00500
0.00000
-0.00500
-0.00500
0.00000
0.00500
0.00500
0.00500
0.00500
0.00500
0.00500
0.00500
0.00500
0.00000
-0.00874
-0.02373
-0.03372
-0.03997
-0.03122
-0.00250
0.02748
0.04371
0.03622
0.02998
0.02998
0.03497
0.02998
0.02998
0.02498
0.02498
0.01998
0.01998
0.01124
0.00125
-0.02748
-0.03497
0.10991
0.40217
0.67569
0.72315
0.50209
0.20358
0.00250
-0.06495
-0.06994
-0.05620
-0.04621
-0.04996
-0.05870
-0.05995
-0.05995
-0.05995
-0.06869
-0.06994
-0.07494
-0.07494
-0.07993
-0.08868
-0.09492
-0.09492
-0.10366
-0.11366
-0.12365
-0.13364
-0.14363
-0.15862
-0.16861
-0.18360
-0.20233
-0.20983
-0.21482
-0.22357
-0.22481
-0.22981
-0.22981
-0.22981
-0.23481
-0.23980
-0.23980
-0.23606
-0.23106
-0.21607
-0.20108
-0.17361
-0.14363
-0.11366
-0.08368
-0.06245
-0.04621
-0.03622
-0.02998
-0.02123
-0.01124
-0.00125
0.00500
0.00500
0.00500
0.00000
-0.00500
0.00000
0.00000
0.00500
0.00500
0.00500
0.00500
0.00500
0.00500
0.00000
-0.00874
-0.02373
-0.03872
-0.05371
-0.05121
-0.02373
0.00624
0.02373
0.02998
0.02998
0.02623
0.02123
0.01998
0.01998
0.01998
0.01624
0.01499
0.01124
0.00624
0.00125
-0.01749
-0.04122
0.03372
0.26728
0.54830
0.68568
0.56953
0.28851
0.04621
-0.06744
-0.07993
-0.06744
-0.06120
-0.05995
-0.05995
-0.06495
-0.06994
-0.06994
-0.06620
-0.06994
-0.06994
-0.07494
-0.07494
-0.08368
-0.09367
-0.09492
-0.09992
-0.10491
-0.11366
-0.12365
-0.13739
-0.15237
-0.16362
-0.17361
-0.17985
-0.18859
-0.19859
-0.20483
-0.20483
-0.20983
-0.21482
-0.21982
-0.21607
-0.21108
-0.20983
-0.20983
-0.20983
-0.19734
-0.18235
-0.15862
-0.13364
-0.10491
-0.07494
-0.05246
-0.03747
-0.02248
-0.01124
-0.00125
0.00375
0.00500
0.00500
0.00500
0.00500
0.00874
0.01374
0.01873
0.01624
0.01499
0.01873
0.01624
0.00624
0.00500
0.00874
0.00624
0.00125
-0.01249
-0.02748
-0.03872
-0.03997
-0.01873
0.01499
0.03622
0.04371
0.04496
0.04496
0.04496
0.04122
0.03622
0.03122
0.02998
0.02623
0.02123
0.01998
0.01624
-0.00125
-0.03372
-0.00250
0.18485
0.47461
0.70067
0.68943
0.44214
0.14988
-0.02873
-0.07619
-0.06370
-0.05121
-0.04996
-0.05371
-0.05495
-0.05870
-0.05995
-0.06370
-0.06495
-0.06495
-0.06869
-0.07369
-0.07869
-0.08368
-0.08868
-0.09367
-0.10366
-0.11366
-0.12365
-0.13739
-0.14863
-0.15862
-0.16861
-0.17860
-0.19234
-0.20358
-0.20858
-0.21357
-0.22357
-0.22481
-0.22856
-0.22981
-0.22981
-0.22981
-0.22606
-0.22481
-0.21732
-0.20733
-0.18485
-0.15987
-0.12615
-0.09617
-0.06994
-0.05246
-0.03747
-0.02248
-0.01249
-0.00250
0.00375
0.00500
0.00500
0.00874
0.00999
0.00999
0.01374
0.01499
0.01124
0.01374
0.01499
0.01124
0.00624
0.00500
0.00874
0.00624
-0.00250
-0.02123
-0.03747
-0.04371
-0.03747
-0.01124
0.01873
0.03747
0.03997
0.03622
0.03122
0.03372
0.03122
0.02998
0.02998
0.03372
0.03122
0.02248
0.01249
0.00250
-0.02373
-0.04996
0.03622
0.28726
0.57952
0.71566
0.58327
0.29850
0.05620
-0.05745
-0.07494
-0.07119
-0.06245
-0.05995
-0.06744
-0.06994
-0.06994
-0.06620
-0.06120
-0.06370
-0.06869
-0.07369
-0.08243
-0.08493
-0.09242
-0.09867
-0.10741
-0.11740
-0.11990
-0.12739
-0.13364
-0.14238
-0.14863
-0.15362
-0.15862
-0.16736
-0.17361
-0.18735
-0.20233
-0.20858
-0.21357
-0.21108
-0.20983
-0.20983
-0.20983
-0.20233
-0.19234
-0.18610
-0.18485
-0.17361
-0.15113
-0.12115
-0.09992
-0.07993
-0.05995
-0.04371
-0.03622
-0.02748
-0.02123
-0.01624
-0.01124
-0.00624
-0.00500
-0.00500
-0.00500
-0.00500
-0.00500
-0.00500
-0.00500
-0.00500
-0.00500
-0.00500
-0.00500
-0.00500
-0.00874
-0.01749
-0.03497
-0.04746
-0.04996
-0.03872
-0.00874
0.01499
0.02748
0.02998
0.02623
0.02498
0.02498
0.02498
0.02498
0.02123
0.01998
0.01624
0.01124
0.00250
-0.01124
-0.03747
-0.04871
0.06370
0.31974
0.59826
0.71066
0.56578
0.27977
0.03872
-0.06744
-0.07744
-0.06744
-0.06120
-0.05995
-0.06370
-0.06495
-0.06495
-0.06495
-0.06869
-0.06994
-0.07369
-0.07494
-0.07869
-0.08368
-0.09242
-0.09492
-0.10242
-0.11241
-0.11865
-0.12739
-0.13739
-0.14738
-0.16112
-0.17236
-0.18235
-0.19234
-0.20233
-0.20858
-0.21732
-0.22731
-0.22981
-0.22981
-0.22981
-0.22981
-0.23356
-0.23106
-0.22606
-0.21732
-0.20358
-0.18110
-0.15237
-0.11865
-0.08743
-0.06495
-0.04496
-0.02873
-0.02123
-0.01249
-0.00624
-0.00500
-0.00500
-0.00500
-0.00500
-0.00500
-0.00125
-0.00375
-0.00500
-0.00125
0.00000
0.00000
-0.00375
-0.00125
0.00000
-0.00375
-0.00500
-0.01249
-0.02623
-0.04122
-0.04122
-0.02123
0.00999
0.03497
0.04371
0.04496
0.04122
0.03622
0.03497
0.03497
0.03122
0.02998
0.02998
0.02623
0.02498
0.01749
0.00375
-0.02873
-0.02248
0.12989
0.40092
0.63697
0.65946
0.45463
0.18235
-0.00250
-0.06245
-0.06245
-0.05246
-0.04996
-0.05371
-0.05495
-0.05495
-0.05495
-0.05121
-0.05371
-0.05870
-0.06370
-0.06869
-0.06994
-0.07369
-0.08243
-0.08868
-0.09367
-0.10242
-0.11241
-0.12240
-0.13239
-0.14238
-0.15237
-0.16611
-0.17361
-0.18235
-0.18859
-0.20108
-0.20483
-0.20858
-0.20983
-0.21357
-0.21857
-0.21607
-0.21108
-0.20983
-0.20358
-0.18984
-0.17486
-0.14863
-0.11491
-0.08743
-0.06245
-0.04122
-0.02123
-0.00500
0.00999
0.01873
0.02373
0.02873
0.02998
0.02623
0.02498
0.02873
0.02998
0.02998
0.02623
0.02498
0.02498
0.02498
0.02498
0.02498
0.02498
0.02123
0.01249
0.00250
-0.00749
-0.01998
-0.02873
-0.01998
0.00874
0.03747
0.05246
0.05495
0.05870
0.05620
0.04871
0.04496
0.04122
0.04371
0.04122
0.03372
0.02623
0.02123
0.01374
-0.01374
-0.01124
0.11865
0.37344
0.61824
0.67319
0.48710
0.20733
0.00624
-0.06869
-0.06994
-0.05495
-0.04996
-0.05371
-0.05121
-0.04996
-0.05620
-0.05995
-0.05995
-0.05995
-0.06370
-0.06869
-0.07369
-0.08118
-0.08868
-0.09367
-0.10117
-0.10866
-0.11615
-0.11990
-0.12615
-0.13614
-0.14988
-0.16486
-0.17610
-0.18360
-0.19109
-0.19859
-0.19984
-0.19984
-0.19609
-0.19859
-0.20358
-0.20483
-0.20483
-0.20108
-0.19359
-0.17985
-0.16112
-0.13864
-0.11366
-0.08493
-0.05870
-0.03997
-0.02498
-0.01374
-0.00624
0.00125
0.00500
0.00500
0.00874
0.01374
0.01499
0.01499
0.01499
0.01873
0.01998
0.01998
0.01998
0.01998
0.01624
0.01499
0.01499
0.01124
0.00624
-0.00125
-0.01499
-0.02998
-0.03497
-0.02873
-0.00500
0.02123
0.03997
0.04122
0.03997
0.03997
0.03997
0.03372
0.02998
0.03372
0.03872
0.03372
0.02623
0.02123
0.01374
-0.01249
-0.02123
0.07993
0.31849
0.57827
0.67819
0.53956
0.27602
0.05870
-0.03997
-0.05371
-0.04371
-0.03622
-0.03872
-0.03997
-0.03997
-0.04371
-0.04496
-0.04871
-0.04996
-0.05371
-0.06120
-0.06869
-0.07369
-0.07869
-0.08618
-0.09367
-0.09867
-0.10616
-0.11615
-0.12989
-0.14488
-0.15612
-0.16362
-0.17486
-0.18360
-0.19109
-0.20108
-0.21108
-0.21857
-0.22357
-0.22481
-0.22856
-0.22981
-0.22731
-0.22481
-0.21857
-0.20858
-0.18984
-0.16486
-0.13988
-0.11491
-0.08368
-0.05121
-0.03122
-0.01873
-0.00874
-0.00250
0.00250
0.00500
0.00500
0.00749
0.00749
0.00250
0.00000
0.00250
0.00500
0.00500
0.00749
0.01249
0.01749
0.01749
0.00874
0.00500
0.00749
0.00999
0.00749
-0.00375
-0.02248
-0.03622
-0.03372
-0.01124
0.01873
0.03622
0.03372
0.02998
0.02998
0.02748
0.02498
0.02498
0.02498
0.02248
0.01749
0.01249
0.00749
0.00250
-0.01873
-0.02998
0.06744
0.29101
0.52831
0.62449
0.49959
0.24480
0.03247
-0.06495
-0.07619
-0.06120
-0.04871
-0.04496
-0.04746
-0.05620
-0.05995
-0.05995
-0.05995
-0.05995
-0.06245
-0.06744
-0.06994
-0.07244
-0.07494
-0.08118
-0.09117
-0.10117
-0.11116
-0.12115
-0.13114
-0.14113
-0.14738
-0.15237
-0.16112
-0.17111
-0.17735
-0.18235
-0.19109
-0.19859
-0.19984
-0.19984
-0.19984
-0.19734
-0.19234
-0.18735
-0.18235
-0.17111
-0.15362
-0.13364
-0.11366
-0.08993
-0.06495
-0.04621
-0.03372
-0.02373
-0.01124
0.00125
0.00500
0.00500
0.00749
0.00999
0.00749
0.00500
0.01124
0.02123
0.02248
0.01998
0.02248
0.02248
0.01749
0.01249
0.00999
0.01249
0.00874
0.00250
-0.00624
-0.01873
-0.03122
-0.03497
-0.02373
0.00500
0.02873
0.03747
0.03747
0.03497
0.03247
0.02998
0.02998
0.02998
0.02748
0.02498
0.02498
0.02248
0.01749
0.00125
-0.02748
-0.00874
0.13988
0.39218
0.59576
0.60575
0.41965
0.17361
0.00500
-0.05371
-0.04871
-0.03372
-0.03247
-0.03497
-0.03497
-0.03497
-0.03747
-0.03997
-0.03997
-0.03997
-0.04246
-0.05121
-0.05745
-0.05995
-0.06245
-0.06744
-0.07244
-0.07744
-0.08618
-0.09867
-0.11366
-0.12615
-0.13239
-0.14363
-0.15612
-0.16861
-0.18110
-0.18485
-0.18735
-0.18984
-0.19234
-0.19484
-0.19734
-0.19984
-0.19984
-0.19984
-0.19109
-0.17610
-0.15612
-0.12864
-0.10117
-0.07619
-0.05121
-0.03122
-0.01998
-0.00999
0.00000
0.00999
0.01749
0.01998
0.02248
0.02498
0.02748
0.02998
0.02998
0.02998
0.02748
0.02248
0.01998
0.01998
0.01749
0.01499
0.01499
0.01749
0.01998
0.02248
0.02248
0.01249
-0.00624
-0.02873
-0.04246
-0.03747
-0.01624
0.01374
0.03747
0.04496
0.04496
0.03997
0.03247
0.02748
0.02248
0.01749
0.01499
0.01499
0.01749
0.01499
0.00500
-0.01374
-0.03247
0.01374
0.18984
0.44338
0.61324
0.57078
0.34721
0.10616
-0.02998
-0.06495
-0.06245
-0.05495
-0.05246
-0.05495
-0.05745
-0.05995
-0.05745
-0.05495
-0.05745
-0.06495
-0.06994
-0.06994
-0.07494
-0.08243
-0.08493
-0.08743
-0.09242
-0.10242
-0.10991
-0.11491
-0.12739
-0.14238
-0.15237
-0.15737
-0.16486
-0.17486
-0.18485
-0.18984
-0.18984
-0.19234
-0.19484
-0.19484
-0.19484
-0.19484
-0.19234
-0.18735
-0.17985
-0.16486
-0.14238
-0.11740
-0.09242
-0.06994
-0.04996
-0.03247
-0.01749
-0.00250
0.00999
0.01749
0.01998
0.01998
0.01998
0.01998
0.02248
0.02748
0.02748
0.02748
0.02998
0.02998
0.02998
0.02998
0.03247
0.03497
0.03247
0.02998
0.02998
0.02998
0.02748
0.02248
0.01749
0.00749
-0.00749
-0.02248
-0.02748
-0.01499
0.00999
0.03497
0.04746
0.04746
0.04496
0.04496
0.04496
0.04496
0.04246
0.03497
0.02998
0.02998
0.02998
0.02498
0.00500
-0.02748
-0.01998
0.11865
0.38718
0.64572
0.71316
0.53081
0.23855
0.01873
-0.06744
-0.07244
-0.05995
-0.05246
-0.04746
-0.04996
-0.05745
-0.05995
-0.05745
-0.05246
-0.05495
-0.06495
-0.07244
-0.07744
-0.08493
-0.09242
-0.09742
-0.10242
-0.10991
-0.11740
-0.12490
-0.13489
-0.14488
-0.15487
-0.16486
-0.17486
-0.18485
-0.19484
-0.20233
-0.20483
-0.20733
-0.20983
-0.20983
-0.20983
-0.20983
-0.20983
-0.20983
-0.20483
-0.19109
-0.16861
-0.14613
-0.12365
-0.09867
-0.07619
-0.05745
-0.04246
-0.02748
-0.01499
-0.00749
-0.00250
0.00250
0.00500
0.00749
0.01249
0.01249
0.00999
0.01249
0.01749
0.01998
0.01749
0.01249
0.00999
0.01249
0.01749
0.01749
0.01249
0.01249
0.01749
0.01749
0.00999
0.00500
0.00500
0.00000
-0.01374
-0.02998
-0.02873
-0.01124
0.01374
0.03497
0.04246
0.04246
0.03497
0.02998
0.02998
0.02998
0.02998
0.02998
0.02998
0.02998
0.02498
0.01374
-0.00874
-0.03372
0.00000
0.16986
0.43464
0.63198
0.61824
0.39967
0.14613
-0.00624
-0.04996
-0.04746
-0.03997
-0.03497
-0.03497
-0.03497
-0.03747
-0.03747
-0.03497
-0.03997
-0.04496
-0.04746
-0.05246
-0.05745
-0.06495
-0.06994
-0.06994
-0.07494
-0.08493
-0.09492
-0.10491
-0.11491
-0.12615
-0.13988
-0.14988
-0.15987
-0.16986
-0.17735
-0.18235
-0.18984
-0.19734
-0.19984
-0.19984
-0.20233
-0.20733
-0.20983
-0.20983
-0.20733
-0.19859
-0.18360
-0.16237
-0.13239
-0.10366
-0.07869
-0.05371
-0.03122
-0.01374
-0.00125
0.01124
0.01998
0.01624
0.00749
0.00749
0.01249
0.01749
0.01998
0.01998
0.01998
0.01749
0.01499
0.01499
0.01749
0.01998
0.01998
0.01998
0.02248
0.02248
0.01998
0.01998
0.01749
0.01249
0.00624
-0.00874
-0.02623
-0.03247
-0.01998
0.00749
0.03372
0.04496
0.04246
0.03622
0.02998
0.02748
0.02498
0.02248
0.01998
0.01998
0.01998
0.01624
0.00375
-0.01499
-0.03872
-0.01124
0.14613
0.40092
0.60325
0.60325
0.39842
0.13988
-0.02123
-0.06744
-0.06370
-0.05121
-0.04496
-0.04496
-0.04496
-0.04496
-0.04496
-0.04746
-0.05371
-0.05995
-0.05995
-0.06245
-0.06744
-0.06994
-0.07244
-0.07494
-0.07869
-0.08868
-0.09742
-0.10366
-0.11366
-0.12365
-0.13364
-0.14363
-0.15362
-0.16611
-0.17860
-0.18485
-0.18859
-0.19734
-0.19984
-0.19984
-0.19984
-0.19984
-0.19984
-0.19609
-0.18610
-0.17361
-0.15737
-0.13489
-0.10991
-0.08493
-0.05995
-0.03497
-0.01374
-0.00250
0.00250
0.00874
0.01749
0.02248
0.02748
0.02998
0.02998
0.03247
0.03247
0.02998
0.02748
0.02248
0.01998
0.01998
0.02248
0.02748
0.02748
0.02498
0.02498
0.02498
0.02248
0.01998
0.01624
0.00749
-0.00125
-0.01624
-0.02873
-0.03747
-0.03372
-0.01124
0.01998
0.03872
0.04496
0.04496
0.04496
0.04496
0.04122
0.03372
0.02998
0.02998
0.02998
0.02623
0.01624
-0.00125
-0.03622
-0.04996
0.05371
0.30350
0.59201
0.72565
0.59576
0.30850
0.06245
-0.04621
-0.06120
-0.05121
-0.04122
-0.03622
-0.04122
-0.04496
-0.04621
-0.04996
-0.05371
-0.06245
-0.06495
-0.06495
-0.06744
-0.06994
-0.06994
-0.07369
-0.08368
-0.09367
-0.10366
-0.11241
-0.11865
-0.12989
-0.14738
-0.16362
-0.17486
-0.18735
-0.19234
-0.19734
-0.20233
-0.20858
-0.21857
-0.22731
-0.22981
-0.22981
-0.22981
-0.22856
-0.22357
-0.21607
-0.20233
-0.18110
-0.15237
-0.12115
-0.09742
-0.07619
-0.05246
-0.03622
-0.02623
-0.01873
-0.01124
-0.00500
-0.00375
0.00125
0.00624
0.00999
0.00999
0.00999
0.01374
0.01998
0.01998
0.01998
0.01998
0.01624
0.00874
0.00375
0.00125
0.00624
0.00874
0.00375
-0.00125
-0.00874
-0.02123
-0.03872
-0.04496
-0.03872
-0.01499
0.00999
0.01998
0.01998
0.02373
0.02998
0.02873
0.02498
0.02498
0.02373
0.01873
0.01374
0.00874
0.00125
-0.01374
-0.04122
-0.04871
0.05620
0.29351
0.53831
0.62573
0.47836
0.22357
0.01998
-0.06495
-0.07119
-0.06120
-0.05371
-0.04996
-0.05371
-0.05995
-0.05995
-0.05995
-0.05995
-0.06120
-0.06620
-0.06994
-0.06994
-0.07119
-0.07619
-0.08118
-0.08868
-0.09867
-0.10866
-0.11491
-0.11865
-0.12989
-0.14363
-0.15362
-0.16112
-0.16986
-0.18110
-0.18859
-0.19609
-0.19984
-0.20108
-0.20483
-0.20483
-0.20483
-0.20358
-0.19734
-0.18859
-0.18235
-0.16861
-0.14863
-0.12739
-0.10117
-0.07244
-0.04871
-0.02873
-0.00999
0.00125
0.00624
0.01249
0.02123
0.02623
0.02998
0.02873
0.02498
0.02498
0.02498
0.02498
0.02498
0.02498
0.02623
0.02998
0.03122
0.03497
0.03372
0.02873
0.02498
0.02373
0.01873
0.01249
0.00250
-0.00999
-0.02498
-0.03372
-0.02248
0.00500
0.03622
0.05121
0.05371
0.04996
0.04871
0.04496
0.04496
0.04496
0.04371
0.03872
0.03372
0.02873
0.01998
0.00000
-0.03372
-0.02248
0.13739
0.42465
0.67694
0.71691
0.50958
0.21607
0.00749
-0.06120
-0.05870
-0.04246
-0.03622
-0.04122
-0.04496
-0.04496
-0.04496
-0.04496
-0.04496
-0.04621
-0.05246
-0.06120
-0.06495
-0.06620
-0.07119
-0.07744
-0.08618
-0.09242
-0.10242
-0.11241
-0.12240
-0.13239
-0.14363
-0.15737
-0.16736
-0.17735
-0.18735
-0.19734
-0.20733
-0.21482
-0.21607
-0.22107
-0.22606
-0.22981
-0.22856
-0.22357
-0.21732
-0.20483
-0.18610
-0.16986
-0.14488
-0.11241
-0.08368
-0.05995
-0.04246
-0.03247
-0.02123
-0.00874
-0.00250
0.00624
0.01124
0.01374
0.00999
0.01124
0.01624
0.01749
0.00874
0.00500
0.00624
0.01124
0.01499
0.01499
0.01624
0.01873
0.01249
0.00500
0.00500
0.00500
0.00250
-0.00749
-0.01873
-0.03247
-0.04122
-0.04122
-0.02123
0.01249
0.03747
0.04496
0.04371
0.03997
0.03747
0.02998
0.02998
0.03122
0.03497
0.03372
0.02998
0.02623
0.00999
-0.01374
-0.03622
0.02248
0.23356
0.50458
0.65946
0.58202
0.32473
0.07619
-0.04746
-0.06620
-0.05246
-0.04496
-0.04496
-0.04496
-0.04496
-0.04496
-0.04621
-0.05121
-0.05620
-0.05995
-0.06120
-0.06620
-0.06994
-0.07244
-0.08118
-0.08618
-0.09117
-0.09617
-0.10366
-0.11740
-0.12739
-0.13614
-0.14238
-0.15362
-0.16736
-0.17735
-0.18610
-0.19234
-0.19984
-0.19859
-0.19609
-0.19984
-0.19984
-0.19859
-0.19359
-0.18859
-0.18360
-0.17486
-0.15487
-0.13364
-0.10741
-0.07869
-0.05495
-0.03622
-0.02123
-0.00749
0.00250
0.01249
0.01998
0.01998
0.02123
0.02498
0.02373
0.01998
0.02123
0.02498
0.02623
0.02998
0.02998
0.02998
0.02998
0.02873
0.02498
0.02373
0.01998
0.02123
0.02373
0.01873
0.01124
-0.00500
-0.01998
-0.01998
-0.01499
0.00500
0.02998
0.05121
0.05495
0.05371
0.04996
0.04996
0.04871
0.04496
0.04371
0.03997
0.03872
0.03372
0.02748
0.01499
-0.01374
-0.03122
0.07119
0.32473
0.59701
0.71441
0.57702
0.28851
0.05246
-0.05371
-0.06245
-0.04621
-0.03497
-0.03497
-0.03622
-0.03997
-0.03997
-0.04122
-0.04621
-0.05121
-0.05620
-0.06120
-0.06620
-0.07119
-0.07494
-0.07619
-0.08118
-0.08743
-0.09617
-0.10366
-0.11740
-0.12864
-0.14238
-0.15237
-0.16362
-0.17735
-0.18610
-0.19234
-0.20233
-0.21108
-0.21482
-0.21482
-0.21607
-0.21982
-0.21982
-0.21857
-0.21357
-0.20858
-0.19984
-0.17486
-0.14988
-0.12490
-0.09992
-0.07369
-0.04621
-0.02748
-0.01249
-0.00250
0.00749
0.01624
0.01998
0.01998
0.01998
0.01998
0.01998
0.01998
0.01998
0.01998
0.01998
0.01998
0.01998
0.01998
0.01998
0.01998
0.01873
0.01374
0.01124
0.01624
0.01998
0.01624
-0.00250
-0.01624
-0.02623
-0.03622
-0.03872
-0.02248
0.01499
0.04122
0.04496
0.04496
0.04371
0.03872
0.02873
0.02373
0.01998
0.02123
0.02373
0.01998
0.01873
0.01249
-0.00624
-0.03122
0.02248
0.22606
0.49959
0.65571
0.57203
0.31974
0.07619
-0.04496
-0.06744
-0.05371
-0.04496
-0.04496
-0.04496
-0.04496
-0.04621
-0.05121
-0.05620
-0.06120
-0.06620
-0.06994
-0.07119
-0.07619
-0.08118
-0.08618
-0.09117
-0.10117
-0.10991
-0.11116
-0.11740
-0.13114
-0.14113
-0.15113
-0.16112
-0.17236
-0.18610
-0.19109
-0.20108
-0.20483
-0.20483
-0.20358
-0.19984
-0.20108
-0.20483
-0.20483
-0.19984
-0.19234
-0.17735
-0.15737
-0.13614
-0.11241
-0.09242
-0.07244
-0.05246
-0.03747
-0.02248
-0.00874
-0.00375
0.00500
0.00624
0.01124
0.01998
0.01998
0.01998
0.01998
0.01998
0.01998
0.01998
0.01998
0.02123
0.02498
0.02498
0.02373
0.01998
0.01998
0.01998
0.01873
0.01374
0.00874
-0.00125
-0.01249
-0.02623
-0.03497
-0.03247
-0.00999
0.02248
0.04122
0.04496
0.04371
0.03872
0.02998
0.02998
0.02873
0.02498
0.02498
0.02373
0.01873
0.01249
-0.00375
-0.02998
-0.04996
0.04871
0.30100
0.58702
0.71566
0.58577
0.29476
0.05371
-0.05745
-0.06744
-0.04871
-0.04122
-0.04621
-0.05121
-0.05495
-0.05495
-0.05620
-0.06120
-0.06495
-0.06495
-0.06120
-0.06994
-0.06994
-0.06994
-0.07119
-0.08118
-0.09117
-0.09617
-0.10616
-0.11615
-0.12615
-0.13614
-0.14738
-0.16112
-0.17111
-0.18110
-0.18610
-0.19609
-0.20608
-0.21108
-0.21482
-0.21482
-0.20983
-0.20983
-0.20983
-0.20483
-0.19984
-0.19359
-0.17735
-0.15237
-0.12739
-0.10117
-0.07244
-0.04746
-0.02748
-0.00874
0.00125
0.00999
0.01499
0.01998
0.01998
0.01998
0.02498
0.02998
0.02998
0.02498
0.02498
0.01998
0.01998
0.02498
0.02998
0.02998
0.02998
0.02998
0.02498
0.01998
0.01998
0.01998
0.01998
0.01998
0.01873
0.00375
-0.01124
-0.02623
-0.03997
-0.04371
-0.02623
0.00749
0.03122
0.04496
0.04496
0.03997
0.03497
0.02998
0.02498
0.01998
0.01998
0.01998
0.01998
0.01873
0.00749
-0.01374
-0.05371
-0.02123
0.18485
0.49834
0.71941
0.69068
0.42590
0.12240
-0.04871
-0.08868
-0.07869
-0.06495
-0.05995
-0.05995
-0.05995
-0.06495
-0.06994
-0.07119
-0.07993
-0.07993
-0.07494
-0.07494
-0.07619
-0.08618
-0.09492
-0.10117
-0.10991
-0.11491
-0.12115
-0.13114
-0.14113
-0.15487
-0.15987
-0.16611
-0.17610
-0.19109
-0.20108
-0.20983
-0.21482
-0.21982
-0.22481
-0.22981
-0.22481
-0.22481
-0.22481
-0.21982
-0.20983
-0.20358
-0.18984
-0.17860
-0.15237
-0.11865
-0.09367
-0.07369
-0.05371
-0.03372
-0.01998
-0.01499
-0.00999
-0.00500
0.00000
0.00500
0.00500
0.00500
0.00500
0.00500
0.00500
0.00500
0.00500
0.00500
0.00500
0.00500
0.00500
0.00999
0.00500
0.00500
0.00500
0.00000
-0.00500
-0.00624
-0.01624
-0.03122
-0.04496
-0.04996
-0.03872
-0.01374
0.01624
0.02998
0.03497
0.02998
0.02998
0.02998
0.02998
0.02998
0.01998
0.01998
0.01998
0.01998
0.00999
-0.00125
-0.02123
-0.04122
0.04746
0.28477
0.55704
0.68319
0.55454
0.27228
0.03997
-0.05495
-0.06495
-0.05495
-0.04496
-0.04496
-0.04496
-0.04996
-0.05495
-0.04996
-0.05495
-0.05995
-0.05995
-0.05995
-0.06495
-0.06994
-0.06994
-0.07993
-0.08493
-0.09492
-0.10491
-0.11491
-0.11990
-0.12615
-0.14113
-0.15487
-0.16486
-0.17486
-0.18485
-0.19484
-0.19984
-0.20983
-0.20983
-0.21482
-0.21982
-0.22481
-0.22481
-0.22481
-0.22481
-0.20983
-0.19984
-0.18485
-0.16362
-0.12864
-0.10366
-0.07869
-0.05371
-0.02873
-0.00999
-0.00500
0.00500
0.01499
0.01998
0.01499
0.01499
0.01499
0.01998
0.01998
0.01998
0.01998
0.01998
0.01998
0.01998
0.01998
0.02498
0.02498
0.01998
0.01998
0.02498
0.01998
0.01998
0.01499
0.00500
0.00000
-0.01499
-0.03497
-0.03997
-0.03497
-0.00375
0.02998
0.04996
0.04996
0.03997
0.03997
0.03997
0.04496
0.03497
0.02998
0.02498
0.02498
0.02498
0.01998
0.00000
-0.03497
-0.04746
0.09492
0.39967
0.68568
0.75688
0.54580
0.23231
0.00874
-0.06994
-0.06994
-0.05495
-0.04496
-0.04996
-0.05995
-0.05995
-0.05995
-0.05995
-0.06495
-0.06994
-0.07494
-0.07494
-0.07494
-0.08493
-0.08493
-0.08993
-0.09492
-0.10991
-0.11990
-0.12490
-0.13489
-0.14488
-0.15487
-0.16486
-0.17985
-0.18984
-0.20483
-0.20983
-0.21482
-0.22481
-0.22981
-0.23481
-0.23481
-0.23481
-0.22981
-0.22481
-0.22481
-0.22481
-0.20983
-0.18485
-0.15487
-0.13489
-0.11491
-0.07993
-0.05495
-0.03997
-0.02498
-0.01998
-0.00500
0.00000
0.00000
0.00000
0.00500
0.00999
0.01998
0.01998
0.01998
0.01998
0.01499
0.00999
0.01499
0.00999
0.00500
0.00500
0.01998
0.02498
0.01499
0.00500
0.00000
-0.00500
-0.00500
-0.01499
-0.02498
-0.03997
-0.04496
-0.02998
0.00375
0.02498
0.02998
0.02998
0.02998
0.02998
0.02998
0.02498
0.01998
0.01998
0.01998
0.01499
0.00999
0.00000
-0.01499
-0.03997
-0.01124
0.16986
0.44713
0.65946
0.64572
0.41216
0.13239
-0.03497
-0.07369
-0.06495
-0.04996
-0.04496
-0.04496
-0.05495
-0.05995
-0.06994
-0.06994
-0.06495
-0.06495
-0.06495
-0.06994
-0.06994
-0.07993
-0.08493
-0.08493
-0.09492
-0.09992
-0.10991
-0.11990
-0.12989
-0.13988
-0.14988
-0.16486
-0.17985
-0.18485
-0.18984
-0.19984
-0.20483
-0.20483
-0.20483
-0.20983
-0.20983
-0.20983
-0.20983
-0.20983
-0.19984
-0.18984
-0.17610
-0.16112
-0.14113
-0.11615
-0.08118
-0.05620
-0.03622
-0.02123
-0.00624
0.00500
0.01499
0.01998
0.01998
0.01998
0.01998
0.01998
0.01998
0.01998
0.01998
0.01998
0.01998
0.01998
0.01998
0.01998
0.01998
0.01998
0.01998
0.01998
0.01998
0.01998
0.01998
0.00999
0.00000
-0.01374
-0.03372
-0.03497
-0.02998
0.00250
0.03372
0.04496
0.04496
0.04496
0.03997
0.03122
0.02998
0.02998
0.02998
0.02998
0.02498
0.02498
0.01998
0.00125
-0.03247
-0.02998
0.12864
0.42465
0.68818
0.72815
0.51582
0.21108
0.00874
-0.06120
-0.05620
-0.04621
-0.03622
-0.03997
-0.03997
-0.03997
-0.04496
-0.04996
-0.04996
-0.04996
-0.05495
-0.05995
-0.06495
-0.06495
-0.06994
-0.07869
-0.08493
-0.08993
-0.09867
-0.11366
-0.12365
-0.13364
-0.13988
-0.15362
-0.16362
-0.17361
-0.18360
-0.19359
-0.20358
-0.20983
-0.20983
-0.20983
-0.21482
-0.21982
-0.21982
-0.21982
-0.21482
-0.20983
-0.19109
-0.17111
-0.14738
-0.11740
-0.09242
-0.06245
-0.04122
-0.02623
-0.01124
0.00375
0.00999
0.00999
0.01499
0.01998
0.02498
0.02498
0.01998
0.01998
0.01998
0.01998
0.01998
0.02498
0.02998
0.02998
0.02998
0.02998
0.02998
0.02998
0.02498
0.02498
0.02498
0.02498
0.01998
0.01124
-0.00375
-0.02748
-0.04371
-0.03622
-0.00375
0.02748
0.04371
0.04496
0.04996
0.04496
0.03997
0.03997
0.04496
0.03997
0.03122
0.02998
0.02998
0.01624
-0.00250
-0.04496
-0.05495
0.09242
0.38718
0.67444
0.76812
0.57453
0.25104
0.01374
-0.07244
-0.06620
-0.05121
-0.04496
-0.04496
-0.04996
-0.05870
-0.06495
-0.06495
-0.05995
-0.05995
-0.06869
-0.06994
-0.07494
-0.07993
-0.08868
-0.10366
-0.10991
-0.10991
-0.10991
-0.11865
-0.12490
-0.13364
-0.14863
-0.15862
-0.17361
-0.18360
-0.19859
-0.20858
-0.22731
-0.23481
-0.23481
-0.23106
-0.22981
-0.22981
-0.22606
-0.22481
-0.22481
-0.21607
-0.20608
-0.18360
-0.15862
-0.13364
-0.10866
-0.08368
-0.05870
-0.03372
-0.01749
-0.00250
0.00375
0.01374
0.01873
0.01624
0.01499
0.01499
0.01873
0.02873
0.02998
0.02623
0.02873
0.02998
0.02998
0.02623
0.02498
0.02123
0.01998
0.01998
0.02373
0.02873
0.02623
0.02123
0.01998
0.01998
0.01624
0.01499
0.01124
0.00125
-0.01749
-0.03747
-0.04871
-0.04996
-0.03247
-0.00375
0.01749
0.02873
0.02998
0.02998
0.03372
0.03497
0.03497
0.03122
0.02123
0.01998
0.02373
0.02123
0.01998
0.01124
-0.02373
-0.01249
0.15237
0.43589
0.65946
0.65571
0.42840
0.15237
-0.01749
-0.07869
-0.07619
-0.07119
-0.06120
-0.05995
-0.06869
-0.06994
-0.07369
-0.07119
-0.06994
-0.06620
-0.06869
-0.08243
-0.08868
-0.09367
-0.09492
-0.09492
-0.09117
-0.08993
-0.09867
-0.11740
-0.14488
-0.16736
-0.18235
-0.18485
-0.18859
-0.20233
-0.21732
-0.23730
-0.25229
-0.25479
-0.25104
-0.24105
-0.23106
-0.24230
-0.25729
-0.27727
-0.28851
-0.28976
-0.27352
-0.23231
-0.17860
-0.12365
-0.08118
-0.04621
-0.01499
0.00250
0.00500
0.00500
0.01374
0.02748
0.03372
0.04371
0.04496
0.04496
0.04122
0.03622
0.03497
0.03122
0.02623
0.02498
0.02873
0.02998
0.02998
0.02998
0.02998
0.02623
0.01249
-0.00250
-0.02498
-0.07119
-0.10866
-0.11491
-0.07869
-0.01624
0.02748
0.05121
0.05495
0.06370
0.06869
0.05745
0.02998
-0.00375
-0.02248
-0.02498
-0.00874
0.01998
0.04122
0.03747
0.03497
0.03872
0.04371
0.03747
0.03122
0.02623
0.02123
0.01998
0.01998
0.01998
0.02373
0.01749
0.00250
0.07244
0.28851
0.55329
0.68943
0.57328
0.28227
0.02623
-0.08868
-0.10491
-0.08118
-0.06245
-0.05995
-0.06370
-0.06495
-0.06495
-0.06869
-0.07369
-0.08243
-0.08493
-0.08868
-0.09367
-0.09492
-0.09867
-0.10741
-0.11740
-0.11990
-0.12365
-0.13239
-0.14738
-0.15737
-0.16736
-0.17735
-0.18735
-0.19734
-0.20858
-0.21357
-0.22731
-0.23356
-0.23855
-0.23980
-0.23606
-0.23855
-0.24855
-0.24979
-0.25354
-0.25104
-0.23481
-0.21857
-0.19859
-0.17486
-0.14238
-0.11116
-0.08493
-0.06370
-0.04371
-0.02873
-0.01749
-0.00749
-0.00500
0.00250
0.00874
0.01374
0.01499
0.01873
0.01998
0.01998
0.01998
0.01998
0.01998
0.01998
0.01998
0.02373
0.02873
0.02998
0.02623
0.02498
0.02498
0.02498
0.02123
0.01998
0.01998
0.02373
0.01749
0.00375
-0.01998
-0.03247
-0.03872
-0.02123
0.01249
0.03997
0.05246
0.05495
0.05121
0.04621
0.04122
0.03622
0.03497
0.03497
0.03122
0.02623
0.02123
0.01624
0.00000
-0.01998
0.06370
0.30850
0.59326
0.74439
0.63947
0.35845
0.09367
-0.04496
-0.07369
-0.05995
-0.04746
-0.04496
-0.04496
-0.04496
-0.04496
-0.04871
-0.05745
-0.05995
-0.05995
-0.06744
-0.07369
-0.07869
-0.08368
-0.09242
-0.09867
-0.10741
-0.11740
-0.12739
-0.13364
-0.13864
-0.14738
-0.15737
-0.16736
-0.17735
-0.18735
-0.19734
-0.20733
-0.21357
-0.22232
-0.22856
-0.23356
-0.23481
-0.23481
-0.23481
-0.22731
-0.22481
-0.21357
-0.19859
-0.17610
-0.15113
-0.12240
-0.08868
-0.06120
-0.03997
-0.02373
-0.01249
-0.00250
0.00375
0.01249
0.02248
0.02873
0.02623
0.02498
0.02498
0.02498
0.02498
0.02498
0.02498
0.02498
0.02498
0.02498
0.02498
0.02873
0.02998
0.02998
0.02623
0.02873
0.03372
0.03497
0.03122
0.02248
0.00125
-0.02373
-0.03372
-0.02748
0.00375
0.03747
0.05246
0.05495
0.04746
0.04496
0.04122
0.04371
0.04496
0.03747
0.03122
0.02998
0.02998
0.02248
0.00125
-0.02623
0.01998
0.23231
0.54455
0.76187
0.73315
0.47960
0.18110
-0.01624
-0.07869
-0.07369
-0.06245
-0.05995
-0.05620
-0.05121
-0.05371
-0.05870
-0.06370
-0.06495
-0.06869
-0.06994
-0.07744
-0.08368
-0.08868
-0.08993
-0.09367
-0.10242
-0.11615
-0.12739
-0.13739
-0.14738
-0.16112
-0.17236
-0.18235
-0.18859
-0.20108
-0.21232
-0.22232
-0.23231
-0.23481
-0.23855
-0.24355
-0.24105
-0.23606
-0.23481
-0.23481
-0.23106
-0.22232
-0.20983
-0.19109
-0.16736
-0.13864
-0.11241
-0.08743
-0.06245
-0.04122
-0.02498
-0.01249
-0.00624
-0.00125
0.00375
0.00500
0.00500
0.00500
0.00500
0.00874
0.00999
0.01374
0.01873
0.01624
0.01124
0.00999
0.01374
0.01124
0.00999
0.00999
0.00999
0.01374
0.01873
0.01624
0.00500
-0.00999
-0.02873
-0.03872
-0.03247
-0.00874
0.01749
0.03247
0.03497
0.03497
0.03497
0.03122
0.02998
0.03372
0.03122
0.02998
0.02623
0.02498
0.01749
0.00500
-0.02123
-0.00624
0.14238
0.40467
0.64572
0.70067
0.52332
0.23980
0.02498
-0.05745
-0.06370
-0.05371
-0.04621
-0.04496
-0.04496
-0.04496
-0.04496
-0.04496
-0.04871
-0.05620
-0.06370
-0.06869
-0.06994
-0.07369
-0.08118
-0.09117
-0.09492
-0.10117
-0.11116
-0.11865
-0.12615
-0.13614
-0.14988
-0.16486
-0.17735
-0.18735
-0.19734
-0.20733
-0.20983
-0.21357
-0.22232
-0.22481
-0.22481
-0.22481
-0.22481
-0.22481
-0.22107
-0.21357
-0.20358
-0.18610
-0.16362
-0.13489
-0.10491
-0.07869
-0.05371
-0.03122
-0.01499
-0.00375
0.00375
0.00874
0.01624
0.01624
0.01124
0.01374
0.01499
0.01124
0.00624
0.00874
0.01374
0.01873
0.01998
0.01998
0.01374
0.00624
0.00500
0.00500
0.00874
0.00999
0.00999
0.00999
0.00624
-0.00500
-0.02373
-0.03997
-0.04496
-0.03247
-0.00250
0.02248
0.03997
0.04122
0.03372
0.02998
0.02998
0.02998
0.02623
0.02123
0.01998
0.01998
0.01374
0.00375
-0.01998
-0.04996
-0.00125
0.20858
0.51208
0.72565
0.69318
0.44214
0.15612
-0.01749
-0.06994
-0.06495
-0.05371
-0.04621
-0.04496
-0.04496
-0.04496
-0.04496
-0.04871
-0.05371
-0.05870
-0.06370
-0.06495
-0.06869
-0.06994
-0.07619
-0.08368
-0.08868
-0.09617
-0.10616
-0.11615
-0.12615
-0.13614
-0.14613
-0.15612
-0.16986
-0.18110
-0.19109
-0.19859
-0.20608
-0.21357
-0.21857
-0.21982
-0.22357
-0.22481
-0.22856
-0.22731
-0.21857
-0.20858
-0.19609
-0.17735
-0.15487
-0.12615
-0.09617
-0.06620
-0.04246
-0.02623
-0.01374
0.00000
0.01124
0.01873
0.01998
0.01998
0.02373
0.02873
0.02748
0.02498
0.02873
0.02998
0.02998
0.02998
0.02998
0.02998
0.03372
0.03247
0.02998
0.02373
0.01998
0.01998
0.02248
0.02248
0.01374
-0.00500
-0.02748
-0.03497
-0.02248
0.00624
0.03497
0.04746
0.04996
0.04746
0.04496
0.04496
0.04496
0.04246
0.03747
0.03497
0.03497
0.02873
0.01873
0.00000
-0.02498
0.01624
0.20858
0.49834
0.72565
0.73190
0.49959
0.19984
0.00000
-0.06744
-0.06620
-0.05371
-0.04746
-0.04746
-0.05620
-0.05995
-0.05995
-0.05995
-0.06245
-0.06744
-0.06994
-0.07244
-0.08118
-0.08493
-0.08743
-0.09242
-0.10117
-0.11116
-0.11740
-0.12615
-0.13614
-0.14863
-0.16112
-0.17111
-0.18110
-0.19359
-0.20608
-0.20983
-0.20983
-0.21607
-0.22357
-0.22481
-0.22481
-0.22481
-0.22481
-0.22232
-0.21732
-0.21232
-0.20358
-0.18859
-0.16237
-0.13239
-0.10242
-0.07494
-0.04996
-0.03122
-0.01873
-0.00874
-0.00500
0.00125
0.00500
0.00500
0.00500
0.00749
0.00999
0.01249
0.01749
0.01998
0.01998
0.01998
0.01998
0.01998
0.01998
0.01998
0.01998
0.01998
0.01998
0.01998
0.01374
0.00749
-0.00375
-0.02123
-0.03247
-0.02873
-0.00749
0.02248
0.04122
0.04496
0.04496
0.04246
0.03747
0.03247
0.02998
0.02998
0.02748
0.02248
0.01998
0.01749
0.00375
-0.02498
-0.03122
0.07119
0.30725
0.57203
0.69443
0.57702
0.31349
0.07744
-0.03622
-0.05745
-0.04996
-0.04246
-0.03997
-0.03997
-0.03997
-0.04246
-0.04496
-0.04496
-0.04746
-0.05620
-0.05995
-0.06245
-0.06744
-0.06994
-0.07244
-0.08118
-0.09117
-0.10117
-0.10741
-0.11615
-0.12615
-0.13864
-0.15362
-0.16611
-0.17610
-0.18235
-0.19109
-0.19734
-0.20233
-0.20733
-0.20983
-0.20983
-0.20983
-0.20983
-0.20983
-0.20983
-0.20483
-0.19484
-0.17860
-0.15862
-0.13614
-0.10866
-0.07869
-0.05121
-0.02873
-0.01124
-0.00250
0.00250
0.00749
0.01499
0.01998
0.01998
0.01998
0.01998
0.01998
0.01998
0.01998
0.02248
0.02748
0.02748
0.02498
0.02498
0.02248
0.01998
0.01998
0.01998
0.01998
0.01998
0.01998
0.01499
0.00250
-0.01873
-0.03247
-0.03247
-0.01374
0.01624
0.03747
0.04496
0.04496
0.04246
0.03747
0.03247
0.02748
0.02498
0.02498
0.02248
0.01998
0.01499
0.00500
-0.01624
-0.03247
0.04746
0.27852
0.57078
0.73939
0.65946
0.38593
0.10866
-0.03622
-0.06744
-0.05745
-0.04746
-0.04496
-0.04746
-0.05495
-0.05995
-0.05995
-0.05995
-0.06245
-0.06744
-0.06994
-0.07244
-0.07744
-0.08243
-0.08743
-0.09242
-0.09992
-0.10741
-0.11491
-0.12490
-0.13739
-0.15237
-0.16237
-0.16986
-0.17985
-0.19234
-0.20483
-0.21232
-0.21732
-0.22232
-0.22731
-0.22981
-0.22981
-0.23231
-0.23481
-0.23231
-0.22731
-0.21732
-0.20233
-0.18485
-0.15987
-0.12989
-0.10242
-0.07744
-0.05495
-0.03747
-0.02498
-0.01998
-0.01499
-0.00749
-0.00500
-0.00250
0.00000
0.00250
0.00500
0.00500
0.00500
0.00749
0.00749
0.00500
0.00500
0.00500
0.00500
0.00500
0.00250
0.00250
0.00749
0.00749
0.00250
-0.00749
-0.02748
-0.04496
-0.04496
-0.02498
0.00500
0.02498
0.02998
0.02998
0.02998
0.02748
0.02248
0.01998
0.01998
0.01998
0.01749
0.01249
0.00500
-0.00749
-0.02998
-0.04246
0.03622
0.25479
0.52956
0.68943
0.61449
0.35845
0.09492
-0.04871
-0.08243
-0.07244
-0.06245
-0.06245
-0.06744
-0.06994
-0.06994
-0.06994
-0.06994
-0.06994
-0.07244
-0.07744
-0.08243
-0.08493
-0.08743
-0.09242
-0.09492
-0.09992
-0.11241
-0.12240
-0.12989
-0.13988
-0.14988
-0.16237
-0.17236
-0.17985
-0.18984
-0.19984
-0.20733
-0.20983
-0.21232
-0.21982
-0.22481
-0.22232
-0.22232
-0.22481
-0.22232
-0.21482
-0.20233
-0.18610
-0.16611
-0.13864
-0.10616
-0.07869
-0.05745
-0.04246
-0.02748
-0.01249
-0.00500
0.00000
0.00749
0.00999
0.00999
0.00999
0.01249
0.01249
0.00749
0.00500
0.00749
0.01249
0.01499
0.01499
0.01499
0.01749
0.01998
0.01749
0.00999
0.00500
0.00500
0.00500
0.00250
-0.00500
-0.01749
-0.03247
-0.04246
-0.03372
-0.00624
0.01873
0.03497
0.04246
0.03997
0.03247
0.02748
0.02498
0.02498
0.02498
0.02498
0.02498
0.02248
0.01499
-0.00125
-0.03122
-0.02998
0.09367
0.34971
0.60200
0.68069
0.52582
0.25729
0.03747
-0.05870
-0.06994
-0.06245
-0.05995
-0.05995
-0.05995
-0.05995
-0.06245
-0.06495
-0.06495
-0.06495
-0.06744
-0.07244
-0.07744
-0.08243
-0.08743
-0.09242
-0.09742
-0.10242
-0.10991
-0.11990
-0.12989
-0.13988
-0.15113
-0.16486
-0.17236
-0.17985
-0.19109
-0.20233
-0.20733
-0.21232
-0.21732
-0.21982
-0.21982
-0.22232
-0.22481
-0.22481
-0.22232
-0.21607
-0.20358
-0.18859
-0.16736
-0.13739
-0.10741
-0.07869
-0.05371
-0.03122
-0.01624
-0.00749
-0.00250
0.00250
0.00500
0.00500
0.00749
0.01249
0.01749
0.01998
0.01998
0.01998
0.01998
0.01749
0.01499
0.01749
0.01998
0.01998
0.01998
0.01749
0.01499
0.01749
0.01749
0.01124
0.00125
-0.01499
-0.03622
-0.04246
-0.02998
0.00000
0.02873
0.04246
0.04496
0.04246
0.03622
0.02748
0.02498
0.02748
0.02748
0.02498
0.02498
0.02123
0.00874
-0.01249
-0.03872
-0.00749
0.16986
0.46212
0.69817
0.71191
0.48585
0.18360
-0.01499
-0.08243
-0.07869
-0.06620
-0.05995
-0.06245
-0.06495
-0.06744
-0.06994
-0.06994
-0.06994
-0.07244
-0.07744
-0.07993
-0.08243
-0.08868
-0.09742
-0.10366
-0.10991
-0.11366
-0.12365
-0.13614
-0.14863
-0.16112
-0.17610
-0.18735
-0.19359
-0.20358
-0.21232
-0.21857
-0.22731
-0.23231
-0.23481
-0.23481
-0.23481
-0.23481
-0.23481
-0.23481
-0.23481
-0.22856
-0.21232
-0.19234
-0.16986
-0.14113
-0.10866
-0.07993
-0.05870
-0.04371
-0.03122
-0.02248
-0.01749
-0.01124
-0.00250
0.00250
0.00500
0.00500
0.00500
0.00500
0.00749
0.01249
0.01249
0.00999
0.00749
0.00500
0.00749
0.01249
0.01499
0.01249
0.00999
0.00749
0.00250
-0.00375
-0.01624
-0.03122
-0.04746
-0.05620
-0.03872
-0.00624
0.02123
0.02998
0.02873
0.02498
0.02498
0.02498
0.02498
0.02498
0.02373
0.01998
0.01998
0.01873
0.00999
-0.00874
-0.02998
-0.00125
0.15737
0.41716
0.63448
0.65446
0.45088
0.17860
-0.00500
-0.06744
-0.06495
-0.05121
-0.04496
-0.04621
-0.05121
-0.05620
-0.06120
-0.06495
-0.06495
-0.06620
-0.06994
-0.06994
-0.07119
-0.07869
-0.08743
-0.09242
-0.09742
-0.10366
-0.11366
-0.11990
-0.12365
-0.13489
-0.14863
-0.15862
-0.16861
-0.17860
-0.18859
-0.19734
-0.19984
-0.20233
-0.20733
-0.20983
-0.20983
-0.20983
-0.20983
-0.20983
-0.20983
-0.20608
-0.19359
-0.17236
-0.14988
-0.12115
-0.09617
-0.07119
-0.04621
-0.02498
-0.01124
-0.00375
0.00125
0.00624
0.00874
0.00500
0.00500
0.00500
0.00624
0.00999
0.00999
0.01124
0.01499
0.01499
0.01499
0.01624
0.01998
0.01998
0.01998
0.01998
0.01998
0.01873
0.01124
0.00125
-0.00999
-0.02623
-0.04122
-0.04122
-0.02123
0.01499
0.03872
0.04496
0.04496
0.04371
0.03872
0.03497
0.03497
0.03372
0.02873
0.02373
0.01998
0.01873
0.00874
-0.01873
-0.03622
0.04496
0.27852
0.56703
0.72066
0.62324
0.34596
0.08618
-0.04871
-0.07119
-0.05995
-0.04871
-0.04496
-0.04871
-0.05620
-0.05995
-0.05995
-0.05995
-0.05995
-0.06370
-0.06994
-0.07119
-0.07619
-0.08118
-0.08868
-0.09617
-0.10117
-0.10866
-0.11865
-0.12864
-0.13864
-0.14988
-0.16486
-0.17860
-0.18984
-0.20358
-0.21108
-0.21607
-0.22107
-0.22606
-0.23106
-0.23481
-0.23481
-0.23481
-0.23481
-0.23481
-0.23231
-0.21857
-0.19984
-0.18235
-0.15612
-0.12615
-0.09742
-0.07369
-0.05371
-0.03747
-0.02748
-0.01749
-0.00874
-0.00375
0.00125
0.00500
0.00500
0.00500
0.00500
0.00500
0.00500
0.00500
0.00500
0.00500
0.00500
0.00624
0.00874
0.00500
0.00500
0.00500
0.00500
0.00375
-0.00250
-0.01499
-0.03122
-0.04621
-0.04746
-0.02748
0.00749
0.02623
0.02998
0.02873
0.02498
0.02373
0.01998
0.01998
0.01873
0.01374
0.00874
0.00500
0.00500
0.00000
-0.01998
-0.03497
0.04871
0.27602
0.54205
0.66695
0.55954
0.29601
0.05620
-0.05995
-0.08118
-0.06744
-0.05995
-0.05995
-0.05995
-0.05745
-0.04996
-0.05246
-0.06120
-0.06495
-0.06620
-0.07119
-0.07744
-0.08493
-0.08618
-0.09117
-0.09617
-0.10242
-0.11241
-0.12240
-0.13114
-0.13739
-0.14738
-0.15737
-0.16736
-0.17735
-0.18610
-0.19234
-0.20108
-0.20608
-0.20983
-0.20983
-0.20983
-0.20983
-0.20983
-0.20983
-0.20983
-0.20858
-0.19859
-0.17610
-0.15987
-0.13739
-0.10741
-0.07744
-0.04996
-0.03122
-0.01624
-0.00375
0.00125
0.00500
0.00624
0.01124
0.01374
0.00999
0.01124
0.01624
0.01998
0.01998
0.01998
0.01998
0.01998
0.01998
0.01998
0.01998
0.01998
0.01873
0.01374
0.01124
0.01499
0.01249
0.00250
-0.00874
-0.02498
-0.04122
-0.04371
-0.03247
-0.00125
0.02748
0.03497
0.03497
0.03622
0.03997
0.03872
0.03372
0.02873
0.02498
0.02373
0.01998
0.01873
0.01249
-0.00375
-0.03122
0.00250
0.18735
0.47086
0.68444
0.67819
0.44588
0.15612
-0.02248
-0.07244
-0.06245
-0.05371
-0.05246
-0.05870
-0.05495
-0.05620
-0.06120
-0.06495
-0.06495
-0.06620
-0.07244
-0.08118
-0.08493
-0.08618
-0.09117
-0.09492
-0.09617
-0.10242
-0.11241
-0.12365
-0.13739
-0.14738
-0.15737
-0.16861
-0.18110
-0.18735
-0.19734
-0.20608
-0.21108
-0.21607
-0.22107
-0.22481
-0.22606
-0.22981
-0.22856
-0.22481
-0.22481
-0.22107
-0.20608
-0.18859
-0.16362
-0.13614
-0.09867
-0.07494
-0.05495
-0.03622
-0.02248
-0.01249
-0.00375
0.00125
0.00749
0.01624
0.01998
0.01998
0.01998
0.01998
0.01998
0.01998
0.01998
0.01998
0.01998
0.01998
0.01998
0.01873
0.01249
0.00375
0.00125
0.00624
0.01124
0.01374
0.00749
-0.00500
-0.02498
-0.04371
-0.05121
-0.03372
-0.00250
0.02748
0.03622
0.03747
0.02873
0.02373
0.01998
0.01998
0.01998
0.01998
0.01873
0.01249
0.00250
-0.00624
-0.01624
-0.04122
-0.01374
0.16486
0.44588
0.66695
0.66445
0.42465
0.12989
-0.05246
-0.09742
-0.08243
-0.06994
-0.06994
-0.06994
-0.06994
-0.07244
-0.08118
-0.08368
-0.07993
-0.08118
-0.08743
-0.09492
-0.09617
-0.10242
-0.10991
-0.11116
-0.11615
-0.12240
-0.13239
-0.14238
-0.15113
-0.15737
-0.16736
-0.17735
-0.18735
-0.19734
-0.20608
-0.21108
-0.21607
-0.22232
-0.23106
-0.23481
-0.23356
-0.22856
-0.22481
-0.22357
-0.21732
-0.20358
-0.19234
-0.17610
-0.15487
-0.12490
-0.09992
-0.07619
-0.05620
-0.03872
-0.02873
-0.01873
-0.00874
-0.00375
0.00125
0.00500
0.00500
0.00500
0.00500
0.00500
0.00624
0.01124
0.01499
0.01374
0.00999
0.01124
0.01499
0.01374
0.00375
0.00000
0.00125
0.00500
0.00375
-0.00624
-0.01374
-0.03247
-0.04371
-0.02998
0.00000
0.02748
0.04122
0.04496
0.04371
0.03872
0.02998
0.03122
0.03372
0.02998
0.02873
0.01998
0.01873
0.01249
-0.00375
-0.02373
-0.02248
0.10866
0.36595
0.60450
0.67694
0.51458
0.22981
0.01374
-0.06495
-0.06370
-0.05371
-0.04496
-0.04496
-0.04496
-0.04496
-0.04621
-0.05121
-0.05495
-0.05620
-0.06120
-0.06620
-0.06994
-0.07119
-0.08118
-0.08618
-0.09492
-0.09617
-0.10616
-0.11615
-0.12615
-0.13614
-0.14738
-0.16112
-0.17111
-0.17610
-0.18610
-0.19609
-0.20108
-0.20483
-0.20608
-0.20983
-0.20983
-0.21108
-0.21607
-0.21982
-0.21857
-0.20733
-0.19359
-0.18235
-0.16486
-0.12989
-0.10117
-0.07744
-0.06120
-0.03747
-0.02373
-0.01374
-0.00500
-0.00375
0.00624
0.01124
0.01624
0.01998
0.01998
0.01873
0.00999
0.01124
0.01499
0.01374
0.00874
0.00624
0.01124
0.01624
0.01998
0.01998
0.01873
0.01374
0.00375
-0.00125
-0.01249
-0.02623
-0.03622
-0.03622
-0.01124
0.01749
0.03622
0.04496
0.04496
0.04371
0.03872
0.02998
0.02998
0.02998
0.02873
0.02373
0.01998
0.01873
0.00749
-0.01374
-0.03372
0.03247
0.24605
0.50833
0.65821
0.58202
0.32598
0.08243
-0.03872
-0.06245
-0.04871
-0.04122
-0.04496
-0.04621
-0.04996
-0.04996
-0.04996
-0.04996
-0.04996
-0.05121
-0.05620
-0.05995
-0.06120
-0.06620
-0.07119
-0.08118
-0.08618
-0.09117
-0.09617
-0.10616
-0.11615
-0.12615
-0.13739
-0.15113
-0.16112
-0.17111
-0.17610
-0.18610
-0.19109
-0.19484
-0.19609
-0.20108
-0.20483
-0.20483
-0.20483
-0.19984
-0.19984
-0.19359
-0.17735
-0.15237
-0.12739
-0.10242
-0.07744
-0.05371
-0.03747
-0.01873
-0.00375
0.00500
0.00999
0.01499
0.01998
0.02498
0.02498
0.02498
0.02498
0.01998
0.01998
0.01998
0.01998
0.02498
0.02998
0.02998
0.02498
0.01998
0.01998
0.01998
0.01998
0.02498
0.01998
0.01374
-0.00250
-0.02123
-0.03497
-0.03247
-0.00624
0.02748
0.04496
0.04996
0.04496
0.04496
0.04371
0.03497
0.02998
0.02998
0.02998
0.02998
0.02498
0.01873
0.00125
-0.03247
-0.04371
0.08618
0.36845
0.65446
0.73939
0.55579
0.24730
0.01624
-0.06994
-0.07369
-0.05495
-0.04996
-0.05495
-0.05995
-0.05995
-0.06495
-0.06495
-0.06495
-0.06495
-0.06994
-0.06994
-0.07619
-0.08493
-0.08993
-0.09492
-0.09992
-0.10491
-0.11116
-0.12115
-0.13114
-0.14613
-0.15612
-0.16611
-0.17985
-0.18610
-0.20108
-0.21108
-0.21982
-0.22481
-0.22481
-0.22481
-0.22981
-0.22981
-0.22981
-0.22481
-0.22481
-0.21857
-0.20358
-0.18859
-0.16861
-0.14238
-0.11366
-0.08868
-0.06370
-0.04871
-0.03872
-0.02873
-0.01873
-0.00999
-0.00500
0.00000
0.00500
0.00500
0.00999
0.01499
0.01998
0.01499
0.00999
0.00999
0.00500
0.00999
0.01499
0.01499
0.00999
0.00500
0.00000
0.00000
0.00000
-0.00624
-0.02123
-0.03497
-0.03997
-0.02873
0.00125
0.02623
0.03997
0.04496
0.03997
0.03497
0.02998
0.02998
0.02498
0.02498
0.02498
0.01998
0.01499
0.00375
-0.01124
-0.03497
-0.03747
0.09867
0.36345
0.60325
0.65571
0.46087
0.18485
-0.00874
-0.06994
-0.06869
-0.05495
-0.04496
-0.04996
-0.05995
-0.05995
-0.05995
-0.05495
-0.05995
-0.05995
-0.06495
-0.06994
-0.06994
-0.07993
-0.08493
-0.08493
-0.08993
-0.09492
-0.10491
-0.11491
-0.12615
-0.13988
-0.14988
-0.15487
-0.16486
-0.17486
-0.17985
-0.18485
-0.18984
-0.19984
-0.19984
-0.19484
-0.19984
-0.19984
-0.19984
-0.19984
-0.19484
-0.18984
-0.17860
-0.15487
-0.13364
-0.10491
-0.08493
-0.06495
-0.04496
-0.03497
-0.02498
-0.01998
-0.00500
0.00000
0.00500
0.00500
0.00500
0.00500
0.00500
0.01998
0.02498
0.02998
0.01998
0.01998
0.01998
0.01998
0.01998
0.01998
0.01499
0.00500
0.00500
-0.00500
-0.00500
-0.01499
-0.02498
-0.03497
-0.03497
-0.01499
0.00999
0.02998
0.03997
0.03997
0.02998
0.02998
0.02998
0.03497
0.02998
0.01998
0.01499
0.00500
0.00500
-0.00500
-0.01998
-0.05995
-0.05246
0.10866
0.39343
0.61449
0.61699
0.40217
0.15362
0.00999
-0.03497
-0.03497
-0.02498
-0.02498
-0.03497
-0.04496
-0.03997
-0.04496
-0.04496
-0.04996
-0.04496
-0.04496
-0.04496
-0.04996
-0.05995
-0.06994
-0.06994
-0.07494
-0.08493
-0.08993
-0.09492
-0.10491
-0.11491
-0.12490
-0.13489
-0.14488
-0.15487
-0.15987
-0.16486
-0.17486
-0.17985
-0.18485
-0.18485
-0.17985
-0.17985
-0.17985
-0.17985
-0.16986
-0.15487
-0.14488
-0.12490
-0.10491
-0.07993
-0.05995
-0.03997
-0.02498
-0.01499
-0.00500
0.00000
0.00500
0.00999
0.01998
0.01998
0.01998
0.01998
0.01998
0.01998
0.01998
0.01998
0.01998
0.01998
0.01998
0.01998
0.01998
0.01998
0.01998
0.01998
0.01998
0.01998
0.00999
0.00500
-0.00500
-0.01998
-0.03497
-0.03997
-0.02998
-0.00500
0.01998
0.03497
0.03997
0.02998
0.02498
0.02498
0.02498
0.01998
0.01998
0.01998
0.01998
0.01499
0.00500
-0.00500
-0.04371
-0.07869
-0.00749
0.22357
0.51208
0.66570
0.56329
0.29226
0.05620
-0.06120
-0.07993
-0.06495
-0.05495
-0.04996
-0.05495
-0.05995
-0.05995
-0.05995
-0.05995
-0.05995
-0.06495
-0.06994
-0.06994
-0.06994
-0.07993
-0.08493
-0.08993
-0.09492
-0.10491
-0.11491
-0.12490
-0.13489
-0.14488
-0.15487
-0.15987
-0.16986
-0.17985
-0.18485
-0.19484
-0.19984
-0.20983
-0.20983
-0.20983
-0.20983
-0.20983
-0.20983
-0.20983
-0.19984
-0.19484
-0.18110
-0.15612
-0.13114
-0.10616
-0.08118
-0.06620
-0.04621
-0.03122
-0.01998
-0.00999
-0.00500
0.00000
0.00000
0.00000
0.00500
0.00500
0.00500
0.00500
0.00999
0.01499
0.00500
0.00500
0.00500
0.01499
0.01499
0.01499
0.01499
0.01499
0.00999
0.00500
0.00999
0.00999
0.00500
0.00500
0.00500
0.00500
-0.00500
-0.01873
-0.03872
-0.03997
-0.03122
-0.00125
0.02373
0.03497
0.02998
0.02998
0.02498
0.02498
0.01998
0.01998
0.01998
0.01998
0.01998
0.01998
0.00624
-0.01374
-0.04246
-0.05371
0.05246
0.29351
0.54330
0.62573
0.47211
0.20358
0.00375
-0.06994
-0.06994
-0.05620
-0.04621
-0.04496
-0.04496
-0.04496
-0.04496
-0.04496
-0.04496
-0.04996
-0.05495
-0.05995
-0.06495
-0.06495
-0.06994
-0.06994
-0.07869
-0.08493
-0.08993
-0.09492
-0.10366
-0.11366
-0.11990
-0.12864
-0.13864
-0.15362
-0.16362
-0.16986
-0.17486
-0.18360
-0.18485
-0.18485
-0.18984
-0.19859
-0.19984
-0.19984
-0.19109
-0.18485
-0.17985
-0.16611
-0.15612
-0.13239
-0.10741
-0.08243
-0.06120
-0.04122
-0.02623
-0.01624
-0.00624
0.00000
0.00500
0.00500
0.00999
0.01873
0.01998
0.01998
0.01998
0.01998
0.01998
0.01998
0.01998
0.01998
0.01998
0.01998
0.01998
0.01998
0.01124
0.00500
0.00500
0.01374
0.00999
0.00125
-0.00874
-0.02748
-0.03872
-0.03497
-0.00749
0.02248
0.03372
0.02998
0.02998
0.02998
0.02998
0.02998
0.02498
0.01998
0.01499
0.00624
0.00500
0.00500
-0.00375
-0.03122
-0.05745
0.01624
0.23481
0.49209
0.62199
0.51458
0.25979
0.03872
-0.05620
-0.06495
-0.05121
-0.04496
-0.04496
-0.04496
-0.04496
-0.04996
-0.04996
-0.05495
-0.05995
-0.05995
-0.06495
-0.06994
-0.06994
-0.06620
-0.06994
-0.07869
-0.08493
-0.09367
-0.09492
-0.10366
-0.10991
-0.11865
-0.13364
-0.14863
-0.15487
-0.15987
-0.16486
-0.17361
-0.17985
-0.17985
-0.18485
-0.18485
-0.18485
-0.18485
-0.18110
-0.17985
-0.17610
-0.16237
-0.14738
-0.12739
-0.11241
-0.09242
-0.06869
-0.04371
-0.02748
-0.01249
-0.00125
0.00375
0.00500
0.00874
0.01374
0.01873
0.01998
0.01998
0.02373
0.02498
0.02123
0.02373
0.02498
0.02873
0.02998
0.02998
0.02998
0.02998
0.02123
0.01998
0.01998
0.02373
0.02498
0.02123
0.01124
-0.00250
-0.02248
-0.02498
-0.00749
0.02498
0.04746
0.05371
0.05495
0.05121
0.04621
0.04496
0.04122
0.04371
0.04122
0.03122
0.02998
0.02123
0.00749
-0.01998
-0.05495
-0.00500
0.20108
0.48585
0.67944
0.64072
0.39592
0.12115
-0.02998
-0.06744
-0.05246
-0.04122
-0.03997
-0.04371
-0.04496
-0.04496
-0.05371
-0.05870
-0.05620
-0.05121
-0.05870
-0.05995
-0.06370
-0.06869
-0.07369
-0.07869
-0.08368
-0.09367
-0.10366
-0.11366
-0.11865
-0.12365
-0.13739
-0.14863
-0.15862
-0.16861
-0.17361
-0.18360
-0.19359
-0.19859
-0.20358
-0.20858
-0.20983
-0.20983
-0.20983
-0.20983
-0.20983
-0.20108
-0.18735
-0.17236
-0.14863
-0.11615
-0.08493
-0.05870
-0.04246
-0.02748
-0.01249
-0.00624
0.00375
0.00500
0.00500
0.00874
0.00999
0.01374
0.01873
0.01998
0.01998
0.01998
0.01998
0.01998
0.01624
0.01499
0.01873
0.01624
0.00624
0.00500
0.00500
0.00874
0.00999
0.00624
-0.00375
-0.02498
-0.04246
-0.04871
-0.02998
0.00375
0.02623
0.02998
0.02998
0.02998
0.02623
0.02123
0.01998
0.01624
0.01124
0.00624
0.00125
0.00375
-0.00375
-0.02998
-0.05995
-0.00749
0.19609
0.47086
0.65446
0.60450
0.35346
0.08493
-0.05870
-0.08868
-0.06994
-0.05246
-0.05371
-0.05870
-0.06370
-0.06495
-0.06495
-0.06495
-0.06495
-0.06869
-0.07369
-0.08243
-0.08493
-0.08493
-0.09242
-0.09492
-0.09867
-0.10741
-0.11740
-0.12365
-0.12864
-0.13739
-0.15237
-0.16362
-0.17735
-0.18360
-0.18859
-0.19859
-0.20358
-0.20483
-0.20483
-0.20858
-0.20983
-0.20983
-0.20983
-0.20983
-0.20983
-0.19859
-0.18360
-0.16362
-0.14363
-0.11241
-0.08493
-0.06869
-0.05371
-0.04246
-0.02873
-0.01749
-0.00749
-0.00500
-0.00125
0.00375
0.00500
0.00500
0.00874
0.01374
0.01499
0.01499
0.01124
0.00624
0.00500
0.00874
0.01749
0.01998
0.01624
0.01499
0.01499
0.01124
0.00250
-0.00749
-0.02123
-0.03247
-0.04246
-0.03747
-0.01499
0.01374
0.03122
0.03122
0.02998
0.02623
0.02498
0.02498
0.02123
0.01998
0.01998
0.01998
0.01624
0.00749
-0.00999
-0.04246
-0.05745
0.05246
0.29725
0.56453
0.67070
0.53831
0.27477
0.05246
-0.04871
-0.06495
-0.05745
-0.04746
-0.04496
-0.04871
-0.05371
-0.05495
-0.05870
-0.05995
-0.05995
-0.05995
-0.06370
-0.06869
-0.06994
-0.07369
-0.08243
-0.08493
-0.09242
-0.09867
-0.10741
-0.11740
-0.12739
-0.13739
-0.14738
-0.16112
-0.17236
-0.18235
-0.18859
-0.19734
-0.20358
-0.20858
-0.20983
-0.20983
-0.20983
-0.20983
-0.20983
-0.20983
-0.20983
-0.20233
-0.18485
-0.16112
-0.13988
-0.11241
-0.08618
-0.06120
-0.03997
-0.02373
-0.01249
-0.00624
-0.00125
0.00375
0.00874
0.00999
0.01374
0.01499
0.01873
0.01998
0.01998
0.01998
0.01998
0.01998
0.01998
0.01998
0.01998
0.01249
0.00624
0.00500
0.01249
0.01873
0.01249
-0.00125
-0.01998
-0.03247
-0.03872
-0.02873
0.00125
0.02873
0.03872
0.03247
0.02998
0.02998
0.02623
0.02123
0.01624
0.01873
0.01998
0.01998
0.01249
0.00250
-0.01499
-0.04246
-0.01749
0.14863
0.42090
0.62823
0.62698
0.40841
0.13739
-0.02998
-0.07993
-0.06994
-0.05371
-0.04621
-0.04871
-0.05371
-0.05121
-0.05371
-0.05870
-0.05995
-0.06370
-0.06869
-0.06994
-0.07369
-0.07869
-0.08368
-0.08868
-0.09742
-0.10741
-0.11366
-0.11865
-0.12365
-0.13239
-0.13864
-0.15113
-0.16237
-0.17236
-0.17860
-0.18360
-0.18485
-0.18485
-0.18859
-0.19359
-0.19859
-0.19984
-0.19234
-0.18610
-0.18485
-0.17735
-0.16112
-0.14488
-0.12240
-0.09742
-0.07244
-0.05121
-0.03372
-0.02248
-0.00874
-0.00125
0.00375
0.00874
0.01374
0.01873
0.01998
0.01998
0.01998
0.01998
0.01998
0.01998
0.01998
0.02373
0.02873
0.02623
0.02498
0.02498
0.02123
0.01998
0.01998
0.01624
0.01124
0.00000
-0.01873
-0.03247
-0.03122
-0.01624
0.01124
0.03372
0.04371
0.04496
0.04122
0.03622
0.03497
0.03497
0.03122
0.02998
0.02998
0.02623
0.01749
0.00500
-0.02123
-0.05121
0.00250
0.20733
0.48960
0.68069
0.64197
0.40092
0.13739
-0.02248
-0.06994
-0.06495
-0.05371
-0.04621
-0.04496
-0.04496
-0.04496
-0.04871
-0.05745
-0.05995
-0.05995
-0.05995
-0.06370
-0.06869
-0.07369
-0.07869
-0.08743
-0.09367
-0.09867
-0.10741
-0.11740
-0.12739
-0.13739
-0.14738
-0.15362
-0.16486
-0.17735
-0.18360
-0.18859
-0.19734
-0.20733
-0.20983
-0.20983
-0.21357
-0.21857
-0.21982
-0.21357
-0.20608
-0.20108
-0.18984
-0.17111
-0.14863
-0.11615
-0.08868
-0.06370
-0.04122
-0.02498
-0.01374
-0.00375
0.00375
0.00874
0.01624
0.01998
0.02373
0.02123
0.01998
0.01998
0.02373
0.02498
0.02123
0.02373
0.02873
0.02998
0.02623
0.02498
0.02498
0.02498
0.02498
0.02498
0.01873
0.00500
-0.01998
-0.03997
-0.04122
-0.02623
0.00000
0.02998
0.04621
0.04996
0.04621
0.04122
0.03622
0.03497
0.03122
