-1.22020
-1.31049
-1.31575
-1.21231
-1.01245
-0.77139
-0.52683
-0.33047
-0.20775
-0.13675
-0.09905
-0.06837
-0.03419
-0.00789
0.01315
0.02367
0.02016
0.00701
-0.00351
-0.00964
-0.00526
0.00351
0.02279
0.03857
0.04032
0.03594
0.02191
0.01578
0.01490
0.02805
0.04734
0.06311
0.06487
0.05610
0.04208
0.02279
0.02016
0.03331
0.04821
0.06311
0.06925
0.06574
0.04734
0.03156
0.02104
0.02454
0.03769
0.06224
0.06925
0.07013
0.05698
0.04208
0.03156
0.02980
0.04295
0.06224
0.07363
0.07977
0.07100
0.05698
0.04208
0.04032
0.05259
0.07276
0.08328
0.09379
0.08590
0.07188
0.06136
0.05610
0.06399
0.08240
0.09818
0.10870
0.10607
0.09642
0.08240
0.07100
0.07013
0.08328
0.10256
0.11396
0.11483
0.11045
0.09292
0.08590
0.08503
0.08941
0.10694
0.12272
0.13324
0.12623
0.11220
0.09730
0.09029
0.09818
0.10870
0.12710
0.13850
0.13587
0.12184
0.10694
0.09642
0.09467
0.10782
0.12710
0.13850
0.14464
0.13675
0.11834
0.10256
0.09555
0.10344
0.11746
0.13236
0.13938
0.12710
0.10782
0.08766
0.07626
0.07539
0.08328
0.09379
0.09467
0.08678
0.06837
0.03945
0.01841
0.01052
0.01403
0.01928
0.02454
0.01666
-0.00175
-0.02630
-0.04646
-0.05435
-0.05084
-0.03331
-0.02191
-0.01578
-0.02717
-0.04646
-0.06224
-0.07363
-0.07100
-0.05785
-0.04208
-0.03156
-0.03857
-0.05259
-0.06750
-0.07802
-0.07626
-0.05873
-0.04295
-0.03156
-0.02980
-0.03419
-0.05172
-0.06311
-0.06925
-0.06136
-0.04734
-0.03243
-0.02630
-0.02893
-0.04646
-0.06224
-0.06925
-0.06574
-0.05259
-0.03769
-0.03068
-0.02980
-0.04208
-0.05347
-0.06311
-0.05698
-0.03419
-0.00964
0.01140
0.02717
0.02630
0.01666
0.01490
0.01490
0.02279
0.03769
0.04821
0.04208
0.02367
0.00000
-0.02542
-0.03419
-0.03068
-0.02630
-0.02104
-0.02367
-0.03682
-0.06048
-0.08941
-0.10694
-0.11396
-0.10256
-0.09204
-0.08152
-0.07977
-0.09204
-0.10694
-0.12184
-0.12535
-0.11659
-0.10256
-0.08415
-0.07977
-0.07977
-0.09642
-0.11220
-0.11922
-0.11571
-0.10256
-0.08415
-0.07626
-0.07889
-0.09204
-0.10344
-0.11308
-0.11483
-0.10256
-0.08766
-0.07276
-0.06574
-0.07714
-0.09204
-0.10256
-0.10870
-0.09379
-0.02980
0.08415
0.22528
0.34625
0.44180
0.48387
0.41024
0.17532
-0.18584
-0.54699
-0.82223
-1.02560
-1.19215
-1.29997
-1.31575
-1.20793
-1.01420
-0.76876
-0.52946
-0.34187
-0.21827
-0.14727
-0.10782
-0.07626
-0.04646
-0.01666
0.00614
0.01753
0.01578
0.00701
-0.00263
-0.00526
0.00263
0.01315
0.03419
0.04383
0.04120
0.02805
0.01315
0.00614
0.00877
0.02191
0.03682
0.04821
0.05347
0.04295
0.03243
0.01841
0.01490
0.02630
0.04208
0.05698
0.06399
0.05347
0.03857
0.01928
0.01490
0.02279
0.03682
0.05522
0.06750
0.06574
0.05698
0.04383
0.03243
0.02980
0.04120
0.06048
0.07276
0.07539
0.06750
0.04997
0.03769
0.03506
0.04295
0.06048
0.07276
0.07889
0.07626
0.06750
0.05347
0.04646
0.05610
0.07188
0.08678
0.09730
0.09204
0.08240
0.06837
0.06136
0.06399
0.07276
0.09029
0.10607
0.10957
0.10256
0.08853
0.07714
0.07539
0.08240
0.09642
0.11133
0.12272
0.12097
0.11220
0.09467
0.08590
0.09642
0.10782
0.12535
0.13412
0.13499
0.12360
0.11220
0.10256
0.10344
0.11659
0.13149
0.13850
0.13587
0.12360
0.10870
0.09730
0.09467
0.10607
0.12097
0.13587
0.14025
0.13236
0.11133
0.09029
0.07013
0.06487
0.07626
0.08415
0.08503
0.07363
0.05172
0.02630
0.01227
0.00964
0.01403
0.02279
0.02893
0.02279
0.00877
-0.00964
-0.02630
-0.02980
-0.02980
-0.01928
-0.00789
-0.00877
-0.02104
-0.03945
-0.05610
-0.06750
-0.06662
-0.05435
-0.03506
-0.02630
-0.02893
-0.04471
-0.06136
-0.07626
-0.07626
-0.06048
-0.04032
-0.03156
-0.02980
-0.04471
-0.06487
-0.08065
-0.08853
-0.08240
-0.06224
-0.04032
-0.03156
-0.03331
-0.04909
-0.06925
-0.08240
-0.08152
-0.06925
-0.05435
-0.03945
-0.04208
-0.05610
-0.07451
-0.08678
-0.08678
-0.07802
-0.06048
-0.04383
-0.04032
-0.04734
-0.06048
-0.07188
-0.06399
-0.04558
-0.01841
0.00789
0.02542
0.02630
0.01753
0.00789
0.00175
0.00701
0.01315
0.02191
0.02542
0.01403
-0.00789
-0.03243
-0.05084
-0.05172
-0.04295
-0.03331
-0.02980
-0.04032
-0.06311
-0.09116
-0.11045
-0.11834
-0.10957
-0.09467
-0.08328
-0.07626
-0.07889
-0.09379
-0.11396
-0.12360
-0.11834
-0.10431
-0.08590
-0.07626
-0.07889
-0.09379
-0.11045
-0.12184
-0.12535
-0.12184
-0.10607
-0.08590
-0.07977
-0.09029
-0.10168
-0.11571
-0.11659
-0.10782
-0.09116
-0.07451
-0.06311
-0.06311
-0.07539
-0.09379
-0.09642
-0.04646
0.06837
0.21739
0.35151
0.45232
0.49001
0.41199
0.18145
-0.17707
-0.55838
-0.84415
-1.04050
-1.18426
-1.28682
-1.31838
-1.26140
-1.11151
-0.89061
-0.63990
-0.41287
-0.24544
-0.14551
-0.09292
-0.06311
-0.04471
-0.02980
-0.01140
0.01227
0.02980
0.03506
0.02454
0.00964
0.00175
0.00701
0.02367
0.04383
0.06048
0.06487
0.05785
0.04471
0.02980
0.02191
0.02980
0.04821
0.06487
0.07013
0.06311
0.04646
0.02980
0.01841
0.02191
0.03857
0.05873
0.07188
0.07188
0.05961
0.04471
0.03331
0.03331
0.04208
0.05873
0.07188
0.07539
0.06837
0.05522
0.04295
0.04032
0.04997
0.06487
0.07977
0.08853
0.08678
0.07188
0.05522
0.04646
0.05172
0.06837
0.08503
0.09292
0.09204
0.07977
0.06487
0.05347
0.05347
0.06837
0.08853
0.10519
0.10957
0.10344
0.09029
0.07539
0.07013
0.07977
0.10168
0.11659
0.12360
0.11834
0.10519
0.09379
0.09029
0.09642
0.10957
0.12447
0.13324
0.13499
0.12535
0.11045
0.09818
0.09204
0.10256
0.12272
0.13938
0.14814
0.14025
0.12535
0.11396
0.10957
0.11659
0.12973
0.14464
0.15340
0.14814
0.13499
0.12009
0.11220
0.11659
0.12973
0.14464
0.15340
0.14902
0.13499
0.11746
0.10081
0.09467
0.10168
0.10782
0.11308
0.10870
0.09204
0.06925
0.04734
0.03331
0.02980
0.03594
0.04032
0.04032
0.02454
0.00263
-0.02104
-0.03594
-0.04032
-0.03331
-0.02367
-0.02279
-0.03156
-0.04734
-0.06750
-0.07802
-0.07977
-0.07363
-0.06048
-0.04909
-0.04821
-0.05610
-0.07276
-0.08590
-0.09029
-0.08415
-0.07100
-0.05873
-0.05172
-0.05610
-0.06925
-0.08415
-0.09029
-0.08415
-0.06750
-0.05347
-0.04646
-0.05084
-0.06399
-0.07626
-0.08590
-0.08678
-0.07539
-0.06048
-0.05172
-0.05347
-0.06136
-0.07451
-0.08941
-0.09204
-0.08415
-0.06487
-0.03945
-0.02104
-0.01490
-0.01841
-0.02279
-0.02191
-0.01052
0.00701
0.02454
0.03594
0.03068
0.00964
-0.01490
-0.03682
-0.04471
-0.03594
-0.02104
-0.00877
-0.01140
-0.02980
-0.05785
-0.08853
-0.10607
-0.10694
-0.10168
-0.09379
-0.09029
-0.09642
-0.11483
-0.13412
-0.14288
-0.13938
-0.12623
-0.10782
-0.09730
-0.09818
-0.10870
-0.12710
-0.14113
-0.14201
-0.13061
-0.11045
-0.09379
-0.09029
-0.09555
-0.11220
-0.12623
-0.12710
-0.11922
-0.10607
-0.09116
-0.08240
-0.08590
-0.09905
-0.11659
-0.12535
-0.11922
-0.10607
-0.08503
-0.04821
0.02279
0.12447
0.23755
0.34713
0.43128
0.43654
0.29979
0.00088
-0.38745
-0.74246
-0.99843
-1.17550
-1.29296
-1.33854
-1.28945
-1.15095
-0.95109
-0.73195
-0.52332
-0.35589
-0.23668
-0.15428
-0.09292
-0.04646
-0.01578
-0.00526
-0.00789
-0.01841
-0.02805
-0.02454
-0.01140
0.00614
0.02367
0.02980
0.02104
0.00964
-0.00088
-0.00526
0.00351
0.02191
0.03857
0.04471
0.04208
0.02893
0.01403
0.00701
0.01052
0.02630
0.04383
0.05259
0.04909
0.03682
0.02104
0.01227
0.01315
0.02367
0.03857
0.05347
0.05961
0.04909
0.03156
0.01928
0.01490
0.02630
0.04383
0.05873
0.06487
0.05961
0.04646
0.02630
0.01490
0.02104
0.03594
0.05610
0.06750
0.07013
0.06399
0.05172
0.04208
0.04032
0.05084
0.06837
0.08065
0.08503
0.07626
0.06487
0.05435
0.04997
0.05873
0.07626
0.09292
0.09993
0.09467
0.08152
0.06925
0.06487
0.06750
0.08065
0.09818
0.10782
0.10957
0.09905
0.08152
0.07188
0.07276
0.08328
0.10081
0.11571
0.11746
0.11220
0.09905
0.08766
0.08503
0.09029
0.10344
0.12097
0.12973
0.12184
0.10694
0.09204
0.08240
0.08240
0.09555
0.11308
0.12272
0.11922
0.10694
0.09204
0.07977
0.07802
0.08240
0.09292
0.10256
0.10256
0.08941
0.06662
0.04734
0.03506
0.03243
0.04032
0.04734
0.04471
0.02893
0.00701
-0.01578
-0.03068
-0.03243
-0.02454
-0.01490
-0.00964
-0.02016
-0.04032
-0.05785
-0.07276
-0.07977
-0.07188
-0.05698
-0.04471
-0.04295
-0.04997
-0.06837
-0.08503
-0.09029
-0.08503
-0.06925
-0.05172
-0.04208
-0.04558
-0.05785
-0.07276
-0.07977
-0.07451
-0.06224
-0.04471
-0.03243
-0.03243
-0.04558
-0.06311
-0.07539
-0.07977
-0.07188
-0.05698
-0.04471
-0.04295
-0.05259
-0.07013
-0.08503
-0.09029
-0.08503
-0.06750
-0.04997
-0.04208
-0.04295
-0.04734
-0.05259
-0.04997
-0.03769
-0.01490
0.01052
0.02542
0.02980
0.02454
0.01227
0.00000
-0.00526
-0.00526
0.00263
0.00964
0.00263
-0.01490
-0.03243
-0.04734
-0.06224
-0.07013
-0.06750
-0.06487
-0.07013
-0.08240
-0.09993
-0.12009
-0.13499
-0.13499
-0.12535
-0.10957
-0.09993
-0.09993
-0.10957
-0.12535
-0.13499
-0.13762
-0.12710
-0.11045
-0.09730
-0.09730
-0.10782
-0.12272
-0.13499
-0.13762
-0.12798
-0.11045
-0.09029
-0.07977
-0.08503
-0.09730
-0.11220
-0.12009
-0.11483
-0.10256
-0.08766
-0.07714
-0.07714
-0.08941
-0.09730
-0.06311
0.03594
0.18058
0.32609
0.44618
0.50491
0.43478
0.20950
-0.13149
-0.50228
-0.80645
-1.01683
-1.16322
-1.25614
-1.27280
-1.19741
-1.03875
-0.82399
-0.59432
-0.39096
-0.24018
-0.13938
-0.08065
-0.05522
-0.04734
-0.04295
-0.03506
-0.01841
0.00438
0.02016
0.02542
0.02016
0.00789
-0.00438
-0.00964
-0.00789
0.00438
0.02454
0.03769
0.03506
0.02279
0.00789
-0.00263
0.00000
0.01227
0.02980
0.04208
0.04295
0.03068
0.01490
0.00526
0.00701
0.02191
0.03682
0.05172
0.05785
0.04821
0.03068
0.01578
0.01227
0.01928
0.03156
0.04734
0.05698
0.05522
0.04558
0.03068
0.02016
0.02454
0.03419
0.04909
0.06224
0.06311
0.05347
0.04295
0.03769
0.03769
0.04646
0.06224
0.07451
0.07977
0.07276
0.06048
0.05084
0.04471
0.05172
0.06925
0.08415
0.09204
0.09029
0.07802
0.06311
0.05259
0.05698
0.07363
0.09379
0.10694
0.10782
0.09642
0.08240
0.07802
0.07977
0.09379
0.11133
0.12184
0.12272
0.11308
0.09642
0.08065
0.07714
0.08415
0.09905
0.11659
0.12973
0.13061
0.11834
0.10519
0.09993
0.10431
0.11922
0.13236
0.13762
0.13762
0.12623
0.10870
0.09555
0.09204
0.10168
0.11834
0.13236
0.13324
0.12097
0.09905
0.07626
0.06048
0.05698
0.06399
0.07451
0.07802
0.06662
0.04208
0.01666
0.00088
-0.00526
-0.00088
0.00701
0.00789
0.00088
-0.01578
-0.03857
-0.05172
-0.05522
-0.04821
-0.03594
-0.02805
-0.02717
-0.03857
-0.05610
-0.07100
-0.07977
-0.07539
-0.06399
-0.04909
-0.04032
-0.04383
-0.05873
-0.07451
-0.08240
-0.08328
-0.07188
-0.05347
-0.04120
-0.03945
-0.05084
-0.06837
-0.07977
-0.07977
-0.07188
-0.05610
-0.04558
-0.04208
-0.05084
-0.06837
-0.08590
-0.09467
-0.08853
-0.07363
-0.06048
-0.05259
-0.05435
-0.06837
-0.08590
-0.09730
-0.09555
-0.08152
-0.06224
-0.04208
-0.02980
-0.03243
-0.03682
-0.03594
-0.02367
-0.00526
0.01841
0.03419
0.04032
0.03419
0.01666
-0.00088
-0.00964
-0.00789
-0.00263
0.00175
0.00263
-0.00438
-0.02016
-0.04471
-0.06837
-0.07977
-0.07977
-0.07802
-0.07539
-0.08065
-0.09818
-0.11571
-0.13061
-0.13587
-0.12447
-0.10870
-0.09642
-0.09379
-0.10607
-0.12097
-0.13236
-0.13324
-0.12447
-0.10870
-0.09379
-0.08328
-0.08590
-0.10081
-0.11571
-0.12535
-0.12272
-0.11220
-0.09379
-0.08328
-0.07977
-0.08590
-0.09905
-0.10870
-0.11308
-0.10431
-0.08941
-0.07626
-0.07013
-0.06399
-0.03594
0.03682
0.15515
0.28664
0.40849
0.47160
0.41199
0.17795
-0.20074
-0.60309
-0.90376
-1.09485
-1.21932
-1.28857
-1.28945
-1.20618
-1.05540
-0.85467
-0.63377
-0.43215
-0.27086
-0.15603
-0.07977
-0.03594
-0.01841
-0.01841
-0.02717
-0.02630
-0.01403
0.00263
0.02016
0.03156
0.03156
0.02104
0.00964
-0.00175
-0.00088
0.01227
0.03068
0.04208
0.04295
0.03419
0.01928
0.00789
0.00877
0.02191
0.04032
0.05522
0.06311
0.05435
0.03945
0.02630
0.02191
0.03068
0.04558
0.05873
0.06487
0.06311
0.05259
0.03682
0.02630
0.02367
0.03682
0.05522
0.06662
0.06837
0.05785
0.03945
0.02805
0.02893
0.04032
0.05698
0.07363
0.07802
0.07188
0.05785
0.04295
0.04032
0.04383
0.05522
0.07013
0.08152
0.07977
0.06662
0.05435
0.04471
0.04821
0.06224
0.07889
0.09029
0.09818
0.08941
0.07451
0.06487
0.06662
0.07714
0.09730
0.11133
0.11483
0.10957
0.09292
0.07451
0.06662
0.07539
0.09204
0.11045
0.12009
0.11659
0.10519
0.09116
0.08328
0.08328
0.09642
0.11483
0.12798
0.13324
0.12360
0.10519
0.09292
0.09204
0.09993
0.11659
0.13149
0.13499
0.12798
0.10957
0.09642
0.09029
0.09292
0.10519
0.11834
0.12535
0.12009
0.10168
0.07802
0.06048
0.05172
0.05785
0.06837
0.07188
0.06048
0.04383
0.02191
0.00000
-0.01140
-0.01140
-0.00175
0.00526
0.00175
-0.00964
-0.02805
-0.04997
-0.05961
-0.05873
-0.04997
-0.03682
-0.02980
-0.03682
-0.05522
-0.07013
-0.07977
-0.07539
-0.06048
-0.04646
-0.03857
-0.03857
-0.04997
-0.06662
-0.07977
-0.07977
-0.07363
-0.05347
-0.03682
-0.03331
-0.04471
-0.05785
-0.07013
-0.07802
-0.07013
-0.05698
-0.04646
-0.04032
-0.04471
-0.06136
-0.07802
-0.08503
-0.08328
-0.07363
-0.05698
-0.04734
-0.04295
-0.05347
-0.06311
-0.06837
-0.05873
-0.03769
-0.01052
0.01490
0.02630
0.02542
0.01227
0.00351
0.00175
0.00789
0.01841
0.02542
0.02191
0.01052
-0.00789
-0.02980
-0.04120
-0.04471
-0.04383
-0.04032
-0.04295
-0.05435
-0.07363
-0.10081
-0.11834
-0.12535
-0.12097
-0.10519
-0.09204
-0.08678
-0.09292
-0.10607
-0.12272
-0.12886
-0.12097
-0.10519
-0.09029
-0.07977
-0.08328
-0.09555
-0.11396
-0.12535
-0.12097
-0.10431
-0.08678
-0.07889
-0.07626
-0.08590
-0.10256
-0.11308
-0.11746
-0.10431
-0.08590
-0.07100
-0.06311
-0.07451
-0.09029
-0.10957
-0.10870
-0.05172
0.06224
0.21213
0.35063
0.44706
0.47861
0.38833
0.12973
-0.23580
-0.58906
-0.84765
-1.02648
-1.16673
-1.26228
-1.27981
-1.19566
-1.01771
-0.78717
-0.54786
-0.34274
-0.20512
-0.12798
-0.08853
-0.06574
-0.04997
-0.02980
-0.00789
0.01578
0.03156
0.03243
0.02104
0.00614
-0.00526
-0.00088
0.01403
0.02893
0.04120
0.04383
0.03594
0.02191
0.01403
0.01140
0.01928
0.03243
0.04295
0.04997
0.04734
0.03506
0.01841
0.01666
0.02542
0.04295
0.05435
0.06399
0.05610
0.04120
0.02630
0.01490
0.01928
0.03419
0.04734
0.05610
0.05785
0.04734
0.03594
0.02367
0.02279
0.03419
0.04997
0.06662
0.06837
0.06224
0.05084
0.03857
0.03594
0.04471
0.06399
0.07714
0.08503
0.08240
0.07276
0.06224
0.05610
0.06224
0.07363
0.08853
0.10081
0.10256
0.09029
0.07100
0.05961
0.06136
0.07013
0.09116
0.11133
0.11396
0.10782
0.09642
0.08240
0.07714
0.08853
0.10344
0.11746
0.12360
0.11746
0.10607
0.09292
0.08503
0.08590
0.09467
0.11220
0.12097
0.12272
0.11220
0.10168
0.09029
0.09379
0.10694
0.12009
0.13587
0.13850
0.13149
0.11659
0.10256
0.09467
0.09818
0.11308
0.12710
0.13499
0.13061
0.10957
0.08503
0.06925
0.06574
0.07188
0.08152
0.08415
0.07539
0.05347
0.02542
0.00701
-0.00351
0.00351
0.01578
0.02016
0.01928
0.00964
-0.01578
-0.03945
-0.05522
-0.05172
-0.03682
-0.02191
-0.00964
-0.01403
-0.03419
-0.05259
-0.06136
-0.06311
-0.05084
-0.03156
-0.01928
-0.01841
-0.03331
-0.04821
-0.06224
-0.06925
-0.06136
-0.04558
-0.02893
-0.02630
-0.03243
-0.04295
-0.05698
-0.06399
-0.05785
-0.04646
-0.03419
-0.02980
-0.03331
-0.04821
-0.06311
-0.07626
-0.07714
-0.06224
-0.04558
-0.02980
-0.03243
-0.04383
-0.06399
-0.07977
-0.07889
-0.07100
-0.05259
-0.04208
-0.02980
-0.03068
-0.03682
-0.04383
-0.03769
-0.02454
0.00000
0.02367
0.04120
0.04383
0.03769
0.02717
0.01315
0.00438
0.00175
0.01227
0.01928
0.01315
0.00175
-0.01403
-0.03419
-0.05084
-0.05522
-0.05435
-0.05084
-0.05785
-0.07539
-0.10344
-0.12184
-0.12886
-0.12097
-0.10344
-0.09204
-0.07977
-0.08152
-0.09292
-0.10782
-0.11922
-0.11220
-0.09730
-0.08328
-0.07363
-0.07188
-0.08240
-0.09818
-0.10957
-0.10782
-0.09642
-0.07802
-0.06925
-0.06487
-0.06750
-0.08240
-0.09642
-0.10431
-0.09730
-0.08152
-0.06311
-0.05522
-0.05785
-0.07188
-0.07100
-0.00964
0.10870
0.24369
0.37430
0.47335
0.49352
0.36641
0.06837
-0.33924
-0.70915
-0.94846
-1.10625
-1.21757
-1.28156
-1.27630
-1.18163
-1.00807
-0.78805
-0.54699
-0.33836
-0.19285
-0.10081
-0.05084
-0.02893
-0.02454
-0.01928
-0.01140
0.00877
0.03243
0.04558
0.04821
0.03769
0.02279
0.00964
0.01052
0.01928
0.04208
0.05698
0.06399
0.05785
0.04295
0.02805
0.02191
0.03243
0.04821
0.06662
0.07539
0.07363
0.06136
0.03857
0.02980
0.03243
0.04821
0.06750
0.08065
0.08240
0.06837
0.05698
0.04032
0.04120
0.05259
0.06750
0.08065
0.08328
0.07363
0.06224
0.04383
0.04032
0.04821
0.06750
0.08152
0.08941
0.08328
0.07276
0.05873
0.05084
0.05698
0.07188
0.08766
0.10607
0.10782
0.09292
0.07802
0.06487
0.06662
0.07802
0.09730
0.11045
0.11396
0.10782
0.09379
0.08415
0.08065
0.08678
0.10168
0.11659
0.12447
0.11834
0.10782
0.09467
0.09029
0.09292
0.11308
0.13149
0.14025
0.14376
0.13324
0.11834
0.10519
0.10607
0.11746
0.13675
0.15077
0.15428
0.14814
0.13412
0.12360
0.11659
0.12623
0.13675
0.15077
0.15515
0.15340
0.14288
0.12886
0.12009
0.12184
0.13587
0.14113
0.14902
0.14376
0.13149
0.10782
0.08941
0.08503
0.08590
0.09029
0.09467
0.09292
0.07714
0.05698
0.03243
0.01490
0.01490
0.01578
0.02542
0.02805
0.01227
-0.00701
-0.02630
-0.03594
-0.03857
-0.02893
-0.01928
-0.01490
-0.01666
-0.03243
-0.05172
-0.06574
-0.07451
-0.06837
-0.05259
-0.03506
-0.03682
-0.05172
-0.06662
-0.07977
-0.07977
-0.07276
-0.05347
-0.03857
-0.03068
-0.04120
-0.05698
-0.07100
-0.07977
-0.07802
-0.05873
-0.04383
-0.02980
-0.03068
-0.04120
-0.05698
-0.07013
-0.07363
-0.05873
-0.04383
-0.02980
-0.02980
-0.03156
-0.04558
-0.05522
-0.05259
-0.03243
-0.00789
0.01666
0.03506
0.03945
0.02893
0.01928
0.01490
0.01578
0.02542
0.03068
0.03419
0.02367
0.00789
-0.01666
-0.03594
-0.04471
-0.04471
-0.03945
-0.03594
-0.04646
-0.06750
-0.09204
-0.11571
-0.12535
-0.12360
-0.10870
-0.09379
-0.08503
-0.09116
-0.10694
-0.12623
-0.13499
-0.13412
-0.11834
-0.09905
-0.08941
-0.08590
-0.09642
-0.11133
-0.12535
-0.12447
-0.11834
-0.09818
-0.07977
-0.07977
-0.08152
-0.09555
-0.10519
-0.10957
-0.10344
-0.08853
-0.07363
-0.06048
-0.06574
-0.08152
-0.10081
-0.10256
-0.06837
0.02542
0.16129
0.30417
0.42076
0.48913
0.46722
0.28051
-0.05961
-0.45319
-0.76526
-0.97125
-1.12290
-1.23423
-1.29296
-1.26052
-1.12027
-0.90814
-0.66357
-0.43215
-0.25771
-0.15165
-0.09818
-0.06925
-0.05347
-0.03331
-0.00877
0.01140
0.03068
0.03419
0.02454
0.01403
0.00526
0.00526
0.01666
0.03594
0.04558
0.05435
0.04909
0.03419
0.01928
0.01490
0.02104
0.04120
0.05522
0.06487
0.06399
0.05435
0.03945
0.02542
0.02542
0.04120
0.06048
0.07013
0.07451
0.06399
0.04909
0.03945
0.03506
0.04120
0.06048
0.07013
0.07451
0.06399
0.04909
0.03945
0.03506
0.04120
0.06048
0.07539
0.08503
0.07889
0.06399
0.04909
0.04032
0.04558
0.06136
0.08065
0.09029
0.08941
0.08415
0.06487
0.05522
0.05522
0.06574
0.08590
0.09993
0.10431
0.09467
0.08415
0.07013
0.06574
0.07539
0.09116
0.11045
0.11483
0.10957
0.09905
0.08503
0.07539
0.08065
0.09029
0.11045
0.12009
0.12447
0.11483
0.09905
0.08503
0.08503
0.09555
0.11045
0.12973
0.13499
0.12447
0.10957
0.09467
0.08503
0.09555
0.11045
0.12973
0.13499
0.13499
0.11922
0.10431
0.09029
0.09029
0.10519
0.12009
0.12973
0.12447
0.10957
0.08503
0.07013
0.06487
0.06487
0.07539
0.08503
0.07977
0.06487
0.03945
0.01490
0.00526
0.00000
0.01052
0.01490
0.02016
0.00964
-0.00526
-0.03068
-0.04471
-0.04471
-0.03506
-0.02454
-0.00964
-0.01490
-0.03068
-0.04997
-0.06487
-0.07013
-0.05522
-0.03945
-0.02980
-0.02542
-0.02980
-0.04997
-0.06048
-0.07013
-0.06487
-0.04997
-0.02980
-0.02542
-0.02542
-0.04032
-0.05522
-0.06487
-0.06487
-0.05522
-0.04032
-0.02980
-0.02980
-0.03506
-0.04997
-0.06487
-0.06487
-0.05522
-0.04471
-0.02980
-0.02980
-0.04032
-0.05522
-0.07977
-0.08503
-0.07977
-0.05961
-0.03506
-0.02542
-0.02016
-0.02980
-0.02980
-0.02980
-0.02542
0.00000
0.02454
0.04471
0.05522
0.04997
0.03506
0.02016
0.00964
0.00964
0.01490
0.02454
0.02542
0.01052
-0.00964
-0.02980
-0.04997
-0.04997
-0.04471
-0.04471
-0.04471
-0.05522
-0.07977
-0.09993
-0.12009
-0.12535
-0.11483
-0.09993
-0.08503
-0.07977
-0.08941
-0.10519
-0.12009
-0.12535
-0.11045
-0.09029
-0.07977
-0.07539
-0.07977
-0.09467
-0.10519
-0.10957
-0.10519
-0.09993
-0.08503
-0.07977
-0.07977
-0.08503
-0.09993
-0.09993
-0.09555
-0.08065
-0.06048
-0.04997
-0.05522
-0.06925
-0.07977
-0.05084
0.05172
0.20074
0.34099
0.45670
0.52770
0.48124
0.24194
-0.13850
-0.53734
-0.84064
-1.03437
-1.17550
-1.26228
-1.27455
-1.20705
-1.06505
-0.85730
-0.62325
-0.40235
-0.23054
-0.12360
-0.06224
-0.03594
-0.02980
-0.02542
-0.01578
0.00438
0.02454
0.03945
0.04471
0.04032
0.02542
0.01052
0.00964
0.01928
0.03945
0.05873
0.06487
0.06487
0.05084
0.03594
0.02542
0.02542
0.03945
0.05435
0.06487
0.07013
0.06048
0.04120
0.03068
0.02542
0.03945
0.05435
0.06925
0.07451
0.06574
0.04558
0.03068
0.02016
0.02980
0.04383
0.06399
0.07889
0.07539
0.06574
0.05084
0.04558
0.04997
0.06399
0.08415
0.09467
0.09029
0.08503
0.07100
0.06048
0.05961
0.06487
0.08415
0.09905
0.10431
0.09555
0.08590
0.07100
0.06487
0.07013
0.08415
0.10344
0.10957
0.10957
0.10081
0.08152
0.07100
0.07451
0.08415
0.09905
0.11834
0.12447
0.12009
0.11045
0.09642
0.09467
0.09993
0.11396
0.12886
0.13499
0.13061
0.11133
0.10081
0.09555
0.10870
0.13324
0.14902
0.15428
0.15515
0.14551
0.13587
0.12097
0.11571
0.12886
0.14814
0.15428
0.15515
0.14113
0.12623
0.11133
0.10957
0.11922
0.12886
0.13499
0.13499
0.13061
0.11133
0.09204
0.08065
0.07977
0.08415
0.08941
0.08503
0.07626
0.05172
0.03156
0.01666
0.01052
0.01490
0.02454
0.02980
0.02104
0.00614
-0.01753
-0.03331
-0.04383
-0.04032
-0.03068
-0.01666
-0.01052
-0.02367
-0.04295
-0.05435
-0.06399
-0.06048
-0.05084
-0.03156
-0.02980
-0.02980
-0.04821
-0.06399
-0.07889
-0.07539
-0.05698
-0.03682
-0.02630
-0.02980
-0.03945
-0.05347
-0.07276
-0.07539
-0.05698
-0.04120
-0.03068
-0.02980
-0.03857
-0.05347
-0.06837
-0.07889
-0.07539
-0.06136
-0.05084
-0.04558
-0.04909
-0.05873
-0.07363
-0.07977
-0.07100
-0.04734
-0.01841
0.00701
0.01490
0.01490
0.00175
-0.00438
-0.00088
0.01315
0.02805
0.03857
0.03068
0.01666
-0.00701
-0.02805
-0.04295
-0.04032
-0.03156
-0.02104
-0.02016
-0.03331
-0.05698
-0.08678
-0.10782
-0.11483
-0.10607
-0.09642
-0.09029
-0.09467
-0.10344
-0.12272
-0.13412
-0.13499
-0.12623
-0.11220
-0.09642
-0.09029
-0.09905
-0.11308
-0.12360
-0.12973
-0.12535
-0.11220
-0.09642
-0.08590
-0.08941
-0.10344
-0.11834
-0.12447
-0.12097
-0.10694
-0.08766
-0.07626
-0.07100
-0.07889
-0.09730
-0.10870
-0.11396
-0.10168
-0.04734
0.06048
0.18846
0.30505
0.40235
0.45845
0.42602
0.24632
-0.08328
-0.47248
-0.78892
-1.01157
-1.18251
-1.29997
-1.35432
-1.30348
-1.15270
-0.93093
-0.69250
-0.46546
-0.30593
-0.20337
-0.13850
-0.09555
-0.05522
-0.02016
0.00614
0.01841
0.01578
0.00614
-0.00351
-0.00964
-0.00614
0.01227
0.02805
0.03857
0.03594
0.02191
0.01140
0.00614
0.00964
0.01841
0.03682
0.04821
0.04997
0.04120
0.02279
0.01578
0.01052
0.01841
0.03682
0.04821
0.05435
0.05084
0.03769
0.02191
0.01578
0.01928
0.03682
0.05259
0.06311
0.06048
0.04295
0.03156
0.02191
0.02805
0.04295
0.06224
0.07363
0.07539
0.06662
0.04821
0.03243
0.02980
0.03857
0.06136
0.07363
0.07889
0.07539
0.06662
0.04821
0.04120
0.04821
0.06224
0.07714
0.08415
0.08503
0.07626
0.06224
0.05172
0.05435
0.06750
0.08678
0.10256
0.10519
0.09642
0.08678
0.07276
0.06574
0.07714
0.09204
0.10782
0.11396
0.10694
0.08853
0.08065
0.07977
0.08415
0.10168
0.11746
0.12798
0.12623
0.11220
0.09730
0.08678
0.09292
0.10694
0.12623
0.13412
0.13499
0.12710
0.11308
0.09730
0.08678
0.09292
0.10694
0.12272
0.12886
0.12184
0.10344
0.08766
0.07714
0.07539
0.08328
0.09730
0.09993
0.08766
0.06837
0.04471
0.02367
0.01578
0.02279
0.02893
0.03419
0.02279
0.00789
-0.01490
-0.03243
-0.04295
-0.04471
-0.03243
-0.02191
-0.02367
-0.02893
-0.04997
-0.06750
-0.07802
-0.07977
-0.06399
-0.05172
-0.04208
-0.04383
-0.05698
-0.07626
-0.08766
-0.09029
-0.08240
-0.05961
-0.04734
-0.04471
-0.05259
-0.06662
-0.07802
-0.07977
-0.07188
-0.05785
-0.04295
-0.03594
-0.04295
-0.05698
-0.07626
-0.07977
-0.07977
-0.06399
-0.04821
-0.04120
-0.04383
-0.05698
-0.07188
-0.07889
-0.07626
-0.05873
-0.03156
-0.00877
0.00263
0.00088
-0.00438
-0.00526
-0.00526
0.00701
0.02542
0.04208
0.04120
0.02454
0.00000
-0.02454
-0.03419
-0.03068
-0.02191
-0.01227
-0.01403
-0.02717
-0.05347
-0.08328
-0.10607
-0.11746
-0.11220
-0.10256
-0.09642
-0.09905
-0.10782
-0.12184
-0.13675
-0.14025
-0.12798
-0.11308
-0.09818
-0.09116
-0.09818
-0.11133
-0.12710
-0.13412
-0.12710
-0.11308
-0.09818
-0.08766
-0.09292
-0.10256
-0.11659
-0.12360
-0.12097
-0.10431
-0.08415
-0.07188
-0.07013
-0.07802
-0.09555
-0.10782
-0.11396
-0.10694
-0.08152
-0.02542
0.06662
0.19022
0.30417
0.39884
0.46196
0.42514
0.22966
-0.10870
-0.48212
-0.78805
-1.01157
-1.18601
-1.29734
-1.32013
-1.23598
-1.05716
-0.83100
-0.59958
-0.40410
-0.26823
-0.18321
-0.12360
-0.07539
-0.03419
-0.00263
0.01227
0.01490
0.00701
-0.00263
-0.00877
-0.00614
0.01052
0.02630
0.03769
0.04032
0.02893
0.01403
0.00263
0.00351
0.01666
0.03506
0.05172
0.05084
0.04208
0.02454
0.01227
0.00964
0.01753
0.03506
0.05522
0.06399
0.05785
0.04383
0.02542
0.01666
0.02279
0.04032
0.05961
0.07276
0.06750
0.05347
0.03506
0.02279
0.02717
0.04120
0.05961
0.07626
0.08328
0.07363
0.06224
0.04558
0.04032
0.05522
0.07100
0.08240
0.08503
0.08152
0.06925
0.05435
0.04646
0.05610
0.07100
0.08941
0.10256
0.10168
0.08941
0.07363
0.06662
0.06487
0.07977
0.09642
0.11133
0.11834
0.11308
0.09905
0.08766
0.08503
0.09555
0.11133
0.12973
0.13850
0.13675
0.12009
0.10431
0.09292
0.09730
0.11483
0.13061
0.14201
0.14113
0.13236
0.11571
0.10256
0.10344
0.11220
0.12973
0.14201
0.14464
0.13762
0.12447
0.11308
0.10957
0.12097
0.13587
0.15077
0.15165
0.13938
0.12447
0.10607
0.08941
0.08503
0.09204
0.10256
0.10519
0.09818
0.08065
0.06048
0.04471
0.04032
0.04734
0.05698
0.06399
0.05785
0.03682
0.00877
-0.01403
-0.02717
-0.01928
-0.00789
0.00526
0.00614
-0.00526
-0.02454
-0.04032
-0.04821
-0.04646
-0.03419
-0.02279
-0.01315
-0.01315
-0.02542
-0.04032
-0.05172
-0.05522
-0.04471
-0.02980
-0.01841
-0.01140
-0.02016
-0.03594
-0.04734
-0.04997
-0.03945
-0.02454
-0.01315
-0.00614
-0.01578
-0.03419
-0.05084
-0.05522
-0.05172
-0.03594
-0.02279
-0.01666
-0.02191
-0.03506
-0.05084
-0.06224
-0.06136
-0.04646
-0.01928
0.00351
0.01315
0.01140
0.00614
0.00526
0.01227
0.02542
0.04383
0.06048
0.06837
0.05961
0.03419
0.00789
-0.00351
-0.00526
0.00175
0.01227
0.01490
0.00088
-0.02191
-0.05435
-0.07889
-0.08853
-0.08678
-0.07802
-0.06837
-0.06837
-0.07714
-0.09379
-0.10694
-0.11308
-0.10519
-0.08941
-0.07802
-0.07539
-0.07802
-0.09379
-0.11396
-0.12360
-0.11834
-0.10519
-0.08678
-0.07626
-0.07802
-0.09029
-0.10168
-0.11133
-0.10870
-0.09818
-0.08152
-0.06487
-0.05698
-0.06487
-0.07977
-0.09467
-0.09993
-0.09292
-0.08328
-0.06662
-0.04032
0.02367
0.12710
0.24544
0.35502
0.44004
0.44793
0.30680
-0.00263
-0.40060
-0.75211
-0.99930
-1.16936
-1.27981
-1.31663
-1.26403
-1.12553
-0.93093
-0.71441
-0.50491
-0.33924
-0.21739
-0.13061
-0.06574
-0.01841
0.00789
0.01490
0.00877
-0.00175
-0.00526
0.00175
0.01841
0.03769
0.05172
0.05522
0.04558
0.02717
0.01666
0.01841
0.03331
0.05347
0.06311
0.06487
0.05522
0.04383
0.03331
0.03331
0.04120
0.05785
0.07188
0.07539
0.06837
0.05522
0.04383
0.03682
0.03857
0.05610
0.07188
0.07802
0.07363
0.06048
0.04558
0.04032
0.04295
0.05785
0.07802
0.09116
0.09204
0.08328
0.07013
0.05522
0.04997
0.05961
0.07451
0.08678
0.09292
0.08853
0.07188
0.05873
0.05172
0.05961
0.07802
0.09730
0.11133
0.11220
0.09730
0.08065
0.06837
0.07100
0.08415
0.10256
0.11659
0.11659
0.10870
0.09555
0.08678
0.08503
0.09467
0.10957
0.12447
0.13324
0.12886
0.11571
0.10694
0.10168
0.10344
0.11396
0.12973
0.14113
0.14464
0.13587
0.11746
0.10694
0.10782
0.12272
0.13938
0.15165
0.15515
0.14551
0.13061
0.11571
0.10957
0.11659
0.12886
0.14464
0.15340
0.14551
0.12798
0.11045
0.10168
0.10607
0.11659
0.12623
0.12973
0.12097
0.10256
0.08240
0.06925
0.06224
0.06311
0.06487
0.06487
0.05873
0.04295
0.01666
-0.00701
-0.01841
-0.01666
-0.00877
0.00088
0.00175
-0.00877
-0.02367
-0.04208
-0.05259
-0.05522
-0.04558
-0.03419
-0.02980
-0.03945
-0.05435
-0.07188
-0.08328
-0.08240
-0.07363
-0.06136
-0.04558
-0.04032
-0.04909
-0.06662
-0.08065
-0.08240
-0.07363
-0.05785
-0.03769
-0.02980
-0.03331
-0.04734
-0.06399
-0.07626
-0.07714
-0.06311
-0.04909
-0.03945
-0.04120
-0.05347
-0.06925
-0.07802
-0.07451
-0.05259
-0.02542
-0.00351
0.00789
0.00964
0.00438
-0.00263
0.00088
0.01403
0.03156
0.04295
0.04208
0.02805
0.00526
-0.01666
-0.02805
-0.02980
-0.02454
-0.01666
-0.02104
-0.03682
-0.05961
-0.08415
-0.10694
-0.11834
-0.11396
-0.10431
-0.09379
-0.09292
-0.10081
-0.11659
-0.13061
-0.13499
-0.12886
-0.11308
-0.09905
-0.09204
-0.09555
-0.10870
-0.12360
-0.13324
-0.12886
-0.11659
-0.10431
-0.09467
-0.09292
-0.10081
-0.11396
-0.12272
-0.11922
-0.10607
-0.09116
-0.08240
-0.07977
-0.08328
-0.09379
-0.10607
-0.10957
-0.10168
-0.06136
0.02191
0.13061
0.24807
0.35063
0.42690
0.43478
0.30943
0.03331
-0.33485
-0.67672
-0.93093
-1.11764
-1.25176
-1.32539
-1.30611
-1.17988
-0.97564
-0.74071
-0.51455
-0.33573
-0.22002
-0.14902
-0.09993
-0.05785
-0.02016
0.00614
0.01753
0.01753
0.00701
-0.00263
-0.00526
0.00088
0.01578
0.03331
0.04558
0.04734
0.03682
0.02191
0.01227
0.01315
0.02630
0.04295
0.05259
0.05522
0.04646
0.03156
0.01928
0.01490
0.02630
0.04558
0.06048
0.06487
0.05961
0.04646
0.03156
0.02542
0.02805
0.03857
0.05610
0.06487
0.06487
0.05698
0.04208
0.02980
0.03068
0.04295
0.05785
0.07013
0.07188
0.06487
0.04909
0.03769
0.03769
0.04558
0.05785
0.07539
0.08503
0.07977
0.06662
0.05172
0.04471
0.04997
0.06574
0.08328
0.09555
0.09730
0.08678
0.07188
0.06224
0.06224
0.07276
0.08766
0.10256
0.10694
0.09730
0.08240
0.07013
0.06750
0.07802
0.09818
0.11483
0.12272
0.11746
0.10168
0.08941
0.08503
0.09029
0.10256
0.12009
0.13236
0.13236
0.11922
0.10519
0.09467
0.09292
0.10256
0.11746
0.13061
0.13236
0.12184
0.10694
0.09204
0.08503
0.09555
0.11308
0.12798
0.13236
0.12184
0.10431
0.08766
0.07451
0.07276
0.07977
0.09029
0.09467
0.08766
0.07013
0.04734
0.02454
0.01490
0.01753
0.02542
0.02980
0.02454
0.00964
-0.01315
-0.03243
-0.04295
-0.04032
-0.02980
-0.02016
-0.01490
-0.02279
-0.04032
-0.05785
-0.06750
-0.06487
-0.05522
-0.04208
-0.03243
-0.03243
-0.04471
-0.06224
-0.07539
-0.07714
-0.06487
-0.04734
-0.03506
-0.02980
-0.03769
-0.04997
-0.05961
-0.06487
-0.05785
-0.04032
-0.02717
-0.02542
-0.02717
-0.04208
-0.05961
-0.06487
-0.06048
-0.04471
-0.03243
-0.02980
-0.03243
-0.04471
-0.06224
-0.07451
-0.07539
-0.06048
-0.04032
-0.02016
-0.00789
-0.00701
-0.01227
-0.01490
-0.01227
0.00000
0.02191
0.04208
0.05259
0.04734
0.02805
0.00526
-0.00964
-0.01490
-0.01052
0.00000
0.00526
0.00000
-0.01666
-0.04646
-0.07451
-0.08766
-0.09029
-0.08503
-0.07977
-0.08240
-0.09204
-0.10957
-0.12447
-0.12973
-0.12535
-0.11045
-0.09292
-0.08503
-0.09204
-0.10694
-0.12009
-0.12535
-0.12009
-0.10782
-0.09555
-0.08766
-0.08941
-0.10168
-0.11746
-0.12535
-0.12272
-0.11045
-0.09029
-0.07802
-0.07539
-0.07977
-0.09204
-0.10256
-0.10519
-0.09993
-0.08766
-0.07539
-0.06750
-0.05785
-0.01753
0.07363
0.19548
0.32083
0.43128
0.48475
0.39972
0.13324
-0.25158
-0.62500
-0.90376
-1.10099
-1.23861
-1.30172
-1.27104
-1.14920
-0.96599
-0.75649
-0.54874
-0.37167
-0.23755
-0.14113
-0.07451
-0.03331
-0.01578
-0.01490
-0.02191
-0.02279
-0.01315
0.00438
0.02367
0.03769
0.03769
0.02805
0.01578
0.00526
0.00438
0.01928
0.03682
0.04734
0.04734
0.03857
0.02367
0.01315
0.01227
0.02191
0.03857
0.05698
0.06487
0.06311
0.05084
0.03331
0.02542
0.02980
0.04208
0.05698
0.06750
0.06750
0.05610
0.03857
0.02805
0.02980
0.04120
0.05698
0.06925
0.07276
0.06574
0.05084
0.03769
0.03682
0.04646
0.06399
0.07977
0.08503
0.08065
0.07100
0.05873
0.04821
0.05172
0.06662
0.08152
0.09467
0.09379
0.07889
0.06311
0.05259
0.05435
0.06837
0.08853
0.10431
0.10957
0.10168
0.08328
0.07276
0.07188
0.07889
0.09555
0.11659
0.12535
0.12097
0.10870
0.09379
0.08503
0.09116
0.10607
0.12360
0.13499
0.13499
0.12886
0.11396
0.10256
0.10168
0.11308
0.13149
0.14376
0.14814
0.13850
0.12360
0.11308
0.11220
0.12097
0.13587
0.14902
0.15515
0.14902
0.12973
0.10870
0.09555
0.09379
0.10431
0.11659
0.12710
0.12360
0.10870
0.09204
0.07363
0.06487
0.06487
0.06662
0.07013
0.06837
0.05522
0.02980
0.00701
-0.00701
-0.00789
0.00088
0.01227
0.01490
0.00701
-0.01315
-0.03068
-0.04208
-0.04120
-0.03068
-0.01928
-0.00964
-0.01578
-0.03068
-0.04558
-0.06136
-0.06837
-0.06136
-0.04909
-0.03594
-0.02980
-0.03594
-0.05084
-0.06399
-0.06837
-0.05698
-0.03682
-0.01928
-0.00964
-0.01753
-0.03769
-0.05785
-0.07013
-0.06574
-0.05435
-0.03945
-0.02980
-0.03594
-0.05084
-0.06750
-0.07977
-0.07802
-0.06750
-0.04909
-0.03594
-0.03156
-0.04120
-0.05347
-0.06224
-0.06136
-0.04558
-0.01841
0.00964
0.02893
0.03506
0.03156
0.02104
0.01315
0.01227
0.01841
0.02893
0.03506
0.02717
0.00701
-0.01490
-0.03156
-0.03506
-0.03331
-0.02980
-0.03594
-0.05084
-0.06750
-0.08766
-0.10607
-0.11659
-0.11659
-0.10607
-0.09642
-0.09029
-0.09379
-0.10519
-0.11834
-0.12535
-0.12272
-0.11220
-0.09467
-0.08328
-0.08328
-0.09555
-0.11220
-0.12535
-0.11922
-0.10431
-0.08941
-0.07802
-0.07539
-0.07889
-0.09029
-0.10344
-0.10782
-0.09993
-0.08240
-0.06487
-0.05522
-0.06224
-0.08065
-0.09379
-0.09642
-0.06136
0.03857
0.17970
0.31995
0.42865
0.48037
0.42952
0.23054
-0.11045
-0.49615
-0.80295
-1.00719
-1.15446
-1.25965
-1.29997
-1.24562
-1.09923
-0.90200
-0.67497
-0.44706
-0.26911
-0.16041
-0.10256
-0.07276
-0.05084
-0.02630
-0.00088
0.02367
0.04032
0.04032
0.03331
0.01666
0.00789
0.00877
0.02016
0.03331
0.04383
0.04821
0.04295
0.03331
0.01841
0.01490
0.02016
0.03682
0.05522
0.06487
0.06136
0.04997
0.03506
0.02542
0.02805
0.04032
0.05522
0.06487
0.06487
0.05785
0.04032
0.02805
0.02805
0.04032
0.05522
0.06837
0.07363
0.06662
0.05347
0.04032
0.04032
0.04646
0.06487
0.07802
0.08503
0.07802
0.06136
0.05172
0.04471
0.04997
0.06487
0.07977
0.09204
0.09204
0.07977
0.06662
0.05698
0.05347
0.06487
0.07977
0.09467
0.10694
0.10519
0.09029
0.07714
0.07188
0.07977
0.09642
0.11483
0.12535
0.12009
0.10519
0.09204
0.08503
0.08853
0.10168
0.12184
0.13499
0.13324
0.12360
0.10519
0.09467
0.09818
0.10957
0.12447
0.13850
0.14376
0.13675
0.12360
0.10957
0.10957
0.11659
0.13499
0.14814
0.15340
0.14551
0.13061
0.11659
0.10957
0.11483
0.12798
0.13938
0.15165
0.15077
0.13412
0.11396
0.09555
0.08503
0.08766
0.09993
0.10957
0.10694
0.09204
0.06574
0.03857
0.02367
0.02016
0.02279
0.02980
0.02542
0.00877
-0.01140
-0.03068
-0.04821
-0.05172
-0.04208
-0.03156
-0.02630
-0.03331
-0.04558
-0.06574
-0.08152
-0.08328
-0.07539
-0.05873
-0.04208
-0.03682
-0.04471
-0.05961
-0.07276
-0.07889
-0.06925
-0.05084
-0.03682
-0.02980
-0.03419
-0.04909
-0.06399
-0.07539
-0.07100
-0.05435
-0.03682
-0.02980
-0.03331
-0.04471
-0.06048
-0.07626
-0.07889
-0.06925
-0.05172
-0.04208
-0.03682
-0.04471
-0.05961
-0.07276
-0.07889
-0.06925
-0.04909
-0.03068
-0.02016
-0.02104
-0.02630
-0.02980
-0.02717
-0.01403
0.00438
0.02104
0.03769
0.04383
0.03419
0.01315
-0.00877
-0.02016
-0.01753
-0.00877
-0.00526
-0.00614
-0.01578
-0.03682
-0.06048
-0.07626
-0.07977
-0.07889
-0.07539
-0.07626
-0.08590
-0.10519
-0.12272
-0.13149
-0.13236
-0.11922
-0.10256
-0.09467
-0.09642
-0.10431
-0.11922
-0.13149
-0.13236
-0.12097
-0.10607
-0.09379
-0.09029
-0.09292
-0.10519
-0.12097
-0.12360
-0.11483
-0.09642
-0.08240
-0.07363
-0.07276
-0.08415
-0.09730
-0.10519
-0.10256
-0.08941
-0.07100
-0.05961
-0.05610
-0.03243
0.03068
0.13587
0.25859
0.38307
0.47686
0.47774
0.30680
-0.02805
-0.43566
-0.78016
-1.01245
-1.16410
-1.26140
-1.28594
-1.22809
-1.08959
-0.90025
-0.68549
-0.47861
-0.30593
-0.17970
-0.09029
-0.03506
-0.00263
0.00351
-0.00088
-0.00526
-0.00263
0.00964
0.02980
0.04734
0.05347
0.04734
0.03506
0.01841
0.01490
0.01753
0.02980
0.04909
0.05961
0.05610
0.04120
0.02630
0.01490
0.01841
0.03506
0.05347
0.06487
0.06224
0.05172
0.03682
0.02542
0.02717
0.03857
0.05347
0.06837
0.07802
0.06662
0.04997
0.03243
0.02630
0.03243
0.04558
0.06750
0.07539
0.07276
0.06136
0.04734
0.03857
0.03769
0.04997
0.06837
0.08152
0.08240
0.07188
0.05698
0.04471
0.04734
0.05873
0.07363
0.08590
0.08853
0.08240
0.07276
0.06311
0.05698
0.06837
0.08240
0.09379
0.10519
0.10256
0.09204
0.07626
0.06487
0.06837
0.08415
0.10256
0.11133
0.11396
0.10694
0.09204
0.07889
0.07714
0.08853
0.10344
0.11746
0.12272
0.11133
0.09642
0.08415
0.08065
0.08853
0.10431
0.12360
0.13412
0.12710
0.11220
0.09642
0.08590
0.09292
0.10782
0.12272
0.13499
0.13324
0.12184
0.10607
0.08853
0.08590
0.09292
0.10694
0.11483
0.11308
0.10081
0.08065
0.06048
0.04383
0.04120
0.04734
0.05610
0.05698
0.04120
0.02016
-0.00438
-0.02104
-0.02367
-0.01666
-0.00438
-0.00088
-0.00789
-0.02367
-0.04295
-0.05698
-0.06399
-0.05698
-0.04208
-0.02980
-0.02980
-0.03506
-0.05785
-0.07188
-0.07889
-0.07188
-0.05610
-0.03769
-0.02980
-0.03156
-0.04383
-0.06311
-0.07539
-0.07188
-0.05698
-0.04208
-0.02980
-0.03156
-0.04295
-0.05698
-0.06487
-0.06311
-0.05259
-0.03682
-0.02367
-0.02191
-0.03243
-0.04909
-0.06662
-0.07539
-0.07188
-0.05698
-0.04295
-0.03506
-0.03682
-0.04734
-0.06311
-0.07451
-0.06662
-0.04471
-0.01578
0.00701
0.01578
0.01928
0.01315
0.00526
0.00701
0.01841
0.03769
0.04909
0.04208
0.02630
0.00526
-0.01753
-0.02980
-0.02893
-0.02279
-0.00964
-0.01315
-0.03419
-0.05961
-0.08328
-0.10081
-0.10431
-0.09818
-0.08853
-0.07977
-0.08152
-0.09292
-0.10870
-0.12535
-0.12360
-0.11220
-0.09730
-0.08415
-0.07977
-0.08240
-0.09730
-0.11133
-0.11834
-0.10870
-0.09642
-0.07802
-0.07100
-0.07626
-0.08766
-0.10081
-0.10431
-0.09818
-0.08766
-0.07276
-0.05961
-0.05698
-0.06750
-0.08240
-0.09642
-0.10431
-0.09555
-0.05785
0.03068
0.16129
0.29015
0.38833
0.46371
0.47335
0.37342
0.11834
-0.25246
-0.61273
-0.88272
-1.09047
-1.24387
-1.31663
-1.27280
-1.11676
-0.89499
-0.66182
-0.45056
-0.29365
-0.19022
-0.12798
-0.08415
-0.04295
-0.00175
0.02279
0.04032
0.03769
0.02367
0.01403
0.01052
0.01753
0.03243
0.05172
0.06399
0.05698
0.03769
0.02367
0.01578
0.02191
0.03769
0.05698
0.07013
0.06925
0.06311
0.04821
0.03419
0.03156
0.04208
0.05698
0.07100
0.07451
0.06837
0.05785
0.04471
0.04032
0.04295
0.06224
0.07626
0.08503
0.08328
0.07276
0.05785
0.04471
0.04734
0.06224
0.07626
0.08503
0.08415
0.07802
0.06311
0.04909
0.04734
0.06224
0.07714
0.09029
0.09379
0.08415
0.07363
0.06399
0.06048
0.06750
0.08678
0.10081
0.10957
0.10344
0.09292
0.07889
0.07100
0.07626
0.08766
0.11133
0.12097
0.12360
0.11308
0.09818
0.08503
0.08590
0.09204
0.11133
0.12623
0.13412
0.12360
0.10870
0.09467
0.09029
0.09642
0.11220
0.13149
0.14025
0.13938
0.13236
0.11396
0.10519
0.11133
0.12184
0.13762
0.15515
0.15340
0.13850
0.12360
0.10957
0.11133
0.12710
0.14639
0.15515
0.15866
0.14814
0.12798
0.10870
0.09467
0.09116
0.10081
0.11045
0.11396
0.10256
0.08328
0.06224
0.04032
0.04032
0.04032
0.04032
0.04471
0.03769
0.01753
-0.00701
-0.02542
-0.02980
-0.02893
-0.01403
-0.00438
0.00438
-0.00614
-0.02104
-0.03068
-0.03945
-0.03419
-0.02279
-0.00526
-0.00526
-0.00701
-0.02717
-0.04646
-0.05961
-0.05873
-0.04821
-0.02893
-0.01928
-0.01666
-0.03156
-0.04646
-0.05961
-0.05961
-0.05347
-0.03857
-0.02454
-0.02104
-0.03156
-0.04558
-0.05610
-0.06487
-0.05873
-0.04295
-0.02367
-0.01052
-0.01666
-0.03243
-0.05610
-0.06487
-0.06399
-0.05259
-0.02893
-0.02016
-0.02104
-0.03068
-0.04120
-0.04997
-0.04295
-0.01753
0.01227
0.04032
0.04997
0.04383
0.03419
0.02454
0.02016
0.02630
0.04032
0.04471
0.04383
0.02893
0.00789
-0.01578
-0.02980
-0.02893
-0.01928
-0.00964
-0.01140
-0.02630
-0.05172
-0.08152
-0.09993
-0.10431
-0.09905
-0.08941
-0.07977
-0.07539
-0.08065
-0.09116
-0.10607
-0.11483
-0.10870
-0.09379
-0.07977
-0.07013
-0.07100
-0.08065
-0.09555
-0.10519
-0.10431
-0.09379
-0.07889
-0.06487
-0.06574
-0.08065
-0.09555
-0.10519
-0.10957
-0.09905
-0.08415
-0.06925
-0.05522
-0.06136
-0.08065
-0.09555
-0.09905
-0.07013
0.02279
0.16743
0.31557
0.42865
0.49352
0.44969
0.24194
-0.11483
-0.50491
-0.80470
-0.99755
-1.14569
-1.25789
-1.31312
-1.26315
-1.10975
-0.88885
-0.64429
-0.41725
-0.25070
-0.14727
-0.09379
-0.05961
-0.04383
-0.02367
0.00088
0.02542
0.04032
0.03945
0.02454
0.00964
0.00000
0.00526
0.02104
0.04032
0.05522
0.05435
0.04471
0.03506
0.02454
0.02016
0.03594
0.05522
0.07013
0.07977
0.07451
0.05961
0.03945
0.02542
0.03068
0.04558
0.06574
0.07977
0.07451
0.06399
0.03945
0.03506
0.03506
0.05084
0.06574
0.08503
0.08503
0.07451
0.05435
0.04032
0.04032
0.04558
0.06574
0.07977
0.08503
0.08415
0.06487
0.04997
0.04558
0.05522
0.07013
0.08503
0.09467
0.09467
0.07977
0.06487
0.06048
0.06487
0.07539
0.09029
0.10519
0.10957
0.10431
0.08503
0.07977
0.07539
0.08503
0.09993
0.11483
0.12447
0.11483
0.09993
0.09029
0.08503
0.09555
0.11045
0.12973
0.14025
0.14025
0.12973
0.11483
0.10957
0.11045
0.11483
0.13499
0.14464
0.14990
0.13499
0.12447
0.10957
0.11045
0.12535
0.14551
0.16041
0.16480
0.15515
0.14025
0.12535
0.11483
0.12009
0.13499
0.14990
0.15515
0.14464
0.12535
0.10519
0.08503
0.08503
0.09467
0.10957
0.11483
0.11045
0.08503
0.05522
0.02980
0.01490
0.02016
0.03506
0.04032
0.04032
0.02542
0.00000
-0.02454
-0.03506
-0.03506
-0.02542
-0.01052
-0.00526
-0.00964
-0.02454
-0.04471
-0.05522
-0.05961
-0.04997
-0.03506
-0.02542
-0.02980
-0.03945
-0.05522
-0.06487
-0.07013
-0.06048
-0.04558
-0.02980
-0.02542
-0.02980
-0.04471
-0.05961
-0.07013
-0.06487
-0.04997
-0.03068
-0.02016
-0.02454
-0.03945
-0.05961
-0.07013
-0.07013
-0.05522
-0.04032
-0.02980
-0.02980
-0.03945
-0.05435
-0.07451
-0.07977
-0.07013
-0.05522
-0.03594
-0.02980
-0.03945
-0.05435
-0.07451
-0.07977
-0.07539
-0.05522
-0.04032
-0.03068
-0.02980
-0.02980
-0.03506
-0.02980
-0.01578
0.00438
0.01928
0.03945
0.04997
0.04032
0.02104
-0.00438
-0.00964
-0.00964
-0.00526
0.00438
0.00526
-0.00438
-0.02893
-0.05435
-0.07451
-0.07977
-0.07539
-0.06574
-0.06487
-0.07977
-0.09467
-0.11396
-0.12447
-0.12535
-0.11571
-0.09555
-0.08065
-0.07977
-0.09467
-0.10431
-0.11922
-0.12447
-0.11571
-0.10081
-0.08065
-0.07977
-0.08503
-0.09905
-0.11396
-0.12009
-0.10607
-0.09116
-0.07539
-0.06574
-0.06487
-0.07889
-0.09905
-0.09993
-0.09993
-0.08590
-0.07100
-0.06048
-0.05522
-0.01753
0.07013
0.19285
0.31820
0.43391
0.50140
0.43391
0.17532
-0.22178
-0.62237
-0.90463
-1.09923
-1.23686
-1.30611
-1.29120
-1.18689
-1.01070
-0.80295
-0.58293
-0.39621
-0.25333
-0.15603
-0.07977
-0.02805
-0.00175
0.00438
-0.00438
-0.00964
-0.00526
0.00438
0.02367
0.03945
0.04471
0.03594
0.01666
0.00526
0.00000
0.00964
0.02367
0.03857
0.05435
0.05961
0.04646
0.03068
0.02104
0.02016
0.03419
0.04909
0.06399
0.06487
0.05084
0.03594
0.02104
0.01578
0.02454
0.03857
0.05873
0.06487
0.05610
0.04120
0.02191
0.01578
0.02454
0.03857
0.05873
0.06487
0.06487
0.05610
0.03682
0.02542
0.02980
0.04383
0.06311
0.07451
0.07539
0.06574
0.05610
0.04120
0.04032
0.04471
0.06311
0.07889
0.08415
0.08065
0.06662
0.05172
0.04558
0.05435
0.06837
0.08328
0.09379
0.09467
0.08152
0.06662
0.06048
0.06487
0.07889
0.09379
0.10870
0.10957
0.10519
0.08678
0.07626
0.07539
0.08415
0.10782
0.11922
0.12447
0.12009
0.10607
0.08678
0.08065
0.08415
0.10344
0.11834
0.12886
0.12535
0.11133
0.09204
0.08590
0.08503
0.09818
0.11834
0.12886
0.12973
0.11659
0.09730
0.08590
0.08503
0.08503
0.09818
0.10870
0.10957
0.10081
0.08240
0.06224
0.04646
0.04471
0.05347
0.05961
0.06487
0.05172
0.03243
0.00351
-0.01315
-0.01928
-0.01140
-0.00088
0.00438
-0.00351
-0.01841
-0.03769
-0.05347
-0.05961
-0.05522
-0.04208
-0.03156
-0.02542
-0.03419
-0.05259
-0.06837
-0.07889
-0.07100
-0.05698
-0.03769
-0.03068
-0.02980
-0.04734
-0.05873
-0.06837
-0.06574
-0.05172
-0.03243
-0.02104
-0.02016
-0.02893
-0.04734
-0.05873
-0.06399
-0.05610
-0.04208
-0.03156
-0.02542
-0.02893
-0.04734
-0.06311
-0.07363
-0.07100
-0.05698
-0.04646
-0.04032
-0.04471
-0.05347
-0.05961
-0.06399
-0.05610
-0.03331
-0.00789
0.01227
0.02367
0.02542
0.01666
0.00614
0.01403
0.02805
0.03857
0.04821
0.04120
0.02717
-0.00088
-0.02630
-0.03857
-0.03594
-0.02630
-0.01666
-0.01928
-0.03331
-0.05610
-0.08590
-0.11133
-0.11922
-0.11133
-0.10168
-0.08678
-0.08941
-0.09818
-0.11746
-0.12886
-0.12535
-0.11659
-0.10256
-0.08678
-0.08065
-0.07977
-0.09730
-0.11308
-0.11922
-0.11133
-0.09730
-0.08240
-0.07188
-0.07451
-0.08328
-0.10168
-0.11308
-0.11045
-0.09730
-0.07802
-0.06224
-0.05961
-0.07276
-0.08766
-0.10256
-0.11308
-0.09379
-0.03068
0.08941
0.22791
0.35151
0.44180
0.48475
0.42251
0.19548
-0.16041
-0.53471
-0.82574
-1.03787
-1.20004
-1.30435
-1.32013
-1.23247
-1.05979
-0.83363
-0.58994
-0.38307
-0.24106
-0.16129
-0.10870
-0.07539
-0.03682
-0.00088
0.02191
0.03331
0.03068
0.01753
0.00701
0.00526
0.01315
0.02367
0.03769
0.04383
0.04471
0.03682
0.02279
0.01578
0.01490
0.02717
0.04646
0.06224
0.06487
0.06048
0.04383
0.02805
0.02542
0.03331
0.05172
0.06311
0.07363
0.06662
0.05698
0.04295
0.03594
0.03945
0.05610
0.06837
0.07802
0.07626
0.06311
0.04383
0.02805
0.03331
0.04734
0.06224
0.07276
0.07539
0.06662
0.05698
0.04646
0.04909
0.06224
0.07714
0.08853
0.09029
0.08590
0.07276
0.06574
0.06136
0.06399
0.08152
0.09730
0.10782
0.10957
0.09818
0.08328
0.07626
0.08328
0.09730
0.11571
0.12798
0.12973
0.11396
0.09818
0.08328
0.08415
0.09292
0.11133
0.12710
0.13412
0.12710
0.11308
0.10607
0.10519
0.10870
0.12623
0.14201
0.15340
0.15515
0.14288
0.12447
0.11220
0.10957
0.12973
0.15077
0.15866
0.16041
0.15165
0.13850
0.12710
0.12097
0.12798
0.13762
0.15165
0.15515
0.14727
0.12886
0.10957
0.09730
0.09905
0.10782
0.11746
0.12009
0.11220
0.09029
0.06487
0.04383
0.04032
0.04383
0.05259
0.05522
0.04295
0.02016
-0.00088
-0.02104
-0.02893
-0.02980
-0.01841
-0.00701
-0.00526
-0.01315
-0.03068
-0.05084
-0.05873
-0.05610
-0.04295
-0.02805
-0.01753
-0.02279
-0.04032
-0.05698
-0.06750
-0.06574
-0.05698
-0.03945
-0.03156
-0.02630
-0.03243
-0.05084
-0.06311
-0.06487
-0.05698
-0.03945
-0.02717
-0.02542
-0.03243
-0.05084
-0.07013
-0.07889
-0.06837
-0.05347
-0.03419
-0.02630
-0.02893
-0.04558
-0.05785
-0.06399
-0.05698
-0.03594
-0.01052
0.01052
0.02279
0.02542
0.01753
0.01490
0.01490
0.03068
0.04997
0.06224
0.06136
0.04471
0.01753
-0.00526
-0.02104
-0.01753
-0.00701
-0.00088
-0.00351
-0.01666
-0.03857
-0.06750
-0.09029
-0.09905
-0.08853
-0.08152
-0.07626
-0.07889
-0.09467
-0.11133
-0.12272
-0.12535
-0.11746
-0.09993
-0.08415
-0.07626
-0.08240
-0.09642
-0.11483
-0.12360
-0.11746
-0.10344
-0.08853
-0.08152
-0.07977
-0.09116
-0.10256
-0.11220
-0.10782
-0.09029
-0.07363
-0.05873
-0.05522
-0.06574
-0.08152
-0.09642
-0.09993
-0.09292
-0.06048
0.01666
0.13675
0.26297
0.36904
0.44706
0.46897
0.36992
0.11659
-0.25596
-0.62237
-0.89587
-1.09310
-1.23949
-1.31575
-1.30786
-1.20793
-1.02385
-0.79331
-0.56101
-0.36816
-0.23931
-0.16217
-0.10431
-0.06048
-0.02104
0.00789
0.02630
0.02980
0.01928
0.00789
0.00526
0.01227
0.02630
0.04120
0.04821
0.04646
0.03769
0.02016
0.01490
0.01841
0.03419
0.05084
0.06224
0.06487
0.05785
0.04383
0.03243
0.02980
0.03682
0.05435
0.06750
0.07363
0.06750
0.05435
0.04295
0.03682
0.03857
0.05435
0.06750
0.07363
0.06750
0.05785
0.04383
0.03682
0.03857
0.05084
0.06925
0.08240
0.08503
0.07451
0.05961
0.04471
0.04032
0.05435
0.07451
0.09029
0.09467
0.08766
0.07100
0.05785
0.05522
0.06224
0.07889
0.09905
0.10870
0.10957
0.09555
0.07977
0.07188
0.07714
0.09029
0.10519
0.12097
0.12535
0.11483
0.09905
0.08766
0.08503
0.09555
0.11045
0.12535
0.13324
0.12798
0.11483
0.09993
0.09116
0.09730
0.11045
0.12886
0.13850
0.13675
0.12097
0.10431
0.08941
0.09204
0.10519
0.12360
0.13675
0.14025
0.13324
0.11571
0.10694
0.10519
0.10870
0.12360
0.14025
0.14464
0.13850
0.11746
0.09642
0.08678
0.08503
0.09905
0.10870
0.10957
0.10344
0.08240
0.06136
0.04471
0.03331
0.03682
0.04032
0.04032
0.03331
0.02016
0.00175
-0.01841
-0.02805
-0.02980
-0.02016
-0.00789
-0.00877
-0.02016
-0.03857
-0.05522
-0.06311
-0.06136
-0.04997
-0.03506
-0.02630
-0.02805
-0.04383
-0.06048
-0.07188
-0.06837
-0.05522
-0.03682
-0.02367
-0.02367
-0.03156
-0.04821
-0.06136
-0.06136
-0.05347
-0.03682
-0.02016
-0.01490
-0.02542
-0.04032
-0.05522
-0.06311
-0.05873
-0.04471
-0.02980
-0.02191
-0.02630
-0.03682
-0.04997
-0.05522
-0.04208
-0.01841
0.00701
0.02805
0.03857
0.03682
0.02542
0.01666
0.02191
0.03506
0.04997
0.05873
0.05347
0.03682
0.01315
-0.00526
-0.01666
-0.01666
-0.01140
-0.00701
-0.01140
-0.02805
-0.05435
-0.08152
-0.09993
-0.10870
-0.10344
-0.09029
-0.08152
-0.08328
-0.09467
-0.10957
-0.12184
-0.12184
-0.11045
-0.09555
-0.08328
-0.07714
-0.08152
-0.09467
-0.10957
-0.11483
-0.10870
-0.09555
-0.08328
-0.07363
-0.07626
-0.08678
-0.09642
-0.10607
-0.10344
-0.09029
-0.07539
-0.06048
-0.05522
-0.06750
-0.08503
-0.09642
-0.09993
-0.06750
0.02016
0.15340
0.29190
0.40410
0.48124
0.49877
0.39271
0.12710
-0.24194
-0.59871
-0.86694
-1.07118
-1.22634
-1.30698
-1.27718
-1.14482
-0.95197
-0.72581
-0.49439
-0.31206
-0.19460
-0.12798
-0.09116
-0.06136
-0.03068
-0.00438
0.01753
0.03156
0.02893
0.01578
0.00088
-0.00526
-0.00175
0.00964
0.02717
0.03857
0.03682
0.02893
0.01841
0.01227
0.01315
0.02717
0.04471
0.05610
0.05698
0.04558
0.02454
0.00877
0.00789
0.01666
0.03243
0.04909
0.05785
0.05084
0.03857
0.02893
0.02542
0.03156
0.04471
0.05961
0.06837
0.06662
0.05259
0.03857
0.03156
0.03594
0.04646
0.05961
0.07451
0.07714
0.06925
0.05259
0.03857
0.03769
0.04646
0.06224
0.07889
0.08503
0.07889
0.06574
0.04821
0.04032
0.04909
0.06750
0.08415
0.09292
0.08853
0.07626
0.06662
0.06487
0.06837
0.07889
0.09379
0.10607
0.10957
0.10081
0.08590
0.07363
0.07276
0.08415
0.10519
0.12710
0.13499
0.12886
0.11571
0.10081
0.09467
0.10081
0.11659
0.13412
0.14288
0.13938
0.12886
0.11571
0.10694
0.10782
0.12184
0.13850
0.15077
0.15165
0.14113
0.12623
0.11396
0.10957
0.11308
0.12710
0.13762
0.14025
0.13149
0.11308
0.09292
0.08503
0.08766
0.09555
0.10256
0.10519
0.09292
0.07363
0.05347
0.03594
0.02980
0.03594
0.04032
0.04032
0.03419
0.01841
-0.00175
-0.02191
-0.02980
-0.02454
-0.01140
-0.00526
-0.00789
-0.02191
-0.03857
-0.05347
-0.06311
-0.05961
-0.04646
-0.03419
-0.02717
-0.02805
-0.04120
-0.06136
-0.07539
-0.07977
-0.07100
-0.05610
-0.04120
-0.03506
-0.04383
-0.05873
-0.07363
-0.08328
-0.07889
-0.06399
-0.04646
-0.03682
-0.04383
-0.05610
-0.07100
-0.07977
-0.07451
-0.06136
-0.04646
-0.03682
-0.04032
-0.05084
-0.06311
-0.06750
-0.05961
-0.04120
-0.01578
0.00614
0.02104
0.02542
0.01928
0.01490
0.01490
0.01753
0.02542
0.02980
0.02454
0.01140
-0.00877
-0.03156
-0.04821
-0.05259
-0.04471
-0.03682
-0.04032
-0.05084
-0.07188
-0.09905
-0.11834
-0.12535
-0.11396
-0.09905
-0.09204
-0.09555
-0.10870
-0.12360
-0.13236
-0.13236
-0.12184
-0.10431
-0.08678
-0.07977
-0.08853
-0.10344
-0.11834
-0.12535
-0.11922
-0.10431
-0.08678
-0.07977
-0.08240
-0.09292
-0.10519
-0.11308
-0.10957
-0.09642
-0.08152
-0.07188
-0.07276
-0.08328
-0.09818
-0.10782
-0.10168
-0.05698
0.04821
0.18846
0.32258
0.42339
0.47335
0.43391
0.25859
-0.05961
-0.43917
-0.76526
-0.99404
-1.15796
-1.27630
-1.32539
-1.27630
-1.13605
-0.93444
-0.70214
-0.47511
-0.29541
-0.18233
-0.11834
-0.07889
-0.05172
-0.02367
0.00351
0.02279
0.03506
0.03506
0.02191
0.00964
0.00526
0.01052
0.02542
0.04295
0.05259
0.04734
0.03506
0.02191
0.01227
0.01227
0.02542
0.04295
0.05522
0.05698
0.04734
0.03506
0.02717
0.02717
0.03769
0.05259
0.06487
0.06750
0.05961
0.04734
0.03243
0.02542
0.03243
0.04734
0.06311
0.07276
0.07013
0.05698
0.04208
0.03243
0.03506
0.04997
0.06750
0.07714
0.07714
0.07013
0.05961
0.04997
0.04734
0.05785
0.07276
0.08503
0.09029
0.08766
0.07714
0.06487
0.05961
0.06224
0.07276
0.08766
0.09730
0.09993
0.09204
0.07714
0.06750
0.07013
0.07977
0.09467
0.10782
0.10957
0.10256
0.09029
0.08240
0.07977
0.08503
0.09993
0.11483
0.12272
0.12009
0.10782
0.09292
0.08503
0.09204
0.10782
0.12535
0.13499
0.13236
0.12272
0.11045
0.10256
0.10256
0.11220
0.12710
0.14025
0.14288
0.13499
0.12009
0.10519
0.09993
0.10519
0.12009
0.13236
0.13499
0.12798
0.11045
0.09292
0.07977
0.07714
0.08503
0.09204
0.09292
0.08065
0.06048
0.03769
0.02016
0.01227
0.01227
0.02016
0.02279
0.01490
-0.00175
-0.02191
-0.03945
-0.04997
-0.04734
-0.03769
-0.02717
-0.02717
-0.03682
-0.05435
-0.07188
-0.07977
-0.07977
-0.07013
-0.05522
-0.04734
-0.04997
-0.06224
-0.07714
-0.08941
-0.09029
-0.07802
-0.06311
-0.04997
-0.04471
-0.04997
-0.06224
-0.07451
-0.07802
-0.06837
-0.05259
-0.04032
-0.03769
-0.04471
-0.05698
-0.07188
-0.07977
-0.07802
-0.06574
-0.04821
-0.03506
-0.02980
-0.02980
-0.03243
-0.03243
-0.02279
-0.00351
0.02191
0.03945
0.04734
0.04558
0.03068
0.01052
-0.00263
-0.00526
0.00175
0.00964
0.00526
-0.00701
-0.02630
-0.05172
-0.07188
-0.07977
-0.07802
-0.07276
-0.07188
-0.08152
-0.09905
-0.11659
-0.12973
-0.13061
-0.12009
-0.10782
-0.09730
-0.09730
-0.10870
-0.12447
-0.13412
-0.13762
-0.12798
-0.11133
-0.09555
-0.09204
-0.09905
-0.11133
-0.12184
-0.12535
-0.11834
-0.10344
-0.08853
-0.07802
-0.07714
-0.08853
-0.10694
-0.11746
-0.11308
-0.09818
-0.08328
-0.07276
-0.07451
-0.07977
-0.06662
-0.00351
0.11659
0.25421
0.38307
0.47598
0.46809
0.30330
0.00000
-0.37781
-0.72669
-0.97038
-1.13167
-1.23510
-1.27543
-1.23598
-1.11326
-0.92918
-0.71704
-0.51017
-0.33310
-0.19986
-0.11220
-0.05961
-0.03594
-0.03243
-0.03243
-0.02542
-0.01315
0.00351
0.02104
0.02980
0.02367
0.01052
0.00088
-0.00526
-0.00088
0.01315
0.03156
0.04032
0.04032
0.03331
0.01841
0.00789
0.00964
0.02104
0.03857
0.05435
0.05785
0.04909
0.03156
0.01753
0.01490
0.02367
0.03945
0.05172
0.05961
0.05172
0.03594
0.02367
0.01490
0.02104
0.03857
0.05610
0.06487
0.06311
0.05172
0.03594
0.02805
0.02893
0.04120
0.05610
0.06925
0.07276
0.06574
0.05172
0.04032
0.04032
0.04646
0.06311
0.07889
0.08503
0.08328
0.07363
0.06136
0.05522
0.05873
0.07276
0.09116
0.09993
0.09555
0.08415
0.07100
0.06487
0.06925
0.08065
0.09818
0.10957
0.10957
0.10431
0.08941
0.07363
0.06662
0.07626
0.09467
0.11396
0.12009
0.11571
0.10168
0.08590
0.07977
0.08415
0.09818
0.11396
0.12184
0.11922
0.10431
0.09116
0.08328
0.08240
0.09292
0.11045
0.12360
0.12798
0.11922
0.10256
0.08766
0.08503
0.08853
0.10081
0.10957
0.10782
0.09730
0.07539
0.05259
0.04032
0.04208
0.04909
0.05698
0.05610
0.04646
0.03068
0.00526
-0.01753
-0.02980
-0.02630
-0.01403
-0.00351
-0.00175
-0.01490
-0.03769
-0.05610
-0.06487
-0.06136
-0.04909
-0.03594
-0.03156
-0.04295
-0.06048
-0.07363
-0.07977
-0.07626
-0.06399
-0.04734
-0.03331
-0.03331
-0.04558
-0.05873
-0.06662
-0.06662
-0.05435
-0.03945
-0.02805
-0.02717
-0.03331
-0.04558
-0.06048
-0.07013
-0.06662
-0.05610
-0.04471
-0.03331
-0.03331
-0.04558
-0.06048
-0.07013
-0.06487
-0.04909
-0.03594
-0.02630
-0.02016
-0.02191
-0.02893
-0.03331
-0.02454
-0.00614
0.01928
0.04032
0.04997
0.04646
0.03068
0.00964
-0.00175
-0.00351
0.00351
0.01140
0.01315
0.00438
-0.01403
-0.03857
-0.05873
-0.06487
-0.06311
-0.05961
-0.06136
-0.07013
-0.08853
-0.11220
-0.12886
-0.13149
-0.12009
-0.10431
-0.09116
-0.08678
-0.09555
-0.11220
-0.12886
-0.13324
-0.12447
-0.10607
-0.08678
-0.07802
-0.07889
-0.09029
-0.10519
-0.11659
-0.11659
-0.10694
-0.09292
-0.07802
-0.07714
-0.08503
-0.09993
-0.11133
-0.10957
-0.09292
-0.07276
-0.05873
-0.05522
-0.05347
-0.02980
0.04909
0.16918
0.29891
0.41550
0.46809
0.38570
0.12535
-0.26122
-0.64955
-0.93181
-1.11063
-1.22809
-1.29471
-1.29646
-1.21319
-1.05453
-0.85204
-0.63026
-0.41988
-0.25859
-0.14639
-0.07363
-0.03156
-0.01315
-0.00964
-0.00964
-0.00877
0.00175
0.02279
0.04295
0.05172
0.04997
0.03331
0.01666
0.00964
0.01315
0.02630
0.04471
0.05698
0.05698
0.04558
0.02893
0.01490
0.02016
0.03682
0.05610
0.07188
0.07188
0.05873
0.04208
0.03156
0.02630
0.03506
0.05172
0.06837
0.07539
0.07188
0.05873
0.04383
0.04032
0.04471
0.06136
0.07802
0.08678
0.08853
0.07889
0.06048
0.04646
0.04295
0.05435
0.06925
0.08328
0.08853
0.08152
0.07013
0.05873
0.05785
0.06925
0.08590
0.10344
0.11133
0.11220
0.09905
0.08328
0.07977
0.08152
0.09292
0.11483
0.12623
0.12710
0.11571
0.10081
0.09029
0.09467
0.10957
0.12447
0.13675
0.13850
0.13061
0.11659
0.10870
0.10607
0.11308
0.12447
0.13938
0.14990
0.14551
0.13061
0.11746
0.10957
0.11483
0.13061
0.14814
0.15691
0.15866
0.15077
0.13850
0.13324
0.13149
0.14113
0.15954
0.17269
0.17532
0.16041
0.14551
0.13236
0.12623
0.13149
0.13938
0.15165
0.15515
0.14902
0.12798
0.10607
0.09204
0.08678
0.09292
0.10168
0.10344
0.09555
0.07802
0.05259
0.02893
0.01490
0.01666
0.02104
0.02367
0.01753
0.00438
-0.01578
-0.03419
-0.04471
-0.04208
-0.03068
-0.01753
-0.01140
-0.01928
-0.03682
-0.05873
-0.07013
-0.06837
-0.06048
-0.04558
-0.03506
-0.03769
-0.04909
-0.06399
-0.07626
-0.07714
-0.06574
-0.04997
-0.03331
-0.02980
-0.03419
-0.04909
-0.06311
-0.06837
-0.06136
-0.04558
-0.03243
-0.02630
-0.03243
-0.04383
-0.05785
-0.06399
-0.05610
-0.03682
-0.00964
0.00789
0.01490
0.01490
0.01227
0.00526
0.00789
0.02191
0.04120
0.04383
0.03594
0.01841
-0.00526
-0.02279
-0.03156
-0.03331
-0.02717
-0.02104
-0.02717
-0.04032
-0.06136
-0.08678
-0.10870
-0.11834
-0.11133
-0.09730
-0.09029
-0.09292
-0.10519
-0.12360
-0.13587
-0.13762
-0.12623
-0.11133
-0.09905
-0.09642
-0.10519
-0.12360
-0.13762
-0.14376
-0.13587
-0.11922
-0.09905
-0.09467
-0.09730
-0.10957
-0.12710
-0.13412
-0.12798
-0.11483
-0.09555
-0.07977
-0.08152
-0.08853
-0.10519
-0.12097
-0.12097
-0.10256
-0.05961
0.03506
0.15866
0.27612
0.37956
0.44355
0.42777
0.27437
-0.02893
-0.41813
-0.76000
-0.99843
-1.17287
-1.29909
-1.35782
-1.32276
-1.18777
-0.97914
-0.73896
-0.51192
-0.34099
-0.22791
-0.15866
-0.10957
-0.06487
-0.02454
0.00000
0.01490
0.01403
0.00614
-0.00614
-0.00877
-0.00175
0.01315
0.02805
0.04032
0.03769
0.02630
0.01315
0.00526
0.00701
0.02104
0.04208
0.05084
0.05259
0.04295
0.03068
0.01490
0.01578
0.02454
0.04295
0.05698
0.06311
0.05172
0.03594
0.01928
0.01578
0.02367
0.03945
0.05698
0.06399
0.05698
0.04208
0.02717
0.01490
0.01841
0.03419
0.05347
0.06574
0.06750
0.05698
0.04295
0.03419
0.03243
0.04295
0.05961
0.07626
0.07889
0.07276
0.06224
0.04821
0.04208
0.05347
0.06837
0.08065
0.08503
0.08152
0.06837
0.05698
0.04646
0.05347
0.06925
0.08678
0.09642
0.09818
0.08678
0.07276
0.06487
0.06662
0.07714
0.08941
0.10607
0.10957
0.10694
0.09204
0.07889
0.07626
0.08328
0.09818
0.11308
0.12535
0.12184
0.10782
0.09730
0.08503
0.08766
0.10256
0.11834
0.13061
0.13236
0.11746
0.10256
0.08941
0.08590
0.09379
0.11308
0.12623
0.12798
0.11746
0.10081
0.08328
0.07539
0.07714
0.08590
0.09116
0.09379
0.08590
0.06662
0.04646
0.02805
0.02016
0.02279
0.03594
0.03857
0.02630
0.00526
-0.01841
-0.03769
-0.04997
-0.04821
-0.03857
-0.02980
-0.03068
-0.03857
-0.05873
-0.07714
-0.08415
-0.07802
-0.06750
-0.05347
-0.04558
-0.05259
-0.06837
-0.08678
-0.09467
-0.09204
-0.07626
-0.05785
-0.04909
-0.04646
-0.05873
-0.07626
-0.07977
-0.07802
-0.06750
-0.05259
-0.03857
-0.03156
-0.04295
-0.05873
-0.07626
-0.07977
-0.07626
-0.05785
-0.04208
-0.02980
-0.03243
-0.04646
-0.05522
-0.05435
-0.04558
-0.02016
0.00789
0.02630
0.03419
0.02717
0.01403
0.00877
0.00000
0.00088
0.00701
0.01490
0.01227
-0.00351
-0.02279
-0.03769
-0.05084
-0.05522
-0.05522
-0.05522
-0.05698
-0.06925
-0.09292
-0.11220
-0.12535
-0.12886
-0.11659
-0.09818
-0.09029
-0.09116
-0.10344
-0.12184
-0.13149
-0.13850
-0.12710
-0.10782
-0.09467
-0.09116
-0.09730
-0.11220
-0.12535
-0.12886
-0.12272
-0.10694
-0.08853
-0.07977
-0.08240
-0.09730
-0.11220
-0.12447
-0.11746
-0.10256
-0.08853
-0.07889
-0.07539
-0.08240
-0.10168
-0.10431
-0.05435
0.06136
0.21564
0.35502
0.45407
0.50316
0.42865
0.18496
-0.18496
-0.57065
-0.85642
-1.04576
-1.19390
-1.28857
-1.30172
-1.22984
-1.07031
-0.84765
-0.60922
-0.38833
-0.23142
-0.13850
-0.09204
-0.06837
-0.05347
-0.04208
-0.02191
0.00175
0.01666
0.02893
0.02367
0.01315
-0.00088
-0.00351
0.00701
0.02279
0.04032
0.04032
0.03769
0.02279
0.00351
-0.00438
0.00175
0.01841
0.04120
0.05084
0.05347
0.04383
0.03243
0.01403
0.01052
0.01753
0.03682
0.05084
0.05873
0.04821
0.03331
0.01928
0.01578
0.02191
0.04208
0.05610
0.06487
0.06311
0.04821
0.03419
0.02542
0.02630
0.04208
0.06136
0.07539
0.07889
0.06837
0.05347
0.04471
0.04558
0.05172
0.06750
0.08590
0.08941
0.08328
0.06925
0.05961
0.05522
0.06136
0.07626
0.09116
0.10519
0.10344
0.08853
0.07363
0.06487
0.06750
0.08678
0.10694
0.12009
0.12360
0.10870
0.09379
0.08503
0.08590
0.09642
0.11220
0.13061
0.13499
0.13324
0.11396
0.10431
0.09555
0.10607
0.12184
0.13675
0.14990
0.14376
0.13236
0.10870
0.10081
0.10607
0.12097
0.13587
0.14464
0.14376
0.13412
0.12360
0.10957
0.11045
0.11659
0.13061
0.14025
0.13938
0.12798
0.10782
0.08328
0.07013
0.07100
0.08065
0.09029
0.08941
0.08328
0.06224
0.03331
0.01403
0.00526
0.01052
0.02104
0.02980
0.02893
0.01315
-0.01140
-0.03068
-0.03419
-0.02893
-0.01403
-0.00526
-0.00614
-0.01666
-0.03682
-0.05522
-0.05435
-0.04909
-0.03419
-0.01928
-0.01578
-0.02630
-0.04120
-0.05610
-0.06487
-0.06399
-0.05347
-0.03506
-0.02980
-0.03068
-0.03682
-0.05610
-0.06574
-0.06925
-0.05435
-0.04383
-0.02980
-0.03068
-0.04120
-0.05610
-0.07539
-0.07977
-0.07363
-0.05435
-0.03945
-0.02980
-0.03068
-0.04032
-0.04471
-0.03945
-0.02367
0.00175
0.02630
0.04032
0.03945
0.02980
0.01928
0.01490
0.00964
0.01052
0.01578
0.02542
0.02454
0.00877
-0.01140
-0.03068
-0.04032
-0.04471
-0.04032
-0.04032
-0.05084
-0.06574
-0.08590
-0.10607
-0.12535
-0.12447
-0.10870
-0.08941
-0.07977
-0.07539
-0.08065
-0.10168
-0.12535
-0.12447
-0.11922
-0.09905
-0.08503
-0.08065
-0.08590
-0.10081
-0.12009
-0.12447
-0.11922
-0.09905
-0.07889
-0.06574
-0.07626
-0.09555
-0.11045
-0.11483
-0.10431
-0.08941
-0.06925
-0.05522
-0.05522
-0.06574
-0.08503
-0.09292
-0.04032
0.08065
0.23054
0.37342
0.47160
0.50666
0.40498
0.14025
-0.25947
-0.64955
-0.91077
-1.07469
-1.20793
-1.29033
-1.29734
-1.22546
-1.07820
-0.86694
-0.61799
-0.39008
-0.22703
-0.12886
-0.07889
-0.04997
-0.03419
-0.01928
-0.00438
0.01578
0.03506
0.04032
0.03945
0.02016
0.00964
0.00526
0.01578
0.03068
0.04558
0.05961
0.05961
0.04471
0.03506
0.02542
0.02542
0.04032
0.05522
0.06487
0.06487
0.04997
0.03945
0.02454
0.02016
0.03068
0.04997
0.06487
0.06487
0.05961
0.04471
0.02980
0.02542
0.03506
0.04997
0.06487
0.07451
0.07013
0.06487
0.04471
0.04032
0.04032
0.06048
0.07539
0.08503
0.09029
0.08503
0.06487
0.04997
0.04997
0.06487
0.07539
0.08503
0.09029
0.08503
0.07451
0.06487
0.05522
0.06487
0.08503
0.09993
0.10957
0.10957
0.09467
0.07977
0.06487
0.07013
0.08503
0.11045
0.12535
0.12973
0.11483
0.09993
0.08503
0.09029
0.09993
0.11483
0.12973
0.13499
0.12973
0.11483
0.10519
0.09993
0.10519
0.12009
0.13499
0.14990
0.14464
0.13499
0.12009
0.11045
0.10957
0.12009
0.13499
0.14990
0.15515
0.14551
0.12973
0.11483
0.11045
0.12447
0.13499
0.14990
0.14990
0.13499
0.11483
0.09555
0.08503
0.08503
0.09467
0.10957
0.10957
0.09029
0.06574
0.04032
0.02016
0.01490
0.01490
0.02454
0.02542
0.02016
0.00526
-0.01928
-0.03945
-0.04997
-0.04471
-0.03068
-0.02542
-0.02542
-0.03506
-0.05435
-0.06925
-0.07977
-0.07539
-0.06487
-0.05522
-0.04558
-0.05435
-0.06487
-0.07977
-0.08941
-0.09029
-0.08065
-0.06574
-0.05522
-0.04558
-0.05435
-0.06925
-0.07977
-0.07977
-0.07539
-0.05522
-0.04558
-0.04032
-0.04997
-0.06925
-0.08415
-0.08941
-0.08065
-0.06048
-0.04558
-0.03068
-0.02980
-0.03506
-0.04471
-0.04997
-0.04032
-0.01578
0.00877
0.02893
0.02980
0.02016
0.01052
-0.00438
-0.00964
-0.00964
-0.00526
0.00000
0.00000
-0.00964
-0.02893
-0.05347
-0.06487
-0.07013
-0.06487
-0.06487
-0.06487
-0.07889
-0.09905
-0.12360
-0.13412
-0.13499
-0.12535
-0.10607
-0.09993
-0.09993
-0.10431
-0.12360
-0.13938
-0.14025
-0.12535
-0.11045
-0.10081
-0.09555
-0.10431
-0.11922
-0.13412
-0.13938
-0.13499
-0.12097
-0.10081
-0.09029
-0.09467
-0.10431
-0.12360
-0.12973
-0.12535
-0.11045
-0.09555
-0.08065
-0.07977
-0.08503
-0.09905
-0.09029
-0.01490
0.11659
0.26999
0.40147
0.49001
0.49965
0.35502
0.03156
-0.38307
-0.74159
-0.97564
-1.13517
-1.24738
-1.30611
-1.28244
-1.17725
-1.00193
-0.78016
-0.54173
-0.33924
-0.19898
-0.11571
-0.07714
-0.06136
-0.05522
-0.04558
-0.03068
-0.00701
0.01315
0.01928
0.02016
0.01052
-0.00351
-0.00526
0.00000
0.01403
0.03769
0.04471
0.04032
0.03068
0.01578
0.00614
0.00964
0.01928
0.03857
0.05347
0.04997
0.04120
0.02191
0.01578
0.01490
0.01928
0.03857
0.05347
0.05522
0.04120
0.02630
0.01578
0.01052
0.01928
0.03857
0.05785
0.06487
0.06487
0.04646
0.02717
0.01578
0.01928
0.03857
0.05347
0.06837
0.07013
0.06048
0.04208
0.03068
0.02542
0.03857
0.05785
0.07363
0.07539
0.06574
0.05610
0.04120
0.04032
0.04471
0.06311
0.08328
0.09379
0.08590
0.07626
0.06136
0.05522
0.05961
0.06925
0.08328
0.10344
0.10519
0.09116
0.07188
0.06136
0.06487
0.07889
0.09818
0.10870
0.11483
0.11045
0.09204
0.07626
0.07013
0.08328
0.09818
0.10870
0.11922
0.11571
0.10168
0.08678
0.07626
0.07977
0.09379
0.10870
0.12360
0.12535
0.11133
0.09642
0.08590
0.08065
0.08415
0.09818
0.10870
0.11483
0.10607
0.08766
0.06311
0.04646
0.04471
0.05785
0.06399
0.06487
0.05610
0.03769
0.01315
-0.00351
-0.00964
-0.00526
0.00789
0.01403
0.00614
-0.00789
-0.02717
-0.04734
-0.05435
-0.05522
-0.04208
-0.03156
-0.02980
-0.03857
-0.05347
-0.07276
-0.07977
-0.07539
-0.05785
-0.04208
-0.03594
-0.03945
-0.05347
-0.07276
-0.07977
-0.07539
-0.06224
-0.04734
-0.03594
-0.03068
-0.04295
-0.05785
-0.06837
-0.07013
-0.05698
-0.04208
-0.03156
-0.02980
-0.03419
-0.05259
-0.07188
-0.07889
-0.07539
-0.05785
-0.04208
-0.03594
-0.04383
-0.05785
-0.07276
-0.08328
-0.08065
-0.06750
-0.04821
-0.02805
-0.01227
-0.00964
-0.01403
-0.01490
-0.00614
0.00351
0.02191
0.04208
0.05347
0.04208
0.01841
-0.00614
-0.02279
-0.02104
-0.00701
0.00351
0.00526
-0.00351
-0.02630
-0.05522
-0.08152
-0.09379
-0.09467
-0.08240
-0.07977
-0.07977
-0.09730
-0.11659
-0.12447
-0.12535
-0.11220
-0.09730
-0.08240
-0.07977
-0.09292
-0.11220
-0.12360
-0.13324
-0.12623
-0.10782
-0.09204
-0.08590
-0.08941
-0.10256
-0.11746
-0.12447
-0.11659
-0.10256
-0.08328
-0.07188
-0.07013
-0.07802
-0.09292
-0.09905
-0.09993
-0.08766
-0.07626
-0.07100
-0.06574
-0.03594
0.04558
0.16041
0.28840
0.40586
0.48300
0.44881
0.22353
-0.15691
-0.56627
-0.87570
-1.09134
-1.23686
-1.31838
-1.31312
-1.21056
-1.03700
-0.82311
-0.60659
-0.41287
-0.26823
-0.16655
-0.08766
-0.03331
0.00000
0.00877
0.00614
-0.00351
-0.00526
0.00351
0.02104
0.04120
0.04909
0.04558
0.03682
0.02279
0.01140
0.00964
0.01841
0.03682
0.05259
0.05522
0.04646
0.03243
0.02191
0.02016
0.03243
0.04734
0.06224
0.06487
0.05698
0.04295
0.03156
0.02630
0.02893
0.04208
0.05698
0.06399
0.06136
0.04821
0.03243
0.02630
0.02542
0.03682
0.05610
0.07188
0.07539
0.06662
0.04909
0.04120
0.04032
0.04821
0.06224
0.07714
0.08415
0.08065
0.06750
0.05259
0.04558
0.05347
0.06662
0.08590
0.09379
0.09116
0.07802
0.06311
0.05172
0.05435
0.06311
0.08503
0.10607
0.10957
0.10168
0.08415
0.06837
0.06925
0.08152
0.10519
0.12184
0.12886
0.12184
0.10782
0.09292
0.08590
0.09730
0.11571
0.13149
0.14288
0.14113
0.12798
0.11308
0.10607
0.10519
0.11308
0.13061
0.14727
0.14639
0.13324
0.11834
0.10694
0.10870
0.11746
0.13587
0.15165
0.15515
0.14727
0.13324
0.11396
0.10256
0.10431
0.10870
0.12535
0.12973
0.12184
0.10431
0.08065
0.06311
0.05961
0.06399
0.06925
0.07013
0.06224
0.04471
0.01666
-0.00526
-0.01753
-0.01578
-0.00351
0.00789
0.00964
-0.00175
-0.02454
-0.04558
-0.05347
-0.05522
-0.03945
-0.02717
-0.02104
-0.02805
-0.04120
-0.05698
-0.07188
-0.07539
-0.06311
-0.04471
-0.03243
-0.02980
-0.04558
-0.06574
-0.07802
-0.07977
-0.06837
-0.05347
-0.03857
-0.03156
-0.03769
-0.05172
-0.06662
-0.07802
-0.07276
-0.05873
-0.03945
-0.03506
-0.04295
-0.05610
-0.07539
-0.08766
-0.08590
-0.07363
-0.05873
-0.04383
-0.03594
-0.04295
-0.05259
-0.05873
-0.05259
-0.03506
-0.00701
0.01490
0.02717
0.02630
0.01403
0.00263
-0.00351
-0.00526
0.00263
0.01227
0.01490
0.00351
-0.01490
-0.03506
-0.05084
-0.05522
-0.05522
-0.05522
-0.05522
-0.06224
-0.07977
-0.10344
-0.12097
-0.13236
-0.12710
-0.11045
-0.09730
-0.09467
-0.10256
-0.11659
-0.13149
-0.13850
-0.13236
-0.11922
-0.10344
-0.09292
-0.09379
-0.10607
-0.12097
-0.12886
-0.12623
-0.11396
-0.09555
-0.08240
-0.07977
-0.09116
-0.10256
-0.11220
-0.11483
-0.10431
-0.08503
-0.06487
-0.05610
-0.06574
-0.08065
-0.09642
-0.07802
0.01052
0.14990
0.29628
0.41550
0.47423
0.41550
0.21476
-0.10870
-0.48913
-0.80645
-1.01596
-1.16673
-1.27017
-1.31312
-1.26929
-1.13342
-0.93707
-0.71704
-0.48826
-0.29804
-0.17356
-0.10168
-0.07013
-0.05785
-0.04032
-0.01666
0.00438
0.02454
0.03331
0.03156
0.01928
0.00088
-0.00877
-0.00614
0.00964
0.02980
0.04558
0.04997
0.04295
0.02893
0.01753
0.01490
0.02191
0.03594
0.05084
0.05522
0.04821
0.03769
0.02454
0.01666
0.01841
0.03419
0.05435
0.06399
0.05785
0.04471
0.02542
0.01666
0.01490
0.02893
0.04909
0.06224
0.06837
0.06311
0.04558
0.03331
0.02980
0.03682
0.05435
0.06662
0.07363
0.06837
0.05435
0.04295
0.03682
0.03857
0.05435
0.06662
0.07714
0.07276
0.05961
0.04471
0.04032
0.04032
0.05435
0.07363
0.08678
0.09379
0.08766
0.07100
0.06136
0.06311
0.07539
0.09029
0.10519
0.11308
0.11133
0.09642
0.07977
0.07539
0.08152
0.09905
0.11571
0.12710
0.12623
0.11483
0.09993
0.08853
0.08853
0.10344
0.11659
0.12710
0.12973
0.12009
0.10431
0.08941
0.08503
0.09905
0.11571
0.13061
0.13499
0.12447
0.10957
0.09467
0.09029
0.09993
0.11220
0.12535
0.12973
0.12360
0.10607
0.08678
0.07013
0.06487
0.07188
0.08152
0.08503
0.07451
0.05610
0.03331
0.01140
-0.00175
-0.00175
0.00701
0.01315
0.01140
0.00000
-0.02191
-0.04383
-0.05347
-0.05522
-0.04471
-0.03331
-0.02980
-0.03331
-0.04821
-0.06837
-0.07802
-0.07977
-0.07013
-0.05522
-0.04295
-0.04295
-0.05172
-0.06837
-0.07802
-0.07977
-0.07013
-0.05522
-0.04032
-0.03506
-0.04120
-0.05522
-0.07013
-0.07802
-0.07363
-0.06048
-0.04208
-0.03506
-0.03857
-0.04997
-0.06837
-0.07802
-0.07977
-0.07013
-0.05522
-0.04383
-0.04295
-0.05172
-0.06487
-0.07363
-0.06837
-0.04821
-0.02016
0.00351
0.02016
0.02542
0.01841
0.00526
0.00000
0.00964
0.02454
0.03682
0.04032
0.02717
0.00351
-0.01841
-0.03156
-0.03506
-0.02893
-0.02191
-0.02367
-0.03506
-0.05610
-0.08152
-0.10256
-0.11659
-0.11396
-0.09993
-0.08503
-0.07977
-0.08941
-0.10431
-0.11922
-0.12798
-0.12710
-0.11220
-0.09555
-0.08678
-0.09116
-0.10782
-0.12097
-0.13149
-0.12886
-0.11571
-0.10081
-0.08853
-0.08853
-0.09642
-0.11308
-0.12360
-0.12184
-0.11045
-0.09555
-0.08065
-0.07188
-0.07626
-0.08941
-0.10431
-0.11308
-0.10519
-0.06837
0.02542
0.15866
0.28577
0.39008
0.45933
0.45758
0.32258
0.02980
-0.34187
-0.67935
-0.93005
-1.11939
-1.26052
-1.32101
-1.27981
-1.14657
-0.93794
-0.69688
-0.47423
-0.30505
-0.19986
-0.13850
-0.09818
-0.06311
-0.02805
0.00351
0.02104
0.02191
0.01403
0.00088
-0.00789
-0.00701
0.00701
0.02717
0.03769
0.04032
0.02805
0.01052
-0.00088
-0.00175
0.00964
0.02717
0.04383
0.04997
0.04383
0.03068
0.01928
0.01490
0.01841
0.03243
0.05259
0.06311
0.06487
0.05259
0.03243
0.02191
0.02630
0.04208
0.05873
0.07100
0.07188
0.06048
0.04558
0.03068
0.02805
0.03945
0.05698
0.07100
0.07539
0.06925
0.05610
0.04383
0.03682
0.03769
0.05522
0.07363
0.08590
0.08678
0.07889
0.06574
0.05435
0.05259
0.06136
0.07714
0.09116
0.09467
0.08941
0.07626
0.06662
0.06837
0.07889
0.09379
0.10870
0.11483
0.11220
0.09818
0.08415
0.07714
0.08065
0.09379
0.10870
0.12360
0.12973
0.11834
0.10081
0.08941
0.08766
0.10168
0.11922
0.13061
0.13236
0.11834
0.10431
0.09116
0.08766
0.09905
0.11659
0.13412
0.14288
0.13938
0.12009
0.10431
0.09993
0.10607
0.11834
0.13061
0.13762
0.13149
0.11308
0.09379
0.07889
0.07802
0.08590
0.09555
0.10256
0.09642
0.07539
0.05084
0.02893
0.01753
0.01753
0.02542
0.02980
0.02454
0.01140
-0.00614
-0.02367
-0.03594
-0.03682
-0.02893
-0.01928
-0.01490
-0.02367
-0.03594
-0.04821
-0.06048
-0.06487
-0.05961
-0.04383
-0.02893
-0.02805
-0.03857
-0.05610
-0.07100
-0.07539
-0.06399
-0.04646
-0.03419
-0.02980
-0.03594
-0.04821
-0.06311
-0.07276
-0.06925
-0.05698
-0.04120
-0.03243
-0.03594
-0.04821
-0.06574
-0.07802
-0.07977
-0.06925
-0.05172
-0.03945
-0.03769
-0.04821
-0.06574
-0.07802
-0.07977
-0.07714
-0.06399
-0.04909
-0.04208
-0.04295
-0.05084
-0.05522
-0.04909
-0.02805
0.00175
0.02630
0.03769
0.04032
0.03156
0.01666
0.00175
-0.00526
0.00088
0.01052
0.01490
0.01490
0.00438
-0.01841
-0.04120
-0.05259
-0.05785
-0.05961
-0.05961
-0.06837
-0.08328
-0.10081
-0.11834
-0.12798
-0.12710
-0.11396
-0.09993
-0.09204
-0.09555
-0.10519
-0.11834
-0.12798
-0.12447
-0.10957
-0.08941
-0.07451
-0.07276
-0.08328
-0.09818
-0.11308
-0.12009
-0.10957
-0.09204
-0.07977
-0.07539
-0.07802
-0.09029
-0.10256
-0.10519
-0.10256
-0.08941
-0.07188
-0.05961
-0.06311
-0.07539
-0.06925
-0.01753
0.09116
0.23405
0.37079
0.46459
0.46108
0.29891
-0.02717
-0.42777
-0.76964
-0.99930
-1.14745
-1.24387
-1.29033
-1.26578
-1.15709
-0.98089
-0.76263
-0.53559
-0.33924
-0.19548
-0.10344
-0.05172
-0.03243
-0.02980
-0.02980
-0.02191
-0.00701
0.01052
0.02805
0.03506
0.02717
0.01753
0.00964
0.00789
0.01753
0.03243
0.04471
0.04997
0.04471
0.03243
0.02016
0.01490
0.02016
0.03506
0.05522
0.06750
0.06750
0.05522
0.04032
0.02980
0.02980
0.04032
0.05522
0.06487
0.06487
0.05785
0.04208
0.02980
0.02542
0.03243
0.04734
0.05961
0.06487
0.05785
0.04471
0.02980
0.02016
0.02717
0.04471
0.06224
0.07539
0.07539
0.05961
0.04471
0.03506
0.03243
0.04208
0.05785
0.07276
0.07714
0.07013
0.05522
0.04295
0.04208
0.05522
0.07451
0.09029
0.09467
0.09029
0.07802
0.06487
0.05961
0.06487
0.07714
0.09204
0.10519
0.10782
0.09730
0.08503
0.07539
0.07451
0.08766
0.10256
0.11483
0.11746
0.11045
0.09555
0.08240
0.08240
0.08941
0.10431
0.12184
0.13236
0.12798
0.11308
0.09818
0.09029
0.09467
0.10694
0.12184
0.13236
0.13236
0.12009
0.10519
0.09555
0.09467
0.10519
0.11746
0.12710
0.12535
0.11308
0.09292
0.07276
0.06224
0.06224
0.06750
0.07451
0.07276
0.05522
0.03331
0.01052
-0.00263
-0.00526
0.00000
0.00964
0.01227
0.00263
-0.01666
-0.03945
-0.05435
-0.05785
-0.04997
-0.03769
-0.02980
-0.03243
-0.04471
-0.06399
-0.07977
-0.08240
-0.07539
-0.06311
-0.05259
-0.04997
-0.05435
-0.06925
-0.08503
-0.09204
-0.08853
-0.07100
-0.05522
-0.04558
-0.04471
-0.05698
-0.07188
-0.08240
-0.08240
-0.06837
-0.05084
-0.04032
-0.03945
-0.05172
-0.06925
-0.08240
-0.08503
-0.08065
-0.06574
-0.05084
-0.04295
-0.04471
-0.05435
-0.06224
-0.06048
-0.04383
-0.01666
0.01140
0.03156
0.03594
0.02367
0.01315
0.00789
0.00526
0.00701
0.01227
0.01490
0.01052
-0.00351
-0.02367
-0.04208
-0.05259
-0.05259
-0.04821
-0.04471
-0.05172
-0.06925
-0.09116
-0.11396
-0.12710
-0.12798
-0.11659
-0.10081
-0.09029
-0.08941
-0.10344
-0.12184
-0.13236
-0.13061
-0.11834
-0.10344
-0.08853
-0.08240
-0.09116
-0.10694
-0.11922
-0.12535
-0.11834
-0.10344
-0.09029
-0.08503
-0.08941
-0.09905
-0.11133
-0.12009
-0.11396
-0.09818
-0.08590
-0.07802
-0.07714
-0.08678
-0.10168
-0.10607
-0.07013
0.02717
0.17093
0.31557
0.43040
0.48913
0.43128
0.21126
-0.14113
-0.51894
-0.80996
-1.00719
-1.15270
-1.25877
-1.30085
-1.24650
-1.09573
-0.87746
-0.63202
-0.41024
-0.24807
-0.14551
-0.09204
-0.06662
-0.05084
-0.03682
-0.01666
0.00351
0.02104
0.02805
0.02104
0.00877
-0.00175
-0.00526
0.00351
0.02104
0.03419
0.04032
0.03769
0.02717
0.01052
0.00526
0.00877
0.02279
0.04120
0.05172
0.05259
0.04383
0.02893
0.02016
0.02367
0.03419
0.04821
0.06224
0.06311
0.05435
0.03857
0.02630
0.02191
0.03068
0.04646
0.05873
0.06487
0.05873
0.04558
0.03419
0.02542
0.03068
0.04821
0.06574
0.07714
0.07626
0.06224
0.04646
0.03769
0.03682
0.04821
0.06574
0.07889
0.08328
0.07451
0.05698
0.04295
0.04383
0.05610
0.07276
0.08853
0.09730
0.09642
0.08415
0.07100
0.06487
0.06662
0.07626
0.09292
0.10519
0.10344
0.09379
0.08152
0.07276
0.07363
0.08766
0.10782
0.12360
0.12798
0.11922
0.10256
0.08590
0.08152
0.08853
0.10256
0.12097
0.12973
0.12447
0.10957
0.09467
0.08503
0.09029
0.10607
0.12272
0.13499
0.13149
0.11922
0.10431
0.09116
0.08678
0.09555
0.10870
0.11659
0.11834
0.10782
0.08941
0.07451
0.06311
0.06224
0.06837
0.07539
0.07100
0.05961
0.04032
0.01928
0.00614
0.00351
0.01227
0.01841
0.02104
0.00789
-0.01227
-0.03068
-0.04383
-0.04997
-0.04471
-0.02980
-0.01666
-0.01403
-0.02367
-0.03945
-0.05873
-0.06311
-0.05610
-0.04471
-0.03331
-0.02980
-0.03331
-0.04558
-0.06048
-0.07188
-0.07100
-0.05961
-0.04471
-0.03506
-0.03857
-0.04821
-0.06048
-0.07188
-0.07363
-0.06487
-0.04821
-0.03331
-0.03156
-0.04208
-0.06048
-0.07188
-0.07363
-0.06487
-0.04821
-0.03331
-0.02980
-0.03331
-0.04734
-0.06662
-0.07977
-0.07451
-0.05610
-0.03331
-0.01666
-0.00964
-0.01140
-0.01666
-0.01666
-0.00789
0.00175
0.02367
0.04558
0.05522
0.04997
0.03156
0.00789
-0.00701
-0.00789
-0.00175
0.00877
0.01315
0.00351
-0.02016
-0.05172
-0.07977
-0.09204
-0.09204
-0.08328
-0.07977
-0.08328
-0.09467
-0.11133
-0.12535
-0.12535
-0.12009
-0.10694
-0.09642
-0.09292
-0.10344
-0.11483
-0.12535
-0.12360
-0.11308
-0.09467
-0.08328
-0.07977
-0.08152
-0.09029
-0.10344
-0.10957
-0.10694
-0.09379
-0.07539
-0.06311
-0.06136
-0.07013
-0.08678
-0.09993
-0.09818
-0.09029
-0.07363
-0.05873
-0.05172
-0.02542
0.04734
0.15691
0.28489
0.40060
0.47598
0.46108
0.28226
-0.06136
-0.47335
-0.81610
-1.04401
-1.19653
-1.28594
-1.29383
-1.22195
-1.08608
-0.90376
-0.69162
-0.48650
-0.31557
-0.19022
-0.10256
-0.03945
0.00000
0.00964
0.00701
-0.00175
-0.00351
0.00438
0.02279
0.04120
0.04471
0.04032
0.02542
0.01315
0.01140
0.01928
0.03419
0.04997
0.06136
0.06311
0.05347
0.03682
0.02805
0.02805
0.03945
0.05435
0.06487
0.06487
0.06224
0.05084
0.03682
0.03156
0.03945
0.05435
0.06837
0.07363
0.06662
0.05435
0.03682
0.02980
0.03331
0.04558
0.06311
0.07188
0.07188
0.06048
0.04734
0.04032
0.04295
0.05435
0.07100
0.08503
0.08503
0.08065
0.06574
0.05172
0.04646
0.05435
0.07100
0.08678
0.09029
0.08853
0.07889
0.06399
0.05961
0.06311
0.07539
0.09555
0.10957
0.10694
0.09555
0.08065
0.06837
0.07100
0.09029
0.10957
0.12272
0.12886
0.12097
0.10694
0.09730
0.09116
0.09905
0.11571
0.13149
0.13675
0.13762
0.12447
0.10870
0.10344
0.10256
0.11571
0.13412
0.14814
0.15253
0.13938
0.12097
0.10957
0.11308
0.12447
0.13938
0.15165
0.15340
0.14551
0.12973
0.11220
0.10344
0.10256
0.11571
0.13236
0.13850
0.12973
0.10870
0.08590
0.07188
0.06487
0.06750
0.07626
0.07889
0.06925
0.04821
0.02367
0.00263
-0.00526
-0.00263
0.00789
0.01490
0.01140
-0.00614
-0.03068
-0.04909
-0.05961
-0.05698
-0.04471
-0.02893
-0.02630
-0.03419
-0.04997
-0.06925
-0.08152
-0.08328
-0.07626
-0.06136
-0.04997
-0.05172
-0.06048
-0.07714
-0.08503
-0.08415
-0.07626
-0.06136
-0.04909
-0.04646
-0.05347
-0.06837
-0.07977
-0.07977
-0.07626
-0.05961
-0.04208
-0.03594
-0.04383
-0.05961
-0.07714
-0.08590
-0.08766
-0.07363
-0.05172
-0.03857
-0.03769
-0.04734
-0.05610
-0.05873
-0.04997
-0.02805
0.00088
0.02367
0.03419
0.02717
0.01753
0.00789
-0.00088
-0.00351
0.00263
0.01140
0.01140
-0.00438
-0.02454
-0.04383
-0.05698
-0.06487
-0.06224
-0.05522
-0.05698
-0.07013
-0.09116
-0.11396
-0.12710
-0.13236
-0.12184
-0.10607
-0.09379
-0.09204
-0.10256
-0.11308
-0.12710
-0.13412
-0.12623
-0.11133
-0.09730
-0.09116
-0.09730
-0.10870
-0.12272
-0.12973
-0.12798
-0.11571
-0.09642
-0.08415
-0.08240
-0.09204
-0.10344
-0.11746
-0.12272
-0.11045
-0.09029
-0.07276
-0.06750
-0.07977
-0.09730
-0.10081
-0.06487
0.03594
0.17707
0.31732
0.43478
0.50316
0.45670
0.24807
-0.09905
-0.49264
-0.80207
-1.00369
-1.15095
-1.25789
-1.30085
-1.25877
-1.12290
-0.91866
-0.67847
-0.44793
-0.26823
-0.15603
-0.09905
-0.07100
-0.05435
-0.04558
-0.02542
-0.00438
0.01841
0.02980
0.02805
0.01578
-0.00088
-0.00526
-0.00175
0.01403
0.03243
0.04120
0.04295
0.03068
0.01315
0.00526
0.00701
0.01928
0.03945
0.05698
0.06399
0.05610
0.03682
0.02279
0.01578
0.02367
0.04295
0.05698
0.06399
0.05698
0.04120
0.02279
0.01490
0.01753
0.03331
0.04909
0.06487
0.06311
0.05172
0.03769
0.02980
0.03156
0.04295
0.05785
0.07100
0.07363
0.06750
0.05172
0.03945
0.03594
0.04383
0.06311
0.07714
0.08503
0.08328
0.07188
0.05785
0.04997
0.05259
0.06750
0.08152
0.09116
0.09292
0.08328
0.07276
0.06399
0.06048
0.06837
0.08766
0.10168
0.10870
0.10168
0.08328
0.07451
0.07100
0.07802
0.09379
0.11220
0.11922
0.11308
0.10168
0.08328
0.07626
0.08152
0.09379
0.11308
0.12623
0.12710
0.11220
0.09730
0.08503
0.08590
0.09379
0.11220
0.12623
0.12798
0.11746
0.10168
0.08415
0.08065
0.08766
0.10256
0.11571
0.11922
0.11133
0.09204
0.07363
0.06311
0.05610
0.06136
0.07100
0.07451
0.06750
0.04997
0.02191
0.00351
-0.00526
-0.00351
0.00701
0.01490
0.01227
-0.00438
-0.02805
-0.04646
-0.05522
-0.05347
-0.04295
-0.02980
-0.02980
-0.03243
-0.04821
-0.06750
-0.07977
-0.07802
-0.06224
-0.04821
-0.04032
-0.04120
-0.05259
-0.06750
-0.07977
-0.07889
-0.06750
-0.05172
-0.03419
-0.03068
-0.03769
-0.05259
-0.06574
-0.06837
-0.05873
-0.04734
-0.02893
-0.02542
-0.03243
-0.04821
-0.06750
-0.07889
-0.07276
-0.05785
-0.04383
-0.03419
-0.03243
-0.04734
-0.06136
-0.07100
-0.07188
-0.05172
-0.03156
-0.00789
0.00614
0.00964
0.00877
0.00000
0.00175
0.01315
0.03331
0.05610
0.05785
0.04120
0.01666
-0.00614
-0.01578
-0.01841
-0.00964
-0.00438
-0.00175
-0.01227
-0.03419
-0.06311
-0.08240
-0.09467
-0.08853
-0.07977
-0.07539
-0.07626
-0.08678
-0.10256
-0.12097
-0.12360
-0.11220
-0.09292
-0.07977
-0.07539
-0.08240
-0.10168
-0.11659
-0.12535
-0.12272
-0.10344
-0.08853
-0.07977
-0.08065
-0.08678
-0.10081
-0.11045
-0.11308
-0.09905
-0.08853
-0.07451
-0.07100
-0.07626
-0.08678
-0.10081
-0.10431
-0.09818
-0.08240
-0.05259
0.01841
0.12973
0.25246
0.35589
0.43917
0.45758
0.33222
0.03419
-0.35677
-0.70915
-0.95635
-1.14131
-1.27806
-1.33503
-1.27893
-1.12991
-0.90901
-0.67584
-0.46196
-0.30330
-0.20249
-0.13324
-0.07539
-0.03156
0.00175
0.02016
0.02367
0.01403
0.00438
0.00088
0.00614
0.01753
0.03594
0.04032
0.03857
0.02805
0.01490
0.01052
0.01578
0.02717
0.04646
0.06048
0.06487
0.06311
0.04383
0.02980
0.02542
0.03156
0.05172
0.06574
0.06925
0.06311
0.04821
0.03419
0.02542
0.02630
0.04208
0.06136
0.07013
0.06925
0.05785
0.03945
0.03506
0.03594
0.04646
0.06574
0.07539
0.07889
0.06925
0.05873
0.04471
0.04558
0.05610
0.07100
0.08590
0.09467
0.08941
0.07802
0.05873
0.05084
0.05698
0.07714
0.09555
0.10519
0.10344
0.08941
0.07889
0.06487
0.06048
0.07100
0.08678
0.10957
0.10957
0.10870
0.08941
0.07977
0.07539
0.08590
0.09642
0.11571
0.12535
0.12360
0.10870
0.08941
0.08503
0.09116
0.10607
0.12097
0.13499
0.13938
0.13499
0.12886
0.11483
0.11133
0.12623
0.14113
0.15515
0.15428
0.14902
0.13412
0.11922
0.11571
0.12623
0.14113
0.15515
0.15515
0.15340
0.13324
0.10957
0.09993
0.09555
0.10607
0.11571
0.12447
0.11834
0.09818
0.07363
0.05435
0.04558
0.05084
0.06048
0.06487
0.05873
0.03857
0.01403
-0.00614
-0.02016
-0.01928
-0.00438
0.00000
0.00000
-0.00614
-0.02542
-0.04120
-0.05522
-0.05435
-0.03945
-0.02980
-0.02016
-0.02104
-0.03594
-0.05522
-0.06487
-0.06925
-0.05873
-0.03945
-0.02454
-0.02016
-0.03068
-0.04558
-0.05961
-0.05961
-0.05435
-0.04471
-0.02980
-0.02980
-0.03068
-0.05084
-0.06048
-0.07013
-0.06487
-0.05435
-0.03506
-0.02980
-0.03068
-0.04032
-0.05522
-0.07013
-0.06925
-0.05873
-0.03945
-0.02980
-0.02016
-0.02016
-0.02542
-0.02980
-0.02454
-0.00438
0.01578
0.04032
0.05522
0.05435
0.03419
0.01403
-0.00526
-0.01490
-0.00526
0.00000
0.00964
0.00438
-0.01140
-0.04120
-0.06574
-0.07977
-0.07451
-0.07013
-0.06487
-0.07013
-0.08590
-0.10519
-0.12535
-0.12973
-0.12447
-0.10957
-0.09467
-0.07977
-0.08503
-0.10081
-0.11483
-0.12535
-0.12447
-0.11483
-0.09467
-0.07977
-0.08065
-0.09555
-0.11045
-0.12009
-0.12009
-0.10957
-0.08941
-0.07977
-0.07977
-0.08503
-0.09993
-0.10957
-0.10957
-0.09993
-0.07977
-0.07013
-0.06487
-0.07013
-0.05347
0.01666
0.13762
0.27700
0.40586
0.48475
0.45232
0.26034
-0.07539
-0.49439
-0.83275
-1.04138
-1.18601
-1.27017
-1.28419
-1.21319
-1.06329
-0.87308
-0.66270
-0.46371
-0.29365
-0.16918
-0.08503
-0.03506
-0.00964
-0.00526
-0.00964
-0.00526
0.00526
0.02016
0.03506
0.04471
0.04471
0.03506
0.01490
0.00526
0.00964
0.02016
0.04032
0.05961
0.06487
0.05522
0.04032
0.02980
0.02016
0.02980
0.04471
0.06487
0.06487
0.06487
0.04997
0.03506
0.02542
0.02980
0.04032
0.05961
0.07013
0.07013
0.06048
0.04032
0.02980
0.03506
0.04471
0.06487
0.07977
0.08503
0.07013
0.06048
0.04032
0.04032
0.04471
0.06487
0.07451
0.08503
0.08503
0.06487
0.04997
0.04032
0.04997
0.06487
0.08503
0.09467
0.09029
0.08503
0.07013
0.06487
0.06487
0.07451
0.09467
0.10957
0.10957
0.10519
0.08503
0.07539
0.07539
0.08503
0.09467
0.10957
0.12009
0.11483
0.09993
0.08503
0.07977
0.08503
0.10431
0.11483
0.12973
0.13499
0.12009
0.10519
0.09029
0.09029
0.09993
0.11483
0.13412
0.13499
0.12009
0.10519
0.09029
0.08503
0.09467
0.10957
0.12973
0.13499
0.12973
0.11045
0.09555
0.08503
0.08503
0.09467
0.10957
0.11483
0.11045
0.09555
0.07539
0.06048
0.05522
0.06487
0.07013
0.07451
0.06574
0.05084
0.02630
0.00088
-0.00964
-0.00964
-0.00526
0.00438
0.00526
-0.00438
-0.02454
-0.04383
-0.05961
-0.05522
-0.04997
-0.03594
-0.02980
-0.02980
-0.04471
-0.05961
-0.07889
-0.07977
-0.07013
-0.05084
-0.03594
-0.03068
-0.03945
-0.05435
-0.06487
-0.07013
-0.06048
-0.04558
-0.02630
-0.01578
-0.02016
-0.03419
-0.05435
-0.05961
-0.05522
-0.04120
-0.03068
-0.02016
-0.02016
-0.03419
-0.05347
-0.06399
-0.06487
-0.05522
-0.03156
-0.01578
-0.00088
0.00000
-0.00438
-0.00964
-0.00526
0.00438
0.02367
0.04383
0.05873
0.05084
0.03156
0.00701
-0.00877
-0.01490
-0.00526
0.00000
0.00964
0.00088
-0.01841
-0.05259
-0.07802
-0.08941
-0.09029
-0.08065
-0.07539
-0.07013
-0.07889
-0.09818
-0.11396
-0.12447
-0.11571
-0.10081
-0.08590
-0.08065
-0.08503
-0.09905
-0.11834
-0.12447
-0.12009
-0.10168
-0.08590
-0.08065
-0.07977
-0.08941
-0.10870
-0.12360
-0.12535
-0.11133
-0.09116
-0.07626
-0.07013
-0.07451
-0.08853
-0.09905
-0.10431
-0.10081
-0.08590
-0.08065
-0.07100
-0.05172
0.00964
0.12447
0.24895
0.36992
0.46722
0.47949
0.31995
0.01753
-0.36553
-0.71441
-0.96336
-1.13956
-1.25965
-1.29296
-1.23160
-1.07907
-0.88272
-0.66533
-0.46809
-0.30943
-0.19548
-0.10782
-0.04997
-0.01315
-0.00088
-0.00438
-0.01403
-0.01490
-0.00614
0.00877
0.02367
0.03857
0.04032
0.02630
0.01578
0.00614
0.00964
0.02367
0.03857
0.05785
0.06487
0.05610
0.04120
0.02630
0.01578
0.02367
0.03857
0.05785
0.06487
0.06048
0.04208
0.03068
0.02104
0.02454
0.03857
0.05785
0.06487
0.06487
0.04734
0.03156
0.02104
0.02454
0.03857
0.05347
0.06837
0.07451
0.06574
0.04734
0.03594
0.02630
0.03419
0.04821
0.06750
0.08328
0.08065
0.07100
0.05698
0.04208
0.04471
0.06311
0.08240
0.08941
0.09029
0.08590
0.06750
0.05610
0.05522
0.06399
0.08240
0.10256
0.10957
0.10081
0.08678
0.07188
0.06574
0.07363
0.08853
0.10782
0.11396
0.11045
0.09730
0.08590
0.07626
0.08415
0.09818
0.11308
0.12360
0.12097
0.10694
0.08766
0.08503
0.08503
0.10256
0.11834
0.13324
0.13499
0.12623
0.11659
0.10607
0.10081
0.10431
0.10957
0.12272
0.12973
0.11659
0.10607
0.08766
0.08065
0.07977
0.08853
0.10256
0.10957
0.10168
0.08240
0.06311
0.04295
0.03594
0.03506
0.03945
0.04471
0.04032
0.02717
0.00351
-0.01315
-0.02367
-0.01666
-0.00614
0.00789
0.00964
-0.00263
-0.01753
-0.04120
-0.05347
-0.05522
-0.04646
-0.03243
-0.02104
-0.02016
-0.02893
-0.03857
-0.05259
-0.05522
-0.05084
-0.03331
-0.01753
-0.01490
-0.02805
-0.04734
-0.05873
-0.06399
-0.05610
-0.04646
-0.03243
-0.02542
-0.03331
-0.05172
-0.06750
-0.07451
-0.06662
-0.05259
-0.03331
-0.02980
-0.02980
-0.03857
-0.05698
-0.06837
-0.06574
-0.05259
-0.03331
-0.01315
-0.00614
-0.00526
-0.01315
-0.01928
-0.01140
0.00263
0.02630
0.05522
0.06837
0.06574
0.04821
0.02016
-0.00175
-0.00526
-0.00526
0.00789
0.01403
0.00701
-0.01578
-0.04120
-0.06136
-0.07714
-0.07977
-0.07188
-0.07013
-0.07013
-0.07802
-0.09642
-0.11220
-0.11922
-0.11571
-0.10256
-0.08766
-0.08065
-0.08415
-0.09730
-0.11220
-0.11922
-0.12009
-0.10344
-0.09204
-0.08152
-0.07977
-0.08853
-0.09818
-0.11220
-0.11483
-0.10256
-0.08328
-0.06750
-0.06048
-0.07188
-0.08766
-0.09818
-0.09993
-0.09204
-0.07802
-0.05873
-0.04646
-0.03243
0.00701
0.10081
0.22178
0.34625
0.44706
0.48124
0.36729
0.09642
-0.27612
-0.65393
-0.93181
-1.11326
-1.23423
-1.28770
-1.25877
-1.14920
-0.97564
-0.77052
-0.56452
-0.38394
-0.24106
-0.13850
-0.06750
-0.02279
-0.00701
-0.00526
-0.00526
-0.00526
0.00263
0.02104
0.04120
0.05698
0.05961
0.04383
0.02805
0.01666
0.01490
0.02279
0.03682
0.05610
0.06399
0.06136
0.04821
0.03682
0.03068
0.03769
0.05172
0.06311
0.07276
0.06662
0.05698
0.04295
0.03243
0.03419
0.04646
0.06224
0.07276
0.07100
0.06224
0.04383
0.03594
0.03857
0.05610
0.07188
0.08328
0.08853
0.08590
0.06925
0.04909
0.04120
0.04821
0.06574
0.08590
0.09818
0.09642
0.08328
0.06837
0.05698
0.06311
0.07714
0.09555
0.10782
0.10607
0.09292
0.08240
0.07188
0.07013
0.08152
0.09642
0.11133
0.11483
0.11133
0.09467
0.08240
0.07977
0.08415
0.10431
0.12184
0.13236
0.13499
0.11922
0.10694
0.10081
0.10344
0.11659
0.13149
0.14288
0.14113
0.13236
0.11483
0.10256
0.10344
0.11659
0.13149
0.15077
0.15077
0.13850
0.12360
0.11220
0.10957
0.11396
0.13061
0.14288
0.14902
0.14201
0.12886
0.11396
0.10256
0.10344
0.11220
0.12623
0.13412
0.13149
0.11483
0.09116
0.07013
0.06487
0.06837
0.08152
0.08503
0.07714
0.05610
0.03068
0.00614
-0.01140
-0.01140
-0.00614
0.00263
0.00526
-0.00263
-0.02367
-0.04909
-0.06224
-0.06136
-0.05259
-0.03857
-0.03156
-0.03769
-0.05084
-0.06662
-0.07714
-0.07977
-0.07276
-0.05522
-0.04295
-0.04032
-0.05084
-0.06662
-0.07714
-0.07977
-0.07276
-0.05873
-0.04032
-0.03156
-0.02980
-0.04120
-0.05961
-0.07276
-0.07100
-0.05873
-0.04383
-0.03243
-0.03331
-0.04646
-0.06136
-0.07276
-0.07100
-0.05522
-0.03156
-0.01052
0.00263
0.00088
-0.00351
-0.00877
-0.00614
0.00614
0.02454
0.04120
0.04909
0.03857
0.01666
-0.00877
-0.02630
-0.02980
-0.02279
-0.01227
-0.00964
-0.02454
-0.04821
-0.07363
-0.09818
-0.11220
-0.10782
-0.09730
-0.08415
-0.07977
-0.08766
-0.10431
-0.12097
-0.12886
-0.12623
-0.11045
-0.09818
-0.09116
-0.09730
-0.10694
-0.12097
-0.12886
-0.12623
-0.11045
-0.09379
-0.08240
-0.08328
-0.09555
-0.10694
-0.11746
-0.12009
-0.10519
-0.08941
-0.07451
-0.06662
-0.07188
-0.08590
-0.10081
-0.11220
-0.10782
-0.09818
-0.06662
0.00614
0.11571
0.23931
0.34274
0.42339
0.44180
0.31908
0.03857
-0.33924
-0.67847
-0.92655
-1.10712
-1.24036
-1.30698
-1.27718
-1.14657
-0.94408
-0.71704
-0.50491
-0.33924
-0.22440
-0.14902
-0.09467
-0.04471
-0.00877
0.01403
0.01666
0.00789
-0.00175
-0.00877
-0.00614
0.00877
0.02542
0.03682
0.04032
0.03331
0.01928
0.01140
0.00964
0.02016
0.03506
0.05084
0.05522
0.04821
0.03419
0.01928
0.01490
0.02191
0.03857
0.05873
0.06487
0.06136
0.04646
0.02980
0.02191
0.02367
0.03506
0.05347
0.06311
0.06487
0.05785
0.04471
0.02980
0.02805
0.04032
0.05873
0.07188
0.07539
0.06837
0.05785
0.04471
0.04032
0.04997
0.06487
0.08065
0.08853
0.08678
0.07451
0.06311
0.05698
0.05873
0.07013
0.08503
0.09379
0.09467
0.08853
0.07451
0.06662
0.06487
0.07188
0.08853
0.10519
0.10957
0.10694
0.09467
0.07977
0.07188
0.07714
0.09379
0.11045
0.12184
0.11834
0.10519
0.09029
0.07802
0.08152
0.09467
0.11308
0.12710
0.12623
0.11483
0.09642
0.08328
0.08328
0.09204
0.10870
0.12184
0.12798
0.12009
0.10519
0.09029
0.08503
0.08503
0.09818
0.11133
0.12184
0.11483
0.09993
0.08503
0.07013
0.06487
0.07188
0.08152
0.08853
0.08678
0.07188
0.04821
0.02717
0.01666
0.01841
0.02630
0.02980
0.02630
0.01227
-0.01140
-0.03331
-0.04646
-0.04383
-0.03331
-0.02367
-0.02016
-0.02630
-0.03945
-0.05522
-0.06662
-0.06662
-0.05873
-0.04208
-0.03156
-0.02980
-0.04295
-0.05961
-0.07451
-0.07714
-0.06487
-0.04997
-0.03506
-0.02980
-0.03682
-0.04997
-0.06750
-0.07188
-0.06311
-0.04997
-0.03506
-0.02717
-0.02805
-0.03945
-0.05785
-0.07100
-0.07188
-0.06048
-0.04558
-0.03331
-0.02980
-0.03945
-0.05172
-0.05785
-0.05347
-0.03682
-0.01052
0.01315
0.02630
0.02717
0.01841
0.01140
0.01315
0.01841
0.03243
0.04032
0.04032
0.02717
0.00438
-0.01753
-0.03156
-0.03506
-0.03156
-0.02980
-0.02980
-0.04295
-0.06574
-0.09116
-0.11571
-0.12535
-0.11571
-0.10081
-0.08590
-0.07977
-0.09292
-0.11220
-0.12973
-0.13499
-0.12886
-0.11220
-0.09555
-0.08678
-0.09116
-0.10431
-0.11922
-0.12798
-0.12710
-0.11220
-0.09292
-0.08152
-0.07977
-0.08941
-0.10782
-0.12097
-0.12535
-0.11308
-0.09292
-0.07539
-0.06662
-0.07451
-0.08941
-0.10431
-0.11308
-0.09642
-0.03594
0.07188
0.20600
0.32784
0.42251
0.47072
0.40323
0.18058
-0.16567
-0.52858
-0.81434
-1.02297
-1.18601
-1.29646
-1.32101
-1.23247
-1.04927
-0.80996
-0.56715
-0.36553
-0.22791
-0.14902
-0.10344
-0.07188
-0.04208
-0.00877
0.01666
0.03419
0.03682
0.02279
0.00877
-0.00088
0.00088
0.01403
0.03243
0.04295
0.04471
0.03594
0.02104
0.00877
0.00789
0.01928
0.03682
0.05435
0.06311
0.05610
0.04120
0.02279
0.01490
0.01841
0.03156
0.04909
0.05785
0.05435
0.04383
0.03419
0.02717
0.03068
0.04383
0.05873
0.07100
0.07188
0.06136
0.04646
0.03419
0.03594
0.04558
0.06136
0.07889
0.08503
0.07889
0.06662
0.05084
0.04471
0.05084
0.06048
0.07363
0.08328
0.08240
0.07100
0.05961
0.04909
0.05084
0.06662
0.08941
0.10607
0.10694
0.09379
0.07626
0.06750
0.06487
0.07626
0.09905
0.11571
0.11746
0.10957
0.09379
0.07889
0.07539
0.08065
0.09642
0.11396
0.12535
0.12710
0.11659
0.10168
0.09204
0.09555
0.10607
0.12097
0.13587
0.13675
0.13236
0.11834
0.10694
0.10519
0.11308
0.12886
0.14376
0.14727
0.13938
0.12360
0.10957
0.10519
0.11045
0.12623
0.14025
0.14464
0.13938
0.12097
0.09905
0.08152
0.07539
0.08065
0.09029
0.09818
0.09204
0.07363
0.05347
0.03945
0.02980
0.02542
0.03068
0.03769
0.03419
0.02191
-0.00175
-0.02630
-0.04032
-0.03945
-0.02630
-0.01140
-0.00526
-0.00789
-0.02104
-0.04120
-0.05259
-0.05522
-0.04383
-0.02980
-0.02191
-0.02542
-0.03857
-0.05610
-0.07013
-0.07539
-0.06399
-0.04646
-0.03156
-0.02542
-0.03068
-0.04558
-0.06048
-0.06750
-0.06487
-0.05172
-0.03682
-0.02980
-0.03506
-0.05084
-0.07100
-0.08240
-0.07977
-0.06399
-0.04383
-0.02980
-0.02191
-0.02279
-0.02805
-0.02980
-0.02454
-0.00614
0.01841
0.04032
0.05522
0.05172
0.03682
0.01928
0.00175
-0.00526
0.00000
0.01052
0.01490
0.00701
-0.01315
-0.04120
-0.06311
-0.07539
-0.07714
-0.07276
-0.07013
-0.07539
-0.09029
-0.11045
-0.12535
-0.12710
-0.12272
-0.10957
-0.09993
-0.09993
-0.10256
-0.11571
-0.13061
-0.13499
-0.12973
-0.11483
-0.09730
-0.09029
-0.09555
-0.10519
-0.11746
-0.12535
-0.12272
-0.11220
-0.09730
-0.08503
-0.08240
-0.09292
-0.10782
-0.11746
-0.11746
-0.10694
-0.08941
-0.07188
-0.06750
-0.07013
-0.04909
0.02104
0.13938
0.27437
0.39359
0.46809
0.44355
0.25947
-0.08766
-0.49702
-0.83275
-1.04927
-1.18601
-1.26841
-1.28507
-1.22634
-1.10362
-0.92830
-0.71792
-0.50579
-0.32434
-0.18671
-0.09467
-0.04471
-0.02279
-0.01753
-0.02016
-0.01490
-0.00526
0.00789
0.02542
0.03769
0.04032
0.02980
0.01490
0.00789
0.00964
0.02279
0.03769
0.04997
0.05259
0.04471
0.02980
0.01753
0.01490
0.02454
0.04208
0.05522
0.06224
0.06048
0.04734
0.03243
0.02279
0.02454
0.03945
0.05698
0.06487
0.06048
0.04734
0.03243
0.02279
0.02279
0.03243
0.04471
0.05698
0.06224
0.05259
0.04032
0.02980
0.02717
0.03506
0.05172
0.07013
0.07539
0.07013
0.06048
0.04734
0.04208
0.05259
0.06925
0.08766
0.09993
0.09993
0.09029
0.07539
0.06487
0.06487
0.07451
0.08941
0.09993
0.10256
0.09292
0.07802
0.06487
0.06224
0.07451
0.09467
0.10957
0.11483
0.11045
0.09555
0.08065
0.07539
0.07977
0.09467
0.11220
0.12272
0.12272
0.11308
0.09818
0.08766
0.08941
0.10168
0.11922
0.13236
0.13499
0.12535
0.10782
0.09555
0.09204
0.10168
0.12184
0.13762
0.13762
0.13061
0.11834
0.10344
0.09292
0.09730
0.10957
0.11922
0.12535
0.11834
0.09818
0.07539
0.05785
0.04734
0.04997
0.05698
0.05961
0.05084
0.03068
0.00877
-0.01403
-0.02717
-0.02542
-0.01315
-0.00526
-0.00701
-0.01928
-0.04120
-0.06224
-0.07451
-0.07539
-0.06311
-0.04821
-0.03769
-0.03769
-0.04909
-0.06925
-0.07977
-0.07977
-0.07363
-0.05785
-0.04734
-0.04909
-0.05961
-0.07188
-0.08240
-0.08240
-0.07539
-0.06136
-0.04295
-0.03506
-0.04208
-0.05873
-0.07451
-0.07977
-0.07363
-0.05873
-0.04120
-0.02980
-0.02980
-0.03682
-0.04734
-0.04821
-0.03857
-0.01928
0.00351
0.02367
0.03682
0.03769
0.02805
0.02016
0.02191
0.02893
0.03682
0.04032
0.03769
0.02630
0.00438
-0.01841
-0.02980
-0.02980
-0.02980
-0.02980
-0.03243
-0.04383
-0.06750
-0.09555
-0.11659
-0.12272
-0.11396
-0.10081
-0.09029
-0.08678
-0.09642
-0.11396
-0.12886
-0.13324
-0.12360
-0.10870
-0.09379
-0.08503
-0.08941
-0.10168
-0.11659
-0.12535
-0.11834
-0.10344
-0.08853
-0.07977
-0.08415
-0.09642
-0.11133
-0.12009
-0.11571
-0.10344
-0.08678
-0.07100
-0.06750
-0.07626
-0.09116
-0.10607
-0.10870
-0.07100
0.02630
0.16480
0.29979
0.40761
0.46809
0.42865
0.23492
-0.09379
-0.46459
-0.76438
-0.97038
-1.12728
-1.24738
-1.29997
-1.25526
-1.10800
-0.89148
-0.64955
-0.42514
-0.26122
-0.16392
-0.11045
-0.08152
-0.05961
-0.03243
-0.00263
0.02104
0.03243
0.02893
0.01578
0.00438
-0.00526
-0.00088
0.01315
0.03068
0.04032
0.04032
0.03156
0.01578
0.00964
0.01227
0.02279
0.04120
0.05435
0.05785
0.04909
0.03594
0.02630
0.02191
0.03068
0.04558
0.05873
0.06487
0.05873
0.04383
0.02893
0.02016
0.02630
0.04120
0.05610
0.06487
0.06136
0.04909
0.03419
0.02542
0.02893
0.04120
0.05610
0.06925
0.07276
0.06574
0.05259
0.03769
0.03682
0.04558
0.06311
0.08065
0.09204
0.09116
0.07714
0.06136
0.05522
0.05873
0.07276
0.09029
0.10168
0.10081
0.09116
0.07714
0.06487
0.06662
0.07539
0.09292
0.10694
0.10782
0.09730
0.08152
0.07100
0.06837
0.08065
0.09730
0.11396
0.11834
0.11133
0.09730
0.08152
0.07539
0.07889
0.09467
0.11571
0.12710
0.12447
0.10957
0.09467
0.08503
0.08853
0.10081
0.11746
0.13149
0.13149
0.11922
0.10607
0.09818
0.09467
0.10081
0.11571
0.12886
0.13149
0.11922
0.10081
0.07977
0.06837
0.06662
0.07363
0.08152
0.08328
0.07276
0.04909
0.02104
0.00175
-0.00701
-0.00789
0.00000
0.01140
0.00964
-0.00701
-0.02893
-0.04821
-0.05172
-0.03945
-0.02454
-0.01315
-0.01140
-0.02016
-0.03506
-0.04821
-0.05522
-0.05172
-0.03945
-0.02454
-0.01315
-0.01490
-0.03068
-0.04558
-0.05522
-0.05347
-0.04295
-0.02454
-0.01140
-0.00877
-0.02016
-0.03682
-0.05172
-0.05522
-0.04997
-0.03506
-0.02191
-0.01666
-0.02367
-0.03857
-0.05873
-0.06487
-0.06136
-0.04997
-0.03506
-0.02191
-0.01841
-0.02805
-0.03857
-0.04120
-0.02980
-0.00964
0.01841
0.04032
0.04997
0.04646
0.03506
0.02191
0.01490
0.01841
0.02805
0.03682
0.03506
0.02016
0.00351
-0.01666
-0.03156
-0.03331
-0.02980
-0.02980
-0.03156
-0.04120
-0.06311
-0.08678
-0.10344
-0.10870
-0.10168
-0.09029
-0.07802
-0.07626
-0.08328
-0.09642
-0.11308
-0.11834
-0.11045
-0.09379
-0.07802
-0.07626
-0.08328
-0.09292
-0.10344
-0.10957
-0.10694
-0.09555
-0.08328
-0.07977
-0.08152
-0.08941
-0.10168
-0.10519
-0.10344
-0.09379
-0.07539
-0.06224
-0.05698
-0.06662
-0.08328
-0.09116
-0.07889
-0.00877
0.11746
0.26210
0.38833
0.47072
0.46722
0.32083
0.01315
-0.37167
-0.70740
-0.93093
-1.08696
-1.20968
-1.28244
-1.27718
-1.17287
-0.98528
-0.75123
-0.50929
-0.31382
-0.18233
-0.10431
-0.06399
-0.04734
-0.03506
-0.01753
0.00789
0.02980
0.04032
0.03506
0.02191
0.01315
0.01140
0.01841
0.02980
0.04471
0.05522
0.05172
0.04208
0.03068
0.02016
0.02279
0.03594
0.05435
0.06837
0.07188
0.06048
0.04558
0.03243
0.02805
0.03945
0.05610
0.07276
0.07977
0.07539
0.05873
0.04208
0.03506
0.03769
0.05084
0.06925
0.07977
0.07714
0.06574
0.05084
0.04032
0.04295
0.05610
0.07451
0.08678
0.08853
0.08065
0.06574
0.05172
0.04821
0.05961
0.07451
0.08941
0.09993
0.09555
0.08065
0.06837
0.06487
0.07100
0.08941
0.10256
0.10957
0.10694
0.09555
0.08240
0.07539
0.07802
0.09204
0.11396
0.12798
0.13236
0.12097
0.10431
0.08853
0.08678
0.09555
0.11396
0.12886
0.14025
0.13587
0.12097
0.10694
0.10168
0.10782
0.12009
0.13938
0.15165
0.15253
0.14113
0.12623
0.11396
0.11396
0.13061
0.14902
0.16304
0.16743
0.15428
0.13587
0.12272
0.11483
0.11922
0.13236
0.14288
0.14727
0.13587
0.12097
0.10519
0.08853
0.08590
0.09292
0.10256
0.10782
0.09642
0.07714
0.04821
0.02717
0.02016
0.02367
0.03594
0.04032
0.03506
0.01403
-0.01052
-0.02717
-0.03594
-0.03769
-0.02717
-0.02016
-0.02279
-0.03419
-0.04909
-0.06399
-0.07363
-0.06662
-0.05084
-0.03769
-0.02980
-0.03243
-0.04471
-0.06399
-0.07539
-0.07276
-0.06048
-0.04120
-0.02980
-0.03243
-0.04383
-0.05873
-0.07276
-0.07889
-0.07013
-0.05172
-0.03769
-0.03156
-0.03857
-0.05347
-0.06750
-0.07539
-0.07013
-0.04997
-0.02980
-0.01227
-0.00526
-0.00614
-0.01140
-0.01403
-0.00526
0.01578
0.03945
0.05698
0.06224
0.04909
0.02454
0.00175
-0.00964
-0.00877
-0.00263
0.00614
0.00789
-0.00701
-0.03594
-0.06048
-0.08152
-0.08503
-0.08415
-0.07889
-0.07626
-0.08240
-0.09467
-0.11308
-0.12623
-0.12886
-0.12009
-0.10168
-0.08766
-0.08152
-0.08853
-0.10431
-0.12097
-0.12360
-0.11571
-0.09642
-0.08415
-0.07977
-0.08240
-0.09292
-0.10870
-0.12009
-0.11659
-0.10081
-0.08240
-0.07539
-0.07714
-0.08853
-0.10344
-0.11483
-0.11133
-0.09555
-0.07802
-0.06750
-0.05873
-0.04295
0.02367
0.13587
0.25421
0.36729
0.45933
0.47248
0.32609
0.00175
-0.40586
-0.75912
-0.99667
-1.15796
-1.25526
-1.29120
-1.25088
-1.12378
-0.94145
-0.72932
-0.51543
-0.33485
-0.20074
-0.11045
-0.04646
-0.01315
-0.00526
-0.00614
-0.00964
-0.00877
-0.00088
0.01841
0.03243
0.04032
0.03682
0.02191
0.00789
0.00175
0.01315
0.02805
0.04383
0.05961
0.05698
0.04208
0.02717
0.01490
0.01753
0.03419
0.05259
0.06574
0.06925
0.06224
0.04734
0.03331
0.02717
0.03769
0.05259
0.06750
0.07889
0.07188
0.05610
0.03945
0.03506
0.03682
0.04909
0.06662
0.07363
0.06837
0.05698
0.04295
0.03506
0.03682
0.04909
0.06837
0.08590
0.08941
0.08152
0.06311
0.05435
0.05084
0.05785
0.07276
0.08853
0.10519
0.10256
0.08853
0.07802
0.07100
0.07802
0.09379
0.11220
0.12009
0.11834
0.10694
0.09292
0.08503
0.08678
0.09818
0.11746
0.13061
0.13324
0.12272
0.10782
0.09818
0.09204
0.10256
0.11834
0.13587
0.13938
0.13324
0.12272
0.10870
0.10081
0.10694
0.11834
0.13675
0.14464
0.14288
0.13236
0.11834
0.10957
0.11133
0.12272
0.13850
0.15515
0.15340
0.14288
0.12710
0.10870
0.10168
0.11133
0.12184
0.13061
0.13236
0.11659
0.09642
0.07802
0.06399
0.06048
0.06662
0.07539
0.07802
0.06224
0.04208
0.02191
0.00351
-0.00438
0.00175
0.01140
0.02016
0.01841
0.00701
-0.01315
-0.03068
-0.03419
-0.02805
-0.01315
-0.00351
0.00351
-0.00701
-0.02191
-0.03156
-0.03945
-0.03331
-0.02191
-0.00263
0.00964
0.00351
-0.00701
-0.02104
-0.02980
-0.02893
-0.02191
-0.00175
0.01490
0.01315
0.00263
-0.01227
-0.02542
-0.02893
-0.01753
-0.00351
0.00614
0.01315
0.00263
-0.01227
-0.02542
-0.02980
-0.02717
-0.00701
0.01140
0.02104
0.02893
0.02454
0.01928
0.01666
0.02717
0.04383
0.06750
0.08590
0.08941
0.08240
0.06136
0.03331
0.01928
0.01666
0.02717
0.04032
0.03857
0.02717
0.00614
-0.02279
-0.04208
-0.05435
-0.04909
-0.03945
-0.03594
-0.04734
-0.06224
-0.08240
-0.09993
-0.09905
-0.09292
-0.07714
-0.05961
-0.05610
-0.06662
-0.08152
-0.09029
-0.09379
-0.08328
-0.06837
-0.05347
-0.04558
-0.05172
-0.06662
-0.08152
-0.09467
-0.08853
-0.07802
-0.05873
-0.04997
-0.05084
-0.05610
-0.06662
-0.07977
-0.07802
-0.06399
-0.05435
-0.04909
-0.04295
-0.02279
0.04295
0.15954
0.28752
0.39621
0.48913
0.51017
0.36027
0.03857
-0.37605
-0.73282
-0.97914
-1.14745
-1.25351
-1.27455
-1.21494
-1.06943
-0.87658
-0.66270
-0.45670
-0.28577
-0.16041
-0.07451
-0.02279
0.00088
0.00964
0.00438
-0.00526
-0.00351
0.01227
0.03156
0.04558
0.04909
0.04383
0.03331
0.01490
0.01052
0.01666
0.03682
0.05610
0.06487
0.06487
0.05785
0.03945
0.03506
0.03506
0.04208
0.06136
0.07013
0.06925
0.06399
0.04909
0.04032
0.04032
0.04646
0.06136
0.07539
0.07977
0.07451
0.06399
0.04909
0.04032
0.04646
0.06136
0.08065
0.08503
0.08415
0.07363
0.05873
0.04997
0.05172
0.06662
0.08590
0.09555
0.10431
0.09905
0.08415
0.06925
0.06662
0.08152
0.09642
0.11045
0.11483
0.10870
0.09379
0.08415
0.07539
0.08152
0.09642
0.11133
0.12535
0.12360
0.10870
0.09379
0.08503
0.08590
0.10168
0.12097
0.13499
0.13412
0.12360
0.10957
0.10431
0.10081
0.11133
0.12623
0.14025
0.14464
0.14464
0.13412
0.12447
0.12009
0.12535
0.13675
0.15603
0.16480
0.16392
0.14902
0.13412
0.12009
0.12097
0.13061
0.14551
0.15515
0.15428
0.14376
0.12886
0.11483
0.10957
0.11133
0.12535
0.13499
0.13412
0.11834
0.09379
0.06925
0.05522
0.05522
0.06487
0.07013
0.07013
0.06399
0.03857
0.01928
0.00438
-0.00438
0.00088
0.01052
0.01490
0.01403
-0.00088
-0.02104
-0.04032
-0.04997
-0.04383
-0.02893
-0.01490
-0.01052
-0.02104
-0.04120
-0.06048
-0.07013
-0.06399
-0.04909
-0.02980
-0.02542
-0.03068
-0.04120
-0.06048
-0.07451
-0.06925
-0.05435
-0.03945
-0.02980
-0.03068
-0.04032
-0.05522
-0.07013
-0.07451
-0.05961
-0.04909
-0.02980
-0.02980
-0.03594
-0.05522
-0.07013
-0.07977
-0.06925
-0.05435
-0.02893
-0.00438
0.00438
0.00000
-0.00526
-0.00526
-0.00438
0.01052
0.03594
0.05522
0.05961
0.04383
0.01928
-0.00526
-0.02454
-0.01928
-0.00964
0.00000
0.00000
-0.01052
-0.04120
-0.07100
-0.09555
-0.09993
-0.09467
-0.07977
-0.07539
-0.08065
-0.09555
-0.12009
-0.12973
-0.12973
-0.11922
-0.09993
-0.08503
-0.08065
-0.09029
-0.10081
-0.12009
-0.12447
-0.11483
-0.09993
-0.08503
-0.07977
-0.08503
-0.09993
-0.11483
-0.12009
-0.10957
-0.09467
-0.07451
-0.06487
-0.06487
-0.07977
-0.09029
-0.09993
-0.09993
-0.08503
-0.07013
-0.05522
-0.03945
0.01666
0.12184
0.24106
0.35151
0.44530
0.48387
0.38219
0.10081
-0.31382
-0.69776
-0.96161
-1.13605
-1.25526
-1.30435
-1.27455
-1.16848
-0.98352
-0.76876
-0.55400
-0.36904
-0.23405
-0.13499
-0.05961
-0.00964
0.00964
0.00964
0.00000
-0.00526
-0.00526
0.00526
0.02542
0.04471
0.05522
0.04471
0.03506
0.01490
0.00964
0.01490
0.02980
0.04471
0.05522
0.04997
0.04032
0.02542
0.01490
0.01490
0.02980
0.04997
0.06487
0.07013
0.06048
0.04032
0.02542
0.02016
0.02980
0.04997
0.07013
0.07539
0.06487
0.05522
0.04032
0.02980
0.02980
0.04471
0.06487
0.07451
0.07539
0.06487
0.04558
0.04032
0.04032
0.04997
0.06487
0.08503
0.08503
0.07539
0.06048
0.04558
0.04471
0.05522
0.07013
0.08941
0.09467
0.09029
0.07539
0.06048
0.05522
0.06487
0.08415
0.09993
0.10957
0.10957
0.09555
0.08065
0.06574
0.07013
0.08503
0.09993
0.10957
0.10957
0.10519
0.08590
0.07539
0.07539
0.08503
0.10431
0.11922
0.12447
0.11571
0.10081
0.08503
0.07977
0.08503
0.09993
0.11922
0.12973
0.12973
0.11571
0.10081
0.08590
0.08941
0.10431
0.11922
0.13412
0.13499
0.12535
0.10607
0.08590
0.07977
0.08503
0.08941
0.09993
0.10519
0.09029
0.07100
0.05084
0.03594
0.02980
0.03506
0.03945
0.04032
0.03068
0.01052
-0.01403
-0.02893
-0.03945
-0.03068
-0.02016
-0.01052
-0.01490
-0.02893
-0.05347
-0.06925
-0.07451
-0.06574
-0.05522
-0.04032
-0.03506
-0.03945
-0.05873
-0.07889
-0.07977
-0.07977
-0.06136
-0.04558
-0.03594
-0.03506
-0.04909
-0.06399
-0.07889
-0.07539
-0.06048
-0.04120
-0.03068
-0.02980
-0.03506
-0.05347
-0.06399
-0.07013
-0.06487
-0.05084
-0.03594
-0.03068
-0.03506
-0.05347
-0.06399
-0.07013
-0.06048
-0.04120
-0.01666
-0.00088
0.00964
0.00526
0.00000
-0.00438
0.00438
0.02367
0.04383
0.05873
0.05522
0.04120
0.01227
-0.01315
-0.02454
-0.02542
-0.01140
-0.00088
-0.00438
-0.01928
-0.04821
-0.07802
-0.09379
-0.09993
-0.09116
-0.08065
-0.07977
-0.07977
-0.09818
-0.11834
-0.12447
-0.12535
-0.11133
-0.09642
-0.08152
-0.07977
-0.08941
-0.10870
-0.12360
-0.12535
-0.12009
-0.10168
-0.08152
-0.07977
-0.07977
-0.09379
-0.10870
-0.11483
-0.10607
-0.09116
-0.07626
-0.06574
-0.06925
-0.07889
-0.09379
-0.09993
-0.09993
-0.09555
-0.08152
-0.05698
0.00438
0.11045
0.22966
0.33573
0.43128
0.49001
0.44004
0.21213
-0.16041
-0.55838
-0.86343
-1.07644
-1.23598
-1.30874
-1.27893
-1.16147
-0.98265
-0.76613
-0.55049
-0.37167
-0.24632
-0.15778
-0.08678
-0.03506
-0.00263
0.01315
0.01490
0.00614
-0.00438
-0.00964
-0.00088
0.01841
0.03769
0.04471
0.03594
0.01666
0.00175
-0.00438
0.00438
0.01841
0.03769
0.04909
0.04558
0.03594
0.02191
0.01140
0.01490
0.02805
0.04821
0.05873
0.05961
0.05084
0.03682
0.01753
0.01490
0.02367
0.03857
0.05785
0.06487
0.06048
0.04646
0.03156
0.01666
0.01928
0.03769
0.05785
0.06487
0.06487
0.05172
0.04120
0.03594
0.03945
0.05347
0.06837
0.08328
0.08503
0.07188
0.05698
0.04208
0.04471
0.05347
0.07276
0.08853
0.09467
0.08590
0.07626
0.06224
0.05522
0.05961
0.07714
0.09292
0.10782
0.10519
0.09204
0.08152
0.06662
0.06925
0.08328
0.10256
0.11396
0.11483
0.11045
0.09730
0.08590
0.08503
0.08503
0.10256
0.11834
0.12886
0.12535
0.11220
0.09292
0.08590
0.08503
0.10256
0.12272
0.13324
0.13499
0.11746
0.10168
0.09116
0.09029
0.10256
0.11834
0.13324
0.13499
0.12623
0.10782
0.08766
0.08065
0.08415
0.08941
0.09818
0.09993
0.08678
0.06750
0.04383
0.02717
0.02104
0.02893
0.03857
0.04032
0.03594
0.01753
-0.00614
-0.02717
-0.02980
-0.02980
-0.01753
-0.01052
-0.00964
-0.02279
-0.03769
-0.05259
-0.05961
-0.05610
-0.03769
-0.02630
-0.02104
-0.02805
-0.04295
-0.05785
-0.06837
-0.06136
-0.04734
-0.03243
-0.02542
-0.02893
-0.03857
-0.05259
-0.06311
-0.06487
-0.05698
-0.03857
-0.02630
-0.02542
-0.02893
-0.04646
-0.06224
-0.06925
-0.06136
-0.04734
-0.03243
-0.02542
-0.02893
-0.05084
-0.06311
-0.06925
-0.06574
-0.04821
-0.03243
-0.01315
-0.00614
-0.00877
-0.01403
-0.01490
-0.00701
0.01140
0.03156
0.04295
0.05347
0.04295
0.02367
-0.00088
-0.00877
-0.00614
-0.00088
0.00789
0.00614
-0.00351
-0.02542
-0.05522
-0.07626
-0.07977
-0.07626
-0.06662
-0.06925
-0.07802
-0.09642
-0.11659
-0.12798
-0.12623
-0.11659
-0.10256
-0.08766
-0.08065
-0.09204
-0.10694
-0.12272
-0.12535
-0.12097
-0.10344
-0.08766
-0.08065
-0.08853
-0.09818
-0.11220
-0.12360
-0.11659
-0.10256
-0.08328
-0.07188
-0.07802
-0.08853
-0.10256
-0.11308
-0.11483
-0.10256
-0.07977
-0.06311
-0.06399
-0.06487
-0.02454
0.07013
0.19548
0.32083
0.43829
0.50053
0.42952
0.16743
-0.22966
-0.62500
-0.90551
-1.09222
-1.21407
-1.27893
-1.27806
-1.19040
-1.02911
-0.82574
-0.61185
-0.40936
-0.24983
-0.13587
-0.06311
-0.02191
-0.00701
-0.00877
-0.01403
-0.01140
-0.00175
0.01578
0.03594
0.04383
0.04120
0.02805
0.01666
0.01140
0.01403
0.03068
0.04734
0.05785
0.05610
0.04295
0.02805
0.01666
0.01928
0.03594
0.05172
0.06311
0.06487
0.05698
0.03945
0.02279
0.02016
0.02805
0.04208
0.05698
0.06399
0.05698
0.04295
0.02805
0.02104
0.02367
0.04032
0.06048
0.06925
0.06574
0.05347
0.03857
0.02717
0.02893
0.04208
0.06048
0.07276
0.07539
0.06750
0.04909
0.03682
0.03506
0.03857
0.05961
0.07626
0.08766
0.08590
0.07363
0.06224
0.05610
0.06311
0.07626
0.09204
0.10256
0.10081
0.08853
0.07363
0.06574
0.06487
0.08065
0.09642
0.10782
0.10957
0.10607
0.08941
0.07714
0.07100
0.08152
0.09642
0.11133
0.11922
0.11220
0.10256
0.08853
0.08503
0.08853
0.10168
0.11659
0.12798
0.12623
0.11396
0.09818
0.08766
0.08853
0.10519
0.12184
0.13236
0.13499
0.12710
0.11396
0.09116
0.08503
0.08503
0.09993
0.11220
0.11133
0.09905
0.07626
0.05522
0.04208
0.04032
0.04383
0.05259
0.05873
0.04471
0.02104
0.00000
-0.02016
-0.02542
-0.02104
-0.00877
-0.00088
-0.00351
-0.02016
-0.03594
-0.05084
-0.05873
-0.05610
-0.04383
-0.03243
-0.02630
-0.02893
-0.04909
-0.06662
-0.07714
-0.07276
-0.05873
-0.04032
-0.03156
-0.02980
-0.04120
-0.05610
-0.07100
-0.07100
-0.05873
-0.03682
-0.01928
-0.01841
-0.03068
-0.04997
-0.06224
-0.06487
-0.05785
-0.04032
-0.02805
-0.02542
-0.02893
-0.04821
-0.06574
-0.07363
-0.06750
-0.05435
-0.03857
-0.03156
-0.03331
-0.04997
-0.06574
-0.07714
-0.07626
-0.06048
-0.04032
-0.02367
-0.01666
-0.01490
-0.01841
-0.02367
-0.01753
0.00000
0.01928
0.03945
0.04821
0.04295
0.02542
0.00526
-0.01052
-0.01841
-0.00877
-0.00175
0.00351
-0.00263
-0.01928
-0.04646
-0.06925
-0.07889
-0.07977
-0.07626
-0.07100
-0.07363
-0.08240
-0.09905
-0.11922
-0.12535
-0.11746
-0.10431
-0.08941
-0.08152
-0.08678
-0.10081
-0.11922
-0.12535
-0.12184
-0.10957
-0.09467
-0.08678
-0.08853
-0.10081
-0.11922
-0.12535
-0.12535
-0.11045
-0.09116
-0.07802
-0.07539
-0.08240
-0.09555
-0.10694
-0.10957
-0.10256
-0.08590
-0.07626
-0.07188
-0.06311
-0.02454
0.06399
0.18671
0.31294
0.42777
0.49527
0.43566
0.19723
-0.17532
-0.56189
-0.86080
-1.07031
-1.21231
-1.28156
-1.25614
-1.13868
-0.96862
-0.77490
-0.57504
-0.38920
-0.24457
-0.14201
-0.07276
-0.03419
-0.01841
-0.01490
-0.01841
-0.01666
-0.00789
0.00877
0.02542
0.03682
0.04032
0.02630
0.01315
0.00351
0.00351
0.01578
0.03419
0.04734
0.05347
0.04471
0.03331
0.01928
0.01490
0.02542
0.04032
0.05522
0.05961
0.04997
0.03156
0.01841
0.01490
0.01841
0.03331
0.05347
0.06311
0.05785
0.04471
0.02980
0.02191
0.02367
0.03506
0.05698
0.07188
0.07188
0.06311
0.04646
0.03331
0.02980
0.03682
0.05698
0.07539
0.08328
0.08152
0.07013
0.05172
0.04120
0.04646
0.06311
0.08328
0.09379
0.09204
0.07977
0.06487
0.05347
0.05347
0.06487
0.08328
0.10344
0.10694
0.09467
0.07977
0.06837
0.06487
0.07539
0.09379
0.11045
0.11483
0.10870
0.09204
0.08152
0.08328
0.09204
0.10519
0.12009
0.12798
0.12360
0.10694
0.09029
0.08503
0.08853
0.10344
0.12360
0.13675
0.13675
0.12798
0.11483
0.10344
0.09993
0.10694
0.12272
0.13324
0.13499
0.13149
0.11659
0.10344
0.09379
0.09029
0.09993
0.10870
0.11308
0.10870
0.09204
0.07188
0.05172
0.04208
0.04295
0.05172
0.05785
0.05347
0.03419
0.00877
-0.00964
-0.01841
-0.01315
-0.00351
0.00614
0.00701
-0.00438
-0.02630
-0.04821
-0.05785
-0.05698
-0.04558
-0.03331
-0.02367
-0.02016
-0.02980
-0.04821
-0.06136
-0.06487
-0.05873
-0.04208
-0.02893
-0.02542
-0.03156
-0.04821
-0.06750
-0.07539
-0.06574
-0.05084
-0.03506
-0.02980
-0.03594
-0.04997
-0.06487
-0.07013
-0.06399
-0.05347
-0.04383
-0.03682
-0.04120
-0.05435
-0.07276
-0.08328
-0.08152
-0.07013
-0.05522
-0.04032
-0.03506
-0.04120
-0.05435
-0.06662
-0.06048
-0.03945
-0.01403
0.01052
0.02279
0.01841
0.01227
0.00351
0.00000
0.00614
0.01666
0.02630
0.02717
0.01578
-0.00526
-0.02717
-0.04120
-0.04471
-0.03857
-0.03156
-0.03331
-0.04471
-0.06574
-0.09029
-0.11220
-0.12272
-0.11922
-0.10607
-0.09730
-0.09204
-0.09642
-0.10957
-0.12097
-0.13149
-0.12886
-0.11922
-0.10607
-0.09730
-0.09818
-0.11220
-0.12272
-0.12798
-0.12710
-0.11571
-0.10081
-0.08853
-0.08766
-0.09642
-0.11220
-0.12623
-0.12710
-0.11922
-0.10256
-0.08590
-0.07714
-0.07802
-0.09204
-0.10870
-0.11220
-0.07977
0.00964
0.13938
0.26999
0.38044
0.44706
0.43215
0.27788
-0.02630
-0.40410
-0.73370
-0.96687
-1.13780
-1.26315
-1.32890
-1.31224
-1.19390
-0.99229
-0.75035
-0.51543
-0.32696
-0.20337
-0.13499
-0.09730
-0.06750
-0.04032
-0.01490
0.00964
0.02630
0.02367
0.01403
0.00088
-0.00526
-0.00175
0.00877
0.02980
0.04295
0.04471
0.04208
0.02805
0.01403
0.01315
0.02104
0.03419
0.04558
0.04997
0.04383
0.02805
0.01403
0.00964
0.01578
0.03156
0.04909
0.05785
0.05698
0.04646
0.03156
0.02191
0.02279
0.03331
0.04909
0.06048
0.06224
0.05172
0.03594
0.02454
0.02279
0.03331
0.05172
0.06574
0.07276
0.06925
0.05347
0.03945
0.03506
0.03769
0.05435
0.07363
0.08328
0.08240
0.07100
0.05347
0.04208
0.04558
0.05873
0.07626
0.08766
0.09029
0.08152
0.06925
0.05610
0.04997
0.05873
0.07626
0.09029
0.09818
0.09467
0.08152
0.06925
0.06487
0.06750
0.07802
0.09379
0.10519
0.10694
0.09642
0.08152
0.06925
0.07100
0.08328
0.10081
0.11571
0.12009
0.11483
0.10168
0.08941
0.08503
0.09379
0.10519
0.11834
0.12535
0.11922
0.10694
0.09204
0.08503
0.08766
0.09818
0.11045
0.11483
0.10957
0.09379
0.07714
0.06750
0.06487
0.07013
0.08065
0.08503
0.07977
0.06399
0.04120
0.02191
0.01227
0.01315
0.01490
0.01753
0.01753
0.00438
-0.01841
-0.04120
-0.05259
-0.05259
-0.04208
-0.03243
-0.02717
-0.03068
-0.04558
-0.06574
-0.08065
-0.08240
-0.07451
-0.06224
-0.04997
-0.04997
-0.06311
-0.07802
-0.09292
-0.09730
-0.08678
-0.06925
-0.05435
-0.04997
-0.05522
-0.06837
-0.07802
-0.07977
-0.07188
-0.05698
-0.04208
-0.03243
-0.03243
-0.04558
-0.06311
-0.07539
-0.07977
-0.07188
-0.05698
-0.04208
-0.03769
-0.04558
-0.05259
-0.05785
-0.05435
-0.03682
-0.01227
0.01315
0.02805
0.02717
0.02016
0.00964
0.00526
0.00789
0.01227
0.01753
0.01753
0.00964
-0.00789
-0.03068
-0.04558
-0.04997
-0.04734
-0.04208
-0.04032
-0.04821
-0.06837
-0.09029
-0.11045
-0.12009
-0.11220
-0.09993
-0.08941
-0.08503
-0.09029
-0.10256
-0.11746
-0.12535
-0.12272
-0.11220
-0.09730
-0.08766
-0.09029
-0.10256
-0.11746
-0.12798
-0.12710
-0.11483
-0.09730
-0.08503
-0.08240
-0.09292
-0.10519
-0.11483
-0.12009
-0.10957
-0.09204
-0.07714
-0.06750
-0.07276
-0.09029
-0.10782
-0.10782
-0.06224
0.04558
0.18496
0.31294
0.41550
0.47248
0.42777
0.23229
-0.09993
-0.47248
-0.77227
-0.98440
-1.14482
-1.25965
-1.30961
-1.26315
-1.11326
-0.89587
-0.65130
-0.42602
-0.26034
-0.16041
-0.10782
-0.07977
-0.06048
-0.04032
-0.01753
0.00526
0.02016
0.02016
0.01052
0.00000
-0.00526
-0.00263
0.00701
0.02454
0.04032
0.04295
0.03506
0.02279
0.01052
0.00701
0.01490
0.02980
0.04734
0.05522
0.04734
0.03243
0.02016
0.01490
0.01753
0.02980
0.04734
0.05961
0.06048
0.04821
0.03068
0.01753
0.01753
0.02980
0.04471
0.05522
0.05961
0.05084
0.03243
0.02016
0.01753
0.02980
0.05172
0.07188
0.07977
0.07276
0.05347
0.03769
0.03769
0.04471
0.05698
0.07188
0.08240
0.08503
0.07802
0.06311
0.05522
0.05698
0.06662
0.08240
0.09204
0.09292
0.08503
0.07276
0.06048
0.05698
0.06662
0.08240
0.09730
0.10519
0.09555
0.07802
0.06574
0.05961
0.06487
0.08152
0.10168
0.11483
0.11571
0.10344
0.09029
0.08065
0.07977
0.09204
0.10694
0.11922
0.12535
0.12009
0.11045
0.10081
0.09730
0.10431
0.11922
0.13236
0.13499
0.12798
0.11308
0.09818
0.08766
0.08766
0.09642
0.10694
0.10957
0.10344
0.08590
0.06574
0.05084
0.04734
0.05435
0.06487
0.07188
0.07013
0.05347
0.02893
0.00789
-0.00263
-0.00263
0.00438
0.00964
0.00526
-0.00701
-0.02630
-0.04646
-0.05698
-0.05785
-0.04821
-0.03331
-0.02542
-0.02717
-0.03857
-0.05698
-0.06925
-0.07100
-0.06048
-0.05084
-0.04471
-0.04909
-0.05698
-0.06399
-0.07188
-0.07539
-0.07100
-0.06048
-0.05084
-0.04295
-0.04471
-0.05435
-0.06399
-0.07013
-0.06311
-0.04821
-0.03594
-0.02980
-0.03419
-0.05084
-0.07188
-0.08415
-0.08590
-0.07363
-0.05873
-0.04558
-0.04208
-0.04909
-0.05961
-0.06750
-0.06574
-0.04909
-0.02454
-0.00175
0.01227
0.01490
0.00877
-0.00175
-0.00263
0.00614
0.02367
0.03682
0.03769
0.02630
0.00701
-0.01578
-0.03243
-0.03331
-0.02805
-0.02279
-0.02454
-0.03857
-0.06224
-0.08853
-0.10607
-0.11746
-0.11396
-0.09905
-0.08590
-0.07977
-0.08590
-0.10344
-0.12097
-0.12973
-0.12360
-0.10694
-0.08853
-0.07977
-0.08415
-0.09642
-0.11133
-0.12184
-0.12535
-0.11922
-0.10344
-0.09116
-0.08503
-0.09116
-0.10431
-0.11396
-0.11834
-0.10870
-0.09204
-0.07363
-0.06487
-0.07100
-0.08590
-0.09905
-0.10519
-0.09905
-0.06574
0.01227
0.12535
0.24807
0.35414
0.42339
0.43215
0.32346
0.06048
-0.30768
-0.66620
-0.93181
-1.11676
-1.25351
-1.33416
-1.32714
-1.21757
-1.02385
-0.78805
-0.55488
-0.36553
-0.23931
-0.16129
-0.10957
-0.07100
-0.03419
-0.00175
0.01227
0.01490
0.01140
0.00088
-0.00526
0.00088
0.01578
0.03068
0.04383
0.04821
0.04120
0.02717
0.01490
0.01490
0.02279
0.04120
0.05347
0.05961
0.05435
0.03945
0.02630
0.02191
0.02893
0.04032
0.05610
0.06487
0.06311
0.05259
0.03594
0.02980
0.03156
0.04032
0.05610
0.06837
0.07100
0.06136
0.04909
0.03594
0.03156
0.03857
0.05259
0.06837
0.07539
0.07100
0.05785
0.03945
0.03156
0.03857
0.05259
0.07276
0.08503
0.08503
0.07802
0.06136
0.05347
0.05347
0.06574
0.08065
0.09379
0.09818
0.09116
0.07977
0.06837
0.06487
0.07188
0.09204
0.10694
0.10957
0.10431
0.08941
0.07626
0.07188
0.07889
0.09204
0.11045
0.12184
0.12097
0.10957
0.09467
0.08503
0.08853
0.10081
0.11746
0.13149
0.13324
0.12447
0.10957
0.09642
0.09204
0.09993
0.11746
0.13149
0.13675
0.13675
0.12272
0.10607
0.09993
0.10344
0.11746
0.13324
0.13850
0.13149
0.11834
0.09818
0.08503
0.08503
0.08853
0.09818
0.10694
0.10519
0.08766
0.06837
0.04997
0.03682
0.03331
0.04032
0.04032
0.03682
0.02279
0.00175
-0.02016
-0.03331
-0.03857
-0.03156
-0.02191
-0.01666
-0.02542
-0.04208
-0.06136
-0.07626
-0.07977
-0.07363
-0.05522
-0.04120
-0.03857
-0.04997
-0.06662
-0.08328
-0.08853
-0.07977
-0.06487
-0.04997
-0.04208
-0.04821
-0.06136
-0.07626
-0.07977
-0.07626
-0.06487
-0.04997
-0.03857
-0.03857
-0.05172
-0.07013
-0.07977
-0.07802
-0.06837
-0.04821
-0.03331
-0.02980
-0.03156
-0.04032
-0.04997
-0.04471
-0.02717
-0.00175
0.02191
0.03682
0.03506
0.02191
0.01052
0.00000
0.00175
0.00789
0.01490
0.01315
0.00526
-0.01315
-0.03682
-0.05347
-0.05961
-0.05873
-0.05522
-0.05522
-0.06136
-0.08152
-0.10168
-0.11834
-0.12535
-0.12184
-0.11045
-0.09642
-0.09116
-0.09642
-0.10607
-0.12447
-0.13499
-0.13149
-0.11922
-0.10168
-0.09467
-0.09642
-0.10607
-0.12184
-0.12623
-0.12886
-0.11922
-0.10081
-0.08853
-0.08678
-0.09467
-0.10782
-0.11834
-0.12184
-0.11045
-0.09379
-0.07714
-0.07013
-0.07451
-0.09116
-0.10519
-0.08853
-0.01227
0.12009
0.26560
0.39008
0.47335
0.47774
0.33748
0.03857
-0.34800
-0.69425
-0.93356
-1.10274
-1.22984
-1.29471
-1.28244
-1.18163
-0.99843
-0.76789
-0.52858
-0.32609
-0.19197
-0.11220
-0.07451
-0.05698
-0.04383
-0.02454
-0.00263
0.01928
0.03331
0.03594
0.02191
0.00964
-0.00526
-0.00351
0.00438
0.02104
0.03769
0.04471
0.04208
0.02893
0.01315
0.01140
0.02104
0.03945
0.05259
0.05961
0.05610
0.04120
0.02542
0.01490
0.01928
0.03594
0.05435
0.06487
0.06048
0.04558
0.03068
0.02016
0.02104
0.02893
0.04383
0.05610
0.05873
0.05084
0.03594
0.02367
0.02279
0.03419
0.05084
0.06750
0.07363
0.06750
0.05610
0.04208
0.03506
0.03769
0.05084
0.06925
0.08152
0.08240
0.07100
0.05435
0.04032
0.04295
0.05522
0.07539
0.09292
0.09905
0.09116
0.07626
0.06399
0.06136
0.06925
0.08415
0.09905
0.10870
0.09993
0.08240
0.07276
0.06662
0.07363
0.09029
0.10870
0.12097
0.12097
0.10782
0.09642
0.08503
0.08766
0.09905
0.11396
0.12623
0.12886
0.12097
0.10607
0.09379
0.09029
0.09467
0.11396
0.12710
0.13412
0.12623
0.10957
0.09292
0.08503
0.09116
0.11396
0.12710
0.13236
0.12097
0.10256
0.07539
0.05785
0.05084
0.05785
0.06837
0.07977
0.07626
0.05785
0.02893
0.00614
-0.00614
-0.00877
-0.00351
0.00088
0.00263
-0.00877
-0.02454
-0.04383
-0.05522
-0.05259
-0.04120
-0.02717
-0.02016
-0.02279
-0.03506
-0.05347
-0.06662
-0.06925
-0.06136
-0.04646
-0.03419
-0.03156
-0.03945
-0.05873
-0.07276
-0.07802
-0.06574
-0.04558
-0.02805
-0.02016
-0.02367
-0.03945
-0.05873
-0.07013
-0.06662
-0.04909
-0.02630
-0.01490
-0.01841
-0.03419
-0.05259
-0.06224
-0.06750
-0.05698
-0.04120
-0.02980
-0.03156
-0.03945
-0.05698
-0.06487
-0.06136
-0.04471
-0.01841
0.00964
0.02542
0.02279
0.01403
0.00964
0.01140
0.01578
0.02104
0.02630
0.02980
0.02630
0.01052
-0.01052
-0.03068
-0.03419
-0.02980
-0.02893
-0.02630
-0.03419
-0.05610
-0.08503
-0.10957
-0.12360
-0.11659
-0.10168
-0.08766
-0.07977
-0.08328
-0.09905
-0.11746
-0.12535
-0.12272
-0.11220
-0.09642
-0.08590
-0.09204
-0.10344
-0.11746
-0.12535
-0.12184
-0.10694
-0.09204
-0.07802
-0.07100
-0.07802
-0.09292
-0.10607
-0.10870
-0.10168
-0.08678
-0.07188
-0.06136
-0.06837
-0.08415
-0.10168
-0.10782
-0.08766
-0.01490
0.11308
0.24895
0.36378
0.44706
0.45933
0.34625
0.07626
-0.30067
-0.66357
-0.92041
-1.09397
-1.23510
-1.32627
-1.33503
-1.24124
-1.05365
-0.81084
-0.56277
-0.35677
-0.22353
-0.14551
-0.09905
-0.06925
-0.04032
-0.01403
0.01403
0.03068
0.03419
0.02717
0.01403
0.00964
0.01052
0.01928
0.04295
0.05610
0.05785
0.04734
0.03156
0.01403
0.01052
0.01841
0.03857
0.05698
0.06399
0.05785
0.04821
0.03769
0.02542
0.02805
0.04295
0.05785
0.07013
0.06925
0.06136
0.04208
0.02805
0.02191
0.03331
0.05259
0.06487
0.06487
0.06224
0.04821
0.03857
0.03156
0.04295
0.05785
0.07188
0.07977
0.07714
0.06224
0.04821
0.04032
0.04383
0.06224
0.07626
0.08503
0.08415
0.07714
0.06136
0.04471
0.04734
0.06311
0.08240
0.09642
0.10344
0.09292
0.08240
0.07013
0.07188
0.08240
0.09730
0.11133
0.11922
0.11220
0.09730
0.08415
